1515720341.00
64.000000
-0.00
-0.00
-0.00
-0.00
-0.00
-0.00
-0.00
-0.00
-0.00
-0.00
0.00
0.01
0.01
-0.00
-0.03
-0.05
-0.05
0.00
0.13
0.36
0.66
1.01
1.37
1.72
2.06
2.40
2.79
3.24
3.80
4.42
5.06
5.66
6.20
6.68
7.15
7.68
8.31
9.14
10.09
11.04
11.88
12.56
13.14
13.76
14.65
15.96
17.91
20.32
22.90
25.38
27.58
29.57
31.68
34.32
37.81
42.54
48.15
54.10
59.83
64.97
69.58
74.14
79.34
85.71
93.76
103.00
112.62
121.73
129.77
136.75
143.30
150.75
157.77
166.64
177.95
191.79
206.97
220.57
228.25
225.36
208.53
176.87
132.76
80.05
23.07
-34.94
-92.44
-149.16
-205.23
-260.37
-313.74
-363.87
-409.83
-450.91
-486.50
-515.74
-537.23
-549.22
-549.96
-538.37
-514.21
-478.67
-433.88
-382.45
-327.02
-269.84
-212.63
-156.66
-102.95
-52.37
-5.90
35.58
71.43
101.35
125.50
144.38
158.69
169.15
176.37
180.75
182.57
182.07
179.51
175.23
169.65
163.18
156.15
148.81
141.30
133.69
126.02
118.33
110.69
103.16
95.80
88.68
81.83
75.25
68.95
62.95
57.25
51.86
46.78
42.03
37.59
33.45
29.61
26.07
22.81
19.83
17.11
14.67
12.48
10.54
8.83
7.35
6.07
4.97
4.05
3.27
2.62
2.09
1.65
1.30
1.01
0.79
0.61
0.48
0.37
0.29
0.24
0.21
0.19
0.18
0.18
0.20
0.22
0.25
0.28
0.32
0.36
0.41
0.45
0.50
0.55
0.60
0.64
0.70
0.76
0.84
0.92
1.01
1.10
1.15
1.19
1.21
1.23
1.29
1.40
1.57
1.78
2.00
2.22
2.42
2.62
2.84
3.12
3.48
3.92
4.42
4.93
5.39
5.80
6.17
6.57
7.07
7.75
8.58
9.51
10.38
11.09
11.58
11.93
12.29
12.86
13.79
15.05
16.42
17.56
18.11
17.85
16.77
15.08
13.06
10.89
8.55
5.76
2.09
-2.83
-9.00
-16.04
-23.21
-29.73
-35.02
-38.90
-41.63
-43.68
-45.58
-47.74
-50.50
-53.97
-57.96
-61.60
-63.33
-61.27
-54.03
-41.63
-25.73
-9.23
4.89
14.78
20.24
22.50
23.20
23.51
23.71
23.44
22.36
20.60
18.76
17.52
17.14
17.27
17.29
16.54
14.78
12.21
9.38
6.94
5.27
4.48
4.36
4.52
4.55
4.22
3.46
2.40
1.27
0.27
-0.47
-1.01
-1.54
-2.22
-3.14
-4.14
-5.00
-5.49
-5.58
-5.48
-5.58
-6.31
-7.96
-10.63
-14.02
-17.65
-20.86
-23.14
-24.08
-23.48
-21.37
-17.86
-13.21
-7.75
-1.88
4.04
9.69
14.79
19.13
22.50
24.73
25.64
25.30
23.89
21.77
19.33
16.89
14.66
12.68
11.06
9.89
9.32
9.45
10.24
11.51
12.91
14.16
15.02
15.48
15.57
15.38
14.88
13.90
12.20
9.58
5.98
1.57
-3.23
-7.91
-11.91
-14.79
-16.27
-16.27
-14.93
-12.49
-9.36
-5.91
-2.53
0.50
2.97
4.73
5.75
6.02
5.64
4.74
3.53
2.22
0.95
-0.15
-1.05
-1.71
-2.17
-2.45
-2.61
-2.78
-3.09
-3.68
-4.64
-5.92
-7.40
-8.90
-10.26
-11.41
-12.46
-13.58
-14.99
-16.76
-18.76
-20.66
-21.95
-22.21
-21.21
-19.03
-15.91
-12.18
-8.14
-4.09
-0.26
3.12
5.87
7.93
9.34
10.25
10.82
11.17
11.39
11.50
11.58
11.69
11.83
11.93
11.82
11.36
10.43
9.09
7.45
5.67
3.90
2.25
0.70
-0.78
-2.33
-4.06
-6.08
-8.44
-11.03
-13.60
-15.73
-16.92
-16.74
-14.98
-11.77
-7.59
-3.14
0.91
4.10
6.28
7.65
8.52
9.27
10.07
10.95
11.78
12.34
12.46
12.08
11.31
10.39
9.57
8.98
8.60
8.34
8.03
7.57
6.87
5.88
4.57
2.94
1.08
-0.85
-2.66
-4.22
-5.52
-6.68
-7.91
-9.49
-11.55
-14.06
-16.77
-19.20
-20.76
-20.90
-19.31
-16.06
-11.64
-6.82
-2.37
1.14
3.53
4.92
5.65
6.03
6.34
6.69
7.08
7.46
7.72
7.78
7.56
7.05
6.32
5.50
4.68
3.93
3.27
2.65
2.07
1.54
1.05
0.62
0.22
-0.13
-0.36
-0.34
-0.06
0.40
0.71
0.51
-0.40
-1.88
-3.40
-4.14
-3.33
-0.67
3.56
8.57
13.31
16.95
19.17
20.27
20.89
21.66
22.81
24.12
25.04
25.04
23.95
21.98
19.68
17.73
16.69
16.91
18.36
20.44
21.72
19.90
12.38
-2.67
-25.13
-52.39
-79.77
-102.01
-114.93
-116.57
-107.33
-89.37
-65.70
-39.65
-14.57
6.41
20.73
27.18
26.38
20.82
14.12
9.68
9.53
13.87
21.61
31.22
41.81
53.48
67.07
83.34
102.27
122.78
143.14
161.68
177.43
190.27
200.41
207.75
211.69
211.40
206.56
197.60
185.36
170.04
150.49
124.52
90.29
48.24
1.94
-42.58
-79.11
-103.97
-117.50
-123.58
-127.54
-133.85
-144.38
-158.44
-173.76
-187.74
-198.32
-204.08
-204.18
-198.20
-186.44
-169.98
-150.62
-130.41
-111.08
-93.78
-79.05
-67.24
-58.94
-54.96
-55.91
-61.67
-71.00
-81.66
-91.09
-97.21
-98.94
-96.26
-89.75
-79.98
-67.26
-51.84
-34.18
-15.42
2.89
19.19
32.47
42.53
49.86
55.17
58.90
61.15
61.63
60.08
56.49
51.25
45.00
38.45
32.22
26.65
21.97
18.16
15.15
12.78
10.89
9.33
7.99
6.85
5.89
5.17
4.74
4.64
4.88
5.46
6.40
7.76
9.65
12.11
15.03
18.18
21.29
24.16
26.75
29.22
31.66
34.08
36.22
37.69
38.15
37.50
35.96
33.82
31.37
28.72
25.87
22.78
19.46
16.05
12.70
9.61
6.91
4.64
2.91
1.67
0.85
0.36
0.12
0.12
0.42
1.12
2.26
3.81
5.61
7.57
9.60
11.72
13.97
16.34
18.76
20.99
22.75
23.75
23.84
23.03
21.51
19.63
17.69
15.90
14.27
12.70
11.06
9.31
7.52
5.72
4.00
2.30
0.55
-1.38
-3.44
-5.53
-7.35
-8.66
-9.33
-9.47
-9.40
-9.52
-10.03
-10.80
-11.36
-11.09
-9.49
-6.53
-2.63
1.45
5.03
7.81
9.94
11.91
14.15
16.84
19.69
22.19
23.83
24.37
24.06
23.45
23.20
23.75
25.25
27.52
30.21
32.98
35.51
37.67
39.40
40.72
41.60
41.95
41.56
40.21
37.72
34.09
29.60
24.71
19.83
15.10
10.32
5.12
-0.86
-7.50
-14.30
-20.41
-25.11
-28.01
-29.29
-29.60
-29.71
-30.34
-31.88
-34.49
-38.09
-42.58
-47.86
-53.79
-60.20
-66.80
-73.34
-79.75
-86.34
-93.47
-101.20
-108.67
-113.85
-114.04
-106.91
-91.93
-71.03
-48.16
-27.71
-12.47
-2.52
4.65
12.47
23.50
38.22
55.28
72.62
88.64
102.77
114.80
124.24
129.66
129.19
121.41
106.43
86.20
63.72
41.87
22.24
4.87
-11.05
-25.88
-38.63
-46.96
-48.18
-40.83
-25.60
-5.43
15.60
33.61
45.98
51.68
50.97
44.97
35.29
23.91
12.83
3.49
-3.75
-9.72
-15.86
-23.22
-31.80
-40.62
-48.52
-55.21
-61.61
-69.32
-79.60
-92.44
-106.45
-119.52
-129.95
-137.26
-142.18
-146.02
-149.58
-152.60
-153.68
-151.01
-143.16
-129.62
-110.96
-88.39
-63.32
-36.92
-10.09
16.39
41.53
64.08
82.64
95.96
103.40
105.12
102.17
96.10
88.61
81.00
73.94
67.48
61.27
55.03
48.80
42.98
38.20
34.96
33.47
33.47
34.50
35.87
37.07
37.74
37.69
36.97
35.57
33.52
30.81
27.49
23.72
19.82
16.15
13.02
10.53
8.51
6.70
4.89
3.14
1.75
1.02
1.16
1.93
2.89
3.47
3.38
2.63
1.47
0.23
-0.96
-2.14
-3.51
-5.18
-7.16
-9.29
-11.31
-13.02
-14.19
-14.62
-14.11
-12.58
-10.11
-7.02
-3.82
-0.96
1.26
2.89
4.11
5.17
6.17
7.01
7.51
7.48
6.97
6.17
5.41
4.97
5.02
5.52
6.32
7.24
7.99
8.38
8.25
7.55
6.30
4.60
2.55
0.16
-2.56
-5.69
-9.13
-12.64
-15.87
-18.46
-20.33
-21.55
-22.52
-23.46
-24.46
-25.25
-25.39
-24.52
-22.50
-19.56
-16.06
-12.43
-8.88
-5.45
-2.11
1.13
4.07
6.45
8.03
8.72
8.62
7.96
7.03
5.97
4.86
3.71
2.56
1.53
0.75
0.28
0.05
-0.10
-0.36
-0.76
-1.27
-1.79
-2.32
-2.97
-3.95
-5.41
-7.32
-9.54
-11.79
-13.91
-15.80
-17.35
-18.34
-18.38
-17.12
-14.37
-10.40
-5.79
-1.28
2.48
5.22
6.92
7.86
8.32
8.54
8.58
8.42
8.00
7.35
6.61
6.04
5.88
6.22
6.91
7.62
8.03
8.00
7.61
7.15
6.86
6.82
6.93
6.95
6.63
5.79
4.37
2.34
-0.14
-2.89
-5.64
-8.22
-10.55
-12.60
-14.31
-15.45
-15.68
-14.63
-12.17
-8.54
-4.26
-0.01
3.70
6.56
8.56
9.85
10.64
11.20
11.68
12.20
12.75
13.25
13.54
13.54
13.27
12.80
12.24
11.61
10.87
9.86
8.48
6.65
4.39
1.85
-0.71
-3.00
-4.81
-6.05
-6.83
-7.39
-7.97
-8.77
-9.89
-11.31
-12.91
-14.57
-16.01
-16.99
-17.25
-16.61
-15.06
-12.69
-9.71
-6.38
-2.98
0.29
3.27
5.83
7.89
9.36
10.20
10.37
9.88
8.88
7.61
6.47
5.76
5.66
5.97
6.37
6.43
5.93
4.96
3.80
2.83
2.14
1.60
0.81
-0.58
-2.63
-5.08
-7.49
-9.51
-11.08
-12.42
-13.72
-14.93
-15.64
-15.30
-13.52
-10.31
-6.22
-2.05
1.50
4.10
5.88
7.20
8.46
9.81
11.16
12.15
12.45
11.84
10.38
8.44
6.52
5.10
4.38
4.27
4.40
4.43
4.18
3.72
3.30
3.03
2.84
2.53
1.87
0.81
-0.54
-2.00
-3.55
-5.19
-7.08
-9.18
-11.25
-12.90
-13.69
-13.43
-12.11
-9.93
-7.16
-4.11
-1.02
1.94
4.52
6.60
8.09
9.00
9.40
9.47
9.36
9.21
9.05
8.87
8.61
8.20
7.58
6.76
5.81
4.81
3.82
2.92
2.05
1.23
0.38
-0.54
-1.60
-2.86
-4.38
-6.18
-8.20
-10.38
-12.58
-14.60
-16.20
-16.99
-16.68
-15.11
-12.36
-8.79
-4.94
-1.41
1.47
3.54
4.98
6.00
6.85
7.60
8.24
8.68
8.83
8.64
8.11
7.36
6.50
5.72
5.08
4.63
4.28
3.88
3.31
2.45
1.32
-0.01
-1.34
-2.48
-3.28
-3.70
-3.87
-4.02
-4.44
-5.31
-6.69
-8.50
-10.46
-12.22
-13.37
-13.55
-12.54
-10.36
-7.27
-3.80
-0.53
2.05
3.68
4.45
4.62
4.58
4.63
4.94
5.52
6.21
6.83
7.15
7.08
6.61
5.83
4.87
3.84
2.77
1.56
0.18
-1.39
-3.00
-4.42
-5.43
-5.93
-6.11
-6.24
-6.63
-7.46
-8.66
-10.09
-11.60
-13.16
-14.74
-16.27
-17.49
-18.05
-17.56
-15.87
-13.12
-9.68
-6.07
-2.66
0.32
2.87
5.08
7.01
8.71
10.09
11.10
11.67
11.84
11.70
11.46
11.26
11.21
11.38
11.63
11.87
11.90
11.59
10.88
9.80
8.53
7.28
6.32
5.71
5.42
5.25
4.99
4.40
3.24
1.39
-1.25
-4.49
-7.95
-11.02
-13.10
-13.80
-13.11
-11.36
-9.04
-6.59
-4.21
-1.91
0.36
2.55
4.41
5.67
6.08
5.67
4.68
3.49
2.43
1.63
1.04
0.32
-0.78
-2.46
-4.62
-6.96
-8.97
-10.20
-10.43
-9.69
-8.44
-7.27
-6.86
-7.60
-9.41
-11.72
-13.57
-14.00
-12.34
-8.51
-2.92
3.61
10.18
16.01
20.54
23.55
25.01
25.16
24.38
23.11
21.74
20.55
19.72
19.34
19.56
20.46
22.12
24.38
26.87
29.05
30.35
30.54
29.88
29.32
30.01
32.85
37.99
44.53
50.84
55.06
55.95
53.05
46.82
38.09
27.69
16.37
4.75
-6.41
-16.36
-24.51
-30.81
-35.75
-40.12
-44.52
-48.94
-52.67
-54.59
-53.76
-49.73
-42.90
-34.28
-25.19
-16.87
-10.13
-5.37
-2.54
-1.40
-1.60
-2.69
-4.25
-5.81
-7.07
-7.97
-8.71
-9.62
-10.95
-12.76
-14.82
-16.89
-18.74
-20.29
-21.44
-22.04
-21.74
-20.21
-17.48
-14.01
-10.71
-8.48
-7.98
-9.23
-11.75
-14.81
-17.70
-20.00
-21.53
-22.24
-22.12
-21.10
-19.16
-16.36
-13.01
-9.50
-6.28
-3.60
-1.50
0.17
1.53
2.59
3.24
3.25
2.66
1.69
0.82
0.50
0.88
1.81
2.81
3.47
3.54
3.11
2.37
1.53
0.66
-0.31
-1.39
-2.55
-3.63
-4.52
-5.27
-6.10
-7.31
-9.03
-11.11
-13.01
-14.06
-13.65
-11.59
-8.15
-3.93
0.27
3.82
6.34
7.79
8.31
8.20
7.79
7.33
7.01
6.83
6.77
6.69
6.51
6.17
5.67
5.04
4.29
3.46
2.51
1.50
0.47
-0.53
-1.47
-2.43
-3.46
-4.66
-6.12
-7.87
-9.90
-12.06
-14.16
-15.85
-16.84
-16.86
-15.78
-13.61
-10.52
-6.84
-3.00
0.46
3.20
5.06
6.23
7.02
7.81
8.70
9.60
10.26
10.52
10.51
10.46
10.64
11.12
11.77
12.33
12.59
12.55
12.33
12.17
12.15
12.23
12.23
11.99
11.44
10.55
9.44
8.17
6.86
5.57
4.45
3.62
3.16
3.06
3.13
3.11
2.77
1.98
0.79
-0.64
-2.08
-3.43
-4.67
-5.86
-7.10
-8.47
-10.02
-11.78
-13.76
-15.87
-17.92
-19.56
-20.44
-20.22
-18.75
-16.11
-12.60
-8.68
-4.77
-1.23
1.90
4.60
6.89
8.68
9.75
10.02
9.58
8.81
8.23
8.21
8.87
9.98
11.20
12.17
12.75
12.93
12.78
12.39
11.82
11.12
10.43
9.90
9.62
9.63
9.79
9.93
9.90
9.58
8.98
8.12
7.09
5.93
4.74
3.54
2.34
1.18
0.05
-0.98
-1.90
-2.70
-3.48
-4.40
-5.60
-7.13
-8.94
-10.94
-12.97
-14.95
-16.78
-18.27
-19.15
-19.08
-17.85
-15.43
-12.14
-8.35
-4.50
-0.91
2.28
4.93
6.95
8.23
8.76
8.72
8.40
8.12
8.09
8.32
8.67
9.01
9.29
9.52
9.77
10.04
10.26
10.33
10.25
10.04
9.89
9.91
10.13
10.40
10.45
10.06
9.16
7.90
6.56
5.44
4.73
4.33
4.06
3.60
2.72
1.30
-0.61
-2.79
-4.93
-6.72
-8.01
-8.79
-9.30
-9.78
-10.50
-11.53
-12.81
-14.10
-15.12
-15.54
-15.00
-13.33
-10.44
-6.59
-2.26
1.94
5.40
7.81
9.10
9.54
9.48
9.33
9.37
9.72
10.38
11.24
12.19
13.09
13.89
14.50
14.80
14.66
13.93
12.63
10.95
9.32
8.16
7.72
7.94
8.45
8.77
8.51
7.60
6.33
5.13
4.31
3.86
3.49
2.82
1.62
0.02
-1.66
-3.06
-3.96
-4.43
-4.62
-4.72
-4.84
-5.05
-5.47
-6.29
-7.62
-9.42
-11.35
-12.91
-13.62
-13.19
-11.66
-9.30
-6.51
-3.70
-1.16
0.94
2.54
3.73
4.69
5.66
6.84
8.26
9.77
11.01
11.68
11.58
10.78
9.51
8.13
6.89
5.94
5.31
4.95
4.80
4.82
4.92
5.03
5.06
4.97
4.79
4.49
4.02
3.27
2.16
0.67
-1.04
-2.76
-4.33
-5.68
-6.80
-7.77
-8.60
-9.29
-9.89
-10.51
-11.35
-12.52
-14.07
-15.94
-17.99
-20.15
-22.32
-24.48
-26.46
-28.04
-28.92
-28.72
-27.14
-23.89
-18.83
-11.93
-3.46
6.04
15.73
24.65
31.94
36.95
39.36
39.03
35.94
30.17
22.00
12.11
1.56
-8.32
-16.37
-21.96
-25.23
-26.80
-27.18
-26.23
-22.89
-15.91
-4.99
8.13
19.68
25.18
21.48
8.39
-11.24
-32.84
-52.24
-66.93
-76.00
-79.11
-75.59
-64.73
-47.06
-25.70
-6.05
6.29
8.50
2.41
-6.06
-9.97
-5.03
8.31
25.51
40.67
49.64
51.67
48.66
42.99
35.48
24.77
8.75
-13.28
-38.87
-62.40
-77.07
-77.55
-62.40
-34.65
-0.66
32.42
59.06
76.76
85.84
88.22
85.86
80.00
71.33
60.55
48.85
37.73
28.30
20.76
14.28
7.61
-0.05
-8.48
-16.51
-22.65
-25.95
-26.49
-25.22
-23.51
-22.45
-22.52
-23.47
-24.60
-25.05
-24.13
-21.47
-17.14
-11.65
-5.79
-0.42
3.81
6.67
8.50
10.00
11.89
14.66
18.41
22.88
27.58
31.90
35.18
36.74
36.15
33.49
29.54
25.74
23.78
25.01
29.97
38.15
48.12
57.99
65.86
70.29
70.55
66.66
59.29
49.56
38.70
27.78
17.60
8.58
0.94
-5.26
-10.02
-13.47
-15.97
-18.05
-20.30
-23.09
-26.50
-30.19
-33.59
-36.17
-37.61
-37.97
-37.62
-37.00
-36.38
-35.75
-34.83
-33.30
-31.14
-28.71
-26.72
-25.88
-26.52
-28.34
-30.50
-32.03
-32.26
-31.14
-29.14
-26.96
-25.19
-24.11
-23.79
-24.25
-25.59
-27.72
-30.16
-31.89
-31.54
-27.91
-20.57
-10.18
1.78
13.59
23.97
32.47
39.30
44.88
49.30
52.31
53.50
52.82
50.73
48.08
45.63
43.65
41.90
39.86
37.25
34.25
31.45
29.47
28.50
28.36
28.55
28.77
29.09
30.01
32.12
35.55
39.81
43.82
46.30
46.11
42.65
35.81
26.03
14.16
1.36
-11.05
-21.83
-30.24
-36.35
-40.98
-45.31
-50.14
-55.42
-60.14
-62.80
-62.32
-58.57
-52.59
-46.03
-40.39
-36.48
-34.12
-32.64
-31.39
-30.26
-29.73
-30.51
-33.00
-37.03
-41.81
-46.29
-49.60
-51.35
-51.70
-51.11
-49.96
-48.39
-46.21
-43.22
-39.45
-35.36
-31.78
-29.51
-28.81
-29.18
-29.43
-28.26
-24.86
-19.23
-12.15
-4.69
2.31
8.57
14.36
20.27
26.94
34.92
44.62
56.18
69.44
83.84
98.49
112.35
124.46
134.07
140.69
143.96
143.70
140.05
133.69
125.86
118.06
111.54
106.78
103.36
100.21
96.15
90.45
83.11
74.81
66.67
60.00
55.88
54.91
56.91
60.74
64.44
65.58
61.80
51.41
33.60
8.53
-22.81
-58.55
-95.74
-130.50
-158.68
-177.11
-184.90
-184.07
-178.94
-174.27
-173.42
-177.00
-182.98
-187.96
-188.72
-183.35
-171.40
-153.56
-131.12
-105.81
-79.86
-55.84
-36.38
-23.47
-17.89
-19.02
-24.99
-33.11
-40.41
-44.17
-42.44
-34.60
-21.62
-5.98
9.12
20.72
26.95
27.43
22.98
15.24
6.12
-2.23
-7.74
-8.64
-4.07
5.49
18.13
31.07
41.76
48.66
51.79
52.21
51.25
49.78
47.83
44.78
39.63
31.53
19.96
4.97
-12.68
-31.54
-49.56
-64.56
-74.62
-78.62
-76.42
-68.95
-58.01
-45.90
-34.91
-26.65
-21.69
-19.30
-17.85
-15.30
-9.93
-0.85
11.83
27.13
43.59
59.40
72.85
82.35
86.64
84.92
77.13
64.13
47.73
30.58
15.66
5.64
2.13
5.08
12.69
21.93
29.70
33.85
33.90
30.96
27.01
23.93
22.68
23.10
24.06
24.13
22.17
17.78
11.60
5.04
0.09
-1.35
2.06
10.50
22.94
37.38
51.38
62.89
70.59
74.10
73.69
70.10
64.28
57.30
50.34
44.36
40.08
37.56
36.34
35.57
34.40
32.25
28.92
24.53
19.34
13.61
7.59
1.42
-4.73
-10.83
-16.89
-23.10
-29.56
-36.23
-42.83
-48.89
-54.02
-58.00
-60.92
-62.93
-64.23
-64.71
-64.11
-62.05
-58.26
-52.81
-46.01
-38.41
-30.56
-22.98
-15.98
-9.75
-4.32
0.46
4.79
8.95
13.09
17.23
21.18
24.61
27.24
28.79
29.19
28.40
26.59
23.93
20.69
17.15
13.64
10.49
7.93
6.14
5.09
4.58
4.20
3.32
1.44
-1.81
-6.36
-11.74
-17.16
-21.73
-24.69
-25.50
-24.00
-20.32
-15.04
-8.99
-3.22
1.31
3.91
4.29
2.68
-0.45
-4.45
-8.84
-13.26
-17.50
-21.35
-24.58
-26.89
-28.03
-27.99
-26.99
-25.53
-24.20
-23.45
-23.45
-23.88
-24.25
-24.01
-22.87
-20.95
-18.82
-17.26
-16.93
-18.14
-20.61
-23.67
-26.46
-28.35
-29.08
-28.86
-28.12
-27.29
-26.68
-26.33
-26.20
-26.29
-26.71
-27.82
-30.01
-33.68
-39.03
-46.00
-54.15
-62.74
-70.79
-77.24
-81.34
-82.67
-81.31
-77.48
-71.23
-62.19
-49.69
-33.21
-12.86
10.22
33.87
55.34
71.91
81.57
83.52
78.55
69.00
58.49
51.04
50.03
57.09
71.57
90.75
110.61
127.05
136.75
137.54
128.57
110.21
84.15
53.40
21.90
-6.35
-28.35
-43.05
-51.54
-56.41
-60.67
-66.57
-75.07
-85.89
-98.06
-110.51
-122.48
-133.59
-143.53
-152.01
-158.45
-162.13
-162.26
-158.20
-149.63
-136.63
-119.62
-99.11
-75.67
-49.88
-22.56
5.06
31.46
55.07
74.76
90.23
102.08
111.53
119.75
127.35
134.12
139.30
142.13
142.37
140.46
137.20
133.23
128.60
122.76
115.04
105.29
94.27
83.69
75.44
70.83
69.93
71.45
73.34
73.56
70.80
64.76
56.01
45.60
34.44
23.12
11.69
-0.01
-12.13
-24.37
-35.85
-45.27
-51.45
-53.92
-53.19
-50.84
-48.84
-48.79
-51.17
-55.07
-58.67
-59.95
-57.50
-50.91
-40.74
-28.03
-14.08
-0.33
11.82
21.14
26.98
29.76
31.21
33.89
40.37
52.11
68.89
88.94
109.54
128.11
142.81
152.64
157.04
155.28
146.03
127.31
97.36
55.84
5.02
-49.75
-100.99
-141.20
-165.42
-172.66
-165.77
-149.51
-128.42
-105.35
-81.65
-58.53
-38.25
-24.26
-19.83
-26.32
-42.09
-62.92
-83.70
-100.47
-111.51
-117.20
-119.17
-119.00
-117.59
-115.27
-112.10
-108.15
-103.52
-98.09
-91.35
-82.45
-70.57
-55.35
-37.28
-17.48
2.47
21.07
37.18
50.14
59.71
65.94
69.12
69.76
68.70
66.95
65.57
65.36
66.56
68.77
71.08
72.37
71.70
68.60
63.14
55.73
47.01
37.48
27.46
17.11
6.55
-3.95
-13.90
-22.54
-29.04
-32.65
-32.94
-29.89
-23.95
-15.90
-6.70
2.66
11.38
18.85
24.72
28.85
31.22
31.91
31.10
29.09
26.23
22.98
19.69
16.69
14.14
12.11
10.58
9.48
8.76
8.27
7.90
7.42
6.58
5.13
2.81
-0.46
-4.64
-9.47
-14.47
-18.96
-22.20
-23.50
-22.44
-19.00
-13.54
-6.76
0.57
7.78
14.39
20.16
24.90
28.51
30.86
31.91
31.74
30.58
28.79
26.73
24.65
22.70
20.86
18.98
16.93
14.62
12.10
9.49
6.94
4.50
2.04
-0.68
-4.00
-8.07
-12.80
-17.84
-22.55
-26.21
-28.05
-27.58
-24.58
-19.33
-12.51
-4.99
2.33
8.82
14.08
17.90
20.20
20.96
20.37
18.82
16.89
15.16
14.00
13.35
12.73
11.54
9.30
6.01
2.17
-1.44
-4.11
-5.54
-6.08
-6.69
-8.60
-12.84
-19.73
-28.62
-37.91
-45.57
-49.81
-49.76
-45.76
-39.15
-31.68
-24.68
-18.64
-13.24
-7.75
-1.69
4.90
11.42
17.01
20.70
21.56
18.91
12.70
4.13
-4.16
-8.46
-5.54
5.54
22.33
39.46
50.80
52.25
43.81
29.65
16.25
9.63
13.15
26.78
47.94
73.05
98.75
122.43
142.13
156.23
163.53
163.63
157.26
146.38
133.69
121.81
112.47
105.99
101.23
95.97
87.65
74.20
54.58
29.23
-0.17
-31.34
-62.13
-91.36
-118.94
-145.72
-172.52
-199.39
-224.98
-246.73
-261.71
-267.83
-264.91
-254.92
-241.72
-229.72
-222.57
-221.77
-225.98
-231.11
-231.34
-220.61
-194.13
-149.72
-88.48
-15.02
63.32
137.81
200.33
245.54
272.13
283.07
284.22
282.00
281.12
283.26
287.24
290.33
289.94
284.67
274.31
259.34
240.33
217.80
192.52
165.80
139.38
115.00
93.73
75.40
58.75
41.97
23.62
3.24
-18.43
-39.70
-58.62
-73.54
-83.51
-88.34
-88.51
-84.92
-78.68
-71.00
-62.88
-55.16
-48.31
-42.59
-38.07
-34.71
-32.43
-31.11
-30.63
-30.75
-31.27
-31.96
-32.64
-33.16
-33.35
-33.12
-32.36
-31.04
-29.13
-26.74
-24.04
-21.24
-18.67
-16.62
-15.46
-15.49
-16.90
-19.60
-23.19
-26.88
-29.70
-30.85
-29.92
-27.26
-23.77
-20.56
-18.48
-17.57
-17.03
-15.31
-10.74
-2.02
11.40
29.09
49.77
71.40
91.40
106.69
114.12
111.04
96.24
70.64
37.38
1.18
-32.95
-60.97
-80.64
-91.41
-93.85
-88.94
-77.80
-62.07
-44.37
-28.57
-19.07
-19.35
-30.44
-50.10
-73.37
-94.18
-107.59
-111.20
-105.67
-93.86
-79.40
-65.51
-54.36
-47.14
-44.32
-45.91
-51.33
-59.39
-68.35
-76.15
-80.94
-81.45
-77.34
-69.17
-58.19
-45.93
-33.65
-22.18
-11.77
-2.42
5.79
12.48
16.98
18.76
17.81
14.81
10.90
7.30
4.79
3.49
2.95
2.45
1.39
-0.52
-3.21
-6.41
-9.73
-12.91
-15.82
-18.55
-21.37
-24.65
-28.72
-33.67
-39.15
-44.30
-47.88
-48.55
-45.37
-38.12
-27.40
-14.48
-0.85
12.04
23.05
31.30
36.29
38.00
37.14
35.22
34.36
36.61
43.27
54.12
67.31
79.97
89.15
92.89
91.01
85.00
77.40
70.80
66.93
66.20
67.92
70.91
74.16
77.25
80.31
83.70
87.71
92.49
98.19
105.16
113.83
124.39
136.41
148.60
159.13
166.16
168.55
166.19
159.97
151.30
141.53
131.55
121.60
111.65
101.70
92.21
84.02
78.00
74.42
72.55
70.65
66.60
58.84
47.26
33.44
20.07
9.83
4.24
2.99
4.09
4.64
2.01
-5.18
-16.50
-29.86
-42.38
-51.71
-57.06
-59.50
-61.53
-65.89
-74.48
-87.56
-103.85
-121.18
-137.28
-150.41
-159.59
-164.63
-166.04
-165.11
-163.79
-164.32
-168.62
-177.44
-189.95
-203.70
-215.36
-221.90
-221.61
-214.60
-202.47
-187.47
-171.58
-155.96
-140.97
-126.29
-111.12
-94.40
-75.06
-52.50
-27.06
-0.13
26.14
49.62
68.99
84.15
95.98
105.62
113.79
120.40
124.69
125.45
121.41
111.46
94.95
72.11
44.35
14.40
-14.30
-38.48
-56.15
-67.09
-72.63
-74.95
-76.03
-77.01
-77.93
-78.11
-76.68
-72.97
-66.77
-58.29
-48.06
-36.96
-26.14
-16.90
-10.39
-7.27
-7.41
-9.95
-13.50
-16.71
-18.53
-18.65
-17.44
-15.88
-15.18
-16.31
-19.67
-24.85
-30.79
-36.26
-40.27
-42.53
-43.28
-43.17
-42.81
-42.83
-43.85
-46.60
-51.67
-59.16
-68.39
-77.97
-86.34
-92.46
-96.15
-97.78
-97.72
-95.79
-91.20
-83.06
-70.75
-54.35
-34.35
-11.56
13.05
38.12
61.73
81.74
96.29
104.61
107.28
106.02
103.09
100.58
100.23
103.17
110.04
120.59
133.59
146.98
158.60
167.10
172.64
176.75
181.43
187.78
195.09
201.02
202.56
197.56
185.78
168.89
149.72
130.82
113.70
98.47
84.57
71.60
59.83
50.11
43.20
39.08
36.72
34.43
30.75
25.00
17.49
9.09
0.72
-7.10
-14.32
-21.25
-28.36
-36.20
-45.35
-56.25
-68.96
-82.92
-96.92
-109.30
-118.45
-123.18
-122.99
-118.16
-109.56
-98.56
-86.74
-75.65
-66.50
-59.86
-55.67
-53.34
-52.06
-51.12
-50.07
-48.71
-46.91
-44.58
-41.55
-37.73
-33.15
-28.01
-22.68
-17.56
-13.13
-9.72
-7.52
-6.53
-6.66
-7.85
-10.15
-13.71
-18.53
-24.23
-29.95
-34.51
-36.95
-36.88
-34.72
-31.40
-27.93
-24.94
-22.52
-20.45
-18.55
-16.96
-16.07
-16.22
-17.51
-19.59
-21.88
-23.83
-25.17
-25.94
-26.43
-27.01
-27.97
-29.55
-31.83
-34.77
-38.11
-41.39
-43.98
-45.22
-44.56
-41.75
-37.00
-30.88
-24.22
-17.78
-12.11
-7.38
-3.39
0.15
3.61
7.15
10.84
14.65
18.49
22.32
26.04
29.46
32.36
34.53
35.85
36.33
36.06
35.11
33.49
31.19
28.25
24.79
21.09
17.48
14.31
11.86
10.39
10.17
11.46
14.45
19.13
25.18
31.88
38.32
43.62
47.22
49.02
49.52
49.54
49.95
51.26
53.47
56.02
58.02
58.46
56.48
51.56
43.57
32.88
20.40
7.51
-4.29
-13.72
-20.19
-24.00
-26.16
-27.92
-30.19
-33.22
-36.52
-39.24
-40.51
-39.84
-37.16
-32.79
-27.26
-21.16
-15.13
-9.80
-5.77
-3.51
-3.17
-4.54
-7.08
-10.07
-12.83
-14.93
-16.28
-17.01
-17.39
-17.67
-18.03
-18.56
-19.29
-20.24
-21.44
-22.98
-24.87
-27.17
-29.80
-32.60
-35.29
-37.50
-38.93
-39.39
-38.89
-37.41
-34.92
-31.23
-26.15
-19.74
-12.51
-5.39
0.44
3.99
4.98
4.00
2.53
2.52
5.78
13.22
24.41
37.47
49.66
58.29
61.78
60.29
55.68
50.65
47.70
48.12
51.59
56.33
59.60
58.31
49.74
32.36
6.52
-25.08
-57.85
-86.56
-107.13
-118.10
-120.82
-118.41
-113.89
-108.53
-101.50
-90.79
-74.95
-54.42
-31.81
-10.79
5.46
15.61
20.51
22.49
23.94
26.27
29.46
32.68
35.21
37.24
39.83
44.12
50.28
56.91
61.24
60.36
52.52
38.16
19.82
1.27
-13.79
-22.89
-25.39
-22.43
-16.30
-9.78
-5.31
-4.49
-7.65
-13.80
-20.92
-26.48
-28.33
-25.33
-17.76
-7.15
4.31
14.48
21.92
26.08
27.16
25.74
22.41
17.65
11.86
5.53
-0.76
-6.28
-10.42
-12.70
-12.93
-11.16
-7.64
-2.75
3.07
9.39
15.80
21.95
27.53
32.27
35.89
38.01
38.25
36.37
32.48
27.25
21.78
17.41
15.23
15.62
18.07
21.38
24.07
24.87
23.15
18.95
12.77
5.32
-2.77
-10.95
-18.76
-25.66
-30.97
-34.01
-34.26
-31.64
-26.58
-19.92
-12.66
-5.63
0.68
6.20
11.06
15.40
19.14
22.01
23.61
23.68
22.26
19.81
17.03
14.73
13.46
13.33
13.97
14.72
14.88
13.99
11.86
8.60
4.34
-0.71
-6.33
-12.12
-17.35
-21.14
-22.54
-20.98
-16.50
-9.72
-1.76
6.15
12.96
18.00
21.04
22.28
22.17
21.33
20.42
19.95
20.22
21.18
22.49
23.69
24.35
24.33
23.70
22.73
21.58
20.25
18.44
15.84
12.24
7.82
3.10
-1.24
-4.64
-6.93
-8.31
-9.23
-10.10
-11.11
-12.14
-12.77
-12.43
-10.48
-6.45
-0.16
8.06
17.22
25.85
32.34
35.47
34.86
31.03
25.20
18.68
12.44
6.81
1.59
-3.61
-8.99
-14.21
-18.47
-20.74
-20.30
-17.16
-12.15
-6.60
-1.93
0.63
0.11
-4.34
-13.37
-27.13
-44.63
-63.45
-80.17
-91.32
-94.64
-89.79
-78.28
-62.52
-44.85
-27.04
-10.31
4.17
15.17
21.74
23.84
22.79
20.95
20.90
24.37
31.61
41.27
51.16
59.05
63.42
63.71
60.22
53.80
45.40
35.87
25.81
15.56
5.29
-4.83
-14.54
-23.39
-30.74
-35.96
-38.50
-38.16
-35.06
-29.72
-22.90
-15.56
-8.60
-2.75
1.61
4.49
6.15
6.98
7.28
7.18
6.65
5.69
4.41
3.01
1.74
0.71
-0.04
-0.57
-0.86
-0.76
-0.16
0.87
1.98
2.56
2.03
0.00
-3.48
-8.08
-13.43
-19.38
-26.04
-33.54
-41.63
-49.41
-55.36
-57.74
-55.17
-47.18
-34.39
-18.27
-0.74
16.37
31.67
44.30
53.75
59.66
61.74
59.81
53.98
44.85
33.46
21.16
9.30
-1.00
-9.01
-14.28
-16.60
-15.92
-12.35
-6.31
1.45
9.88
17.76
23.94
27.63
28.51
26.72
22.84
17.72
12.40
7.96
5.50
5.91
9.66
16.52
25.42
34.63
42.23
46.71
47.53
45.17
40.93
36.22
32.09
28.86
26.24
23.68
20.73
17.19
13.10
8.46
3.07
-3.42
-11.24
-20.18
-29.48
-38.04
-44.86
-49.48
-52.22
-53.90
-55.36
-57.05
-58.80
-60.00
-60.10
-58.93
-56.82
-54.28
-51.62
-48.75
-45.21
-40.62
-35.00
-28.88
-22.97
-17.77
-13.20
-8.70
-3.70
1.89
7.50
12.16
15.06
16.01
15.61
14.80
14.39
14.70
15.60
16.84
18.32
20.24
22.80
25.97
29.29
32.05
33.66
33.93
33.29
32.56
32.62
33.95
36.49
39.65
42.54
44.38
44.72
43.58
41.31
38.34
34.84
30.57
24.96
17.25
6.99
-5.67
-19.77
-33.67
-45.49
-53.66
-57.49
-57.27
-54.05
-49.01
-43.10
-36.84
-30.60
-25.04
-21.31
-20.94
-25.23
-34.72
-48.76
-65.56
-82.63
-97.22
-106.94
-110.13
-106.33
-96.49
-82.74
-67.74
-53.81
-42.05
-32.18
-23.05
-13.37
-2.57
9.05
20.54
30.93
39.66
46.64
52.08
56.08
58.57
59.47
58.98
57.90
57.43
58.82
62.63
68.37
74.53
79.19
80.77
78.84
74.17
68.28
62.77
58.63
55.99
54.29
52.54
49.67
44.86
37.75
28.72
18.91
9.92
3.15
-0.93
-3.20
-5.51
-9.89
-17.40
-27.60
-38.70
-48.47
-55.37
-59.26
-61.47
-63.90
-68.15
-74.54
-82.01
-88.45
-91.41
-89.00
-80.32
-65.79
-46.81
-25.36
-3.38
17.62
36.76
53.71
68.38
80.72
90.69
98.44
104.31
108.81
112.28
114.55
114.90
112.32
106.16
96.59
84.73
72.34
61.04
51.87
44.93
39.69
35.39
31.47
27.70
24.07
20.60
17.23
13.97
10.92
8.45
6.96
6.57
6.82
6.55
4.37
-0.82
-9.12
-19.54
-30.25
-39.29
-45.27
-47.84
-47.66
-46.02
-44.41
-44.08
-45.78
-49.47
-54.26
-58.59
-60.57
-58.70
-52.48
-42.70
-31.10
-19.65
-9.87
-2.31
3.21
7.24
10.24
12.41
13.96
15.20
16.66
18.76
21.47
24.14
25.67
25.02
21.61
15.66
8.02
-0.20
-8.17
-15.55
-22.49
-29.38
-36.44
-43.57
-50.32
-56.24
-61.06
-64.88
-68.07
-70.92
-73.39
-74.88
-74.60
-71.57
-65.08
-54.86
-40.98
-23.95
-4.74
15.03
33.35
48.53
60.16
69.64
79.79
93.46
111.67
132.62
151.95
164.55
166.78
158.05
140.77
118.88
96.07
74.36
54.04
34.41
14.78
-4.84
-23.72
-40.81
-55.24
-66.47
-74.72
-80.53
-84.55
-87.19
-88.39
-87.65
-84.35
-78.28
-69.92
-60.40
-51.12
-43.07
-36.51
-30.81
-25.04
-18.47
-11.21
-4.10
1.69
5.29
6.71
6.77
6.77
7.70
9.84
12.55
14.67
15.09
13.19
9.03
3.13
-3.81
-11.12
-18.10
-24.01
-28.04
-29.48
-28.11
-24.31
-19.13
-13.87
-9.56
-6.75
-5.28
-4.63
-4.17
-3.50
-2.49
-1.20
0.11
1.24
1.96
2.14
1.72
0.83
-0.22
-0.94
-0.86
0.19
2.04
4.08
5.54
5.72
4.22
1.15
-3.02
-7.54
-11.66
-14.76
-16.51
-16.88
-16.15
-14.86
-13.52
-12.57
-12.17
-12.16
-12.18
-11.81
-10.67
-8.63
-5.80
-2.47
0.83
3.56
5.26
5.66
4.81
2.97
0.58
-1.90
-3.92
-5.03
-4.92
-3.53
-1.19
1.42
3.45
4.20
3.35
0.99
-2.52
-6.77
-11.32
-15.76
-19.53
-22.08
-22.91
-21.93
-19.45
-16.11
-12.60
-9.30
-6.39
-3.82
-1.64
-0.05
0.62
0.15
-1.44
-3.75
-6.10
-7.77
-8.22
-7.34
-5.45
-3.19
-1.18
0.23
1.03
1.45
1.65
1.48
0.53
-1.64
-5.12
-9.48
-13.75
-16.88
-17.98
-16.76
-13.43
-8.64
-3.29
1.81
5.98
8.88
10.54
11.26
11.55
11.81
12.23
12.71
13.05
13.04
12.62
11.86
10.80
9.49
7.82
5.78
3.47
1.13
-1.00
-2.91
-4.86
-7.38
-10.87
-15.33
-20.20
-24.50
-27.29
-28.15
-27.45
-26.09
-25.09
-24.88
-25.13
-24.81
-22.86
-18.81
-13.01
-6.55
-0.54
4.52
9.04
14.02
20.35
28.26
37.04
45.31
51.73
55.50
56.59
55.51
52.99
49.47
45.12
39.76
33.22
25.45
16.51
6.65
-3.82
-14.36
-24.27
-32.70
-38.95
-42.74
-44.28
-44.19
-43.12
-41.37
-38.70
-34.50
-28.06
-19.22
-8.55
2.68
12.82
20.48
24.88
26.13
25.04
22.97
21.49
22.04
25.61
32.45
41.87
52.20
61.26
66.88
67.79
64.18
57.80
51.54
48.42
50.61
58.57
70.99
85.19
97.93
106.45
109.02
105.31
96.28
83.95
70.88
59.67
52.32
49.60
50.72
53.32
54.21
50.19
39.06
20.04
-6.30
-38.38
-74.23
-111.68
-148.52
-182.26
-210.33
-230.49
-241.45
-243.57
-238.76
-230.01
-220.21
-211.06
-202.49
-192.77
-179.65
-161.41
-137.83
-110.32
-81.47
-54.12
-30.75
-13.26
-2.77
0.48
-2.47
-9.27
-16.73
-22.02
-23.95
-23.34
-22.54
-23.74
-27.54
-32.31
-35.04
-32.97
-25.14
-12.66
2.45
18.70
36.31
56.55
80.26
106.31
131.17
150.23
159.82
159.30
151.37
140.91
132.54
128.46
127.69
126.83
122.15
111.48
95.30
76.25
57.85
42.86
32.17
24.81
18.65
11.78
3.37
-6.13
-15.64
-24.53
-33.37
-43.97
-58.47
-78.11
-102.31
-128.53
-153.00
-172.01
-183.09
-185.36
-179.41
-166.60
-148.57
-127.12
-104.39
-82.82
-64.44
-49.86
-37.26
-22.42
-0.12
33.51
78.74
131.59
184.97
231.52
266.30
288.28
299.85
304.69
305.72
303.73
297.62
285.60
266.43
239.79
205.95
165.30
118.48
67.21
14.97
-33.03
-71.18
-95.52
-105.48
-104.20
-97.06
-89.32
-83.96
-81.13
-79.07
-75.89
-71.01
-65.30
-60.25
-56.72
-54.40
-52.12
-48.86
-44.54
-40.15
-37.22
-36.78
-38.64
-41.44
-43.39
-43.01
-39.82
-34.41
-28.00
-21.87
-16.91
-13.41
-11.19
-9.86
-9.13
-9.00
-9.75
-11.72
-15.00
-19.27
-23.77
-27.67
-30.36
-31.71
-32.09
-32.11
-32.29
-32.83
-33.49
-33.86
-33.51
-32.26
-30.21
-27.64
-24.85
-21.97
-19.01
-15.94
-12.86
-10.15
-8.24
-7.54
-8.11
-9.62
-11.44
-12.86
-13.31
-12.51
-10.45
-7.27
-3.21
1.39
6.13
10.50
14.01
16.22
16.92
16.12
14.08
11.18
7.76
4.08
0.19
-3.90
-8.19
-12.53
-16.56
-19.77
-21.65
-21.88
-20.48
-17.80
-14.36
-10.72
-7.25
-4.16
-1.55
0.52
1.94
2.58
2.42
1.65
0.64
-0.16
-0.43
-0.11
0.58
1.21
1.48
1.24
0.64
-0.05
-0.60
-0.94
-1.22
-1.69
-2.61
-4.12
-6.18
-8.64
-11.16
-13.33
-14.66
-14.79
-13.57
-11.17
-8.02
-4.73
-1.80
0.46
2.09
3.29
4.30
5.25
6.15
6.93
7.58
8.15
8.77
9.49
10.23
10.74
10.74
10.08
8.76
6.97
4.92
2.72
0.25
-2.67
-6.22
-10.46
-15.20
-19.98
-24.14
-26.89
-27.54
-25.70
-21.44
-15.40
-8.56
-1.98
3.52
7.48
9.88
10.88
10.77
9.84
8.40
6.80
5.35
4.25
3.46
2.75
1.83
0.56
-0.93
-2.35
-3.39
-3.96
-4.28
-4.81
-6.02
-8.20
-11.32
-15.07
-18.91
-22.28
-24.61
-25.45
-24.44
-21.41
-16.46
-10.02
-2.78
4.40
10.75
15.69
19.01
20.81
21.41
21.23
20.57
19.63
18.47
17.09
15.50
13.78
12.07
10.50
9.18
8.07
7.01
5.73
4.02
1.80
-0.86
-3.78
-6.85
-10.05
-13.39
-16.79
-19.93
-22.19
-22.90
-21.54
-18.04
-12.88
-6.83
-0.80
4.56
8.93
12.32
14.87
16.66
17.69
17.87
17.20
15.78
13.94
12.08
10.53
9.52
9.00
8.78
8.62
8.31
7.74
6.92
5.91
4.74
3.47
2.03
0.39
-1.46
-3.48
-5.54
-7.47
-9.06
-10.06
-10.18
-9.19
-6.92
-3.38
1.19
6.31
11.32
15.60
18.63
20.27
20.63
20.10
19.06
17.76
16.24
14.42
12.31
10.08
8.08
6.63
5.80
5.36
4.87
4.00
2.68
1.16
-0.16
-1.04
-1.51
-1.86
-2.45
-3.51
-5.03
-6.86
-8.80
-10.70
-12.41
-13.67
-14.10
-13.25
-10.78
-6.64
-1.22
4.77
10.42
14.96
17.98
19.47
19.78
19.37
18.56
17.51
16.22
14.74
13.23
12.12
11.74
12.25
13.41
14.58
15.03
14.29
12.32
9.53
6.49
3.63
1.12
-1.14
-3.37
-5.66
-8.01
-10.38
-12.81
-15.43
-18.29
-21.19
-23.48
-24.29
-22.83
-18.85
-12.86
-5.96
0.55
5.75
9.36
11.69
13.27
14.48
15.34
15.52
14.70
12.75
9.97
6.92
4.20
2.19
0.93
0.15
-0.55
-1.46
-2.69
-4.23
-6.07
-8.35
-11.36
-15.37
-20.43
-26.37
-32.79
-39.42
-46.25
-53.50
-61.40
-69.70
-77.54
-83.37
-85.56
-82.85
-74.76
-61.62
-44.28
-23.84
-1.40
21.90
44.86
66.19
84.73
99.63
110.50
117.47
121.08
122.33
122.63
123.57
126.57
132.15
139.55
146.67
150.84
149.84
142.90
130.86
115.58
98.95
82.00
64.83
47.10
28.83
10.83
-5.42
-18.35
-27.06
-31.62
-32.94
-32.34
-31.00
-29.71
-28.90
-28.93
-30.11
-32.55
-35.78
-38.63
-39.62
-37.78
-33.39
-28.01
-23.64
-21.33
-20.17
-17.50
-10.27
3.08
21.40
40.99
57.24
66.49
67.47
61.22
50.20
36.95
23.34
10.55
-0.64
-9.52
-15.54
-18.59
-19.34
-19.12
-19.50
-21.67
-25.95
-31.71
-37.65
-42.31
-44.65
-44.31
-41.70
-37.80
-33.88
-31.09
-30.30
-31.79
-35.20
-39.56
-43.59
-46.15
-46.58
-44.93
-41.85
-38.23
-34.86
-32.07
-29.85
-28.01
-26.40
-25.07
-24.27
-24.34
-25.48
-27.68
-30.65
-33.89
-36.70
-38.27
-37.81
-34.73
-28.86
-20.54
-10.63
-0.35
8.98
16.31
21.10
23.38
23.60
22.35
20.10
17.03
13.11
8.38
3.04
-2.38
-7.26
-10.93
-12.99
-13.37
-12.38
-10.63
-8.89
-7.96
-8.44
-10.53
-13.95
-18.00
-21.79
-24.61
-26.24
-27.13
-28.29
-30.95
-35.84
-42.63
-49.74
-54.73
-55.28
-50.28
-40.51
-28.58
-18.02
-12.04
-12.38
-18.73
-29.01
-40.14
-48.91
-52.83
-50.72
-43.05
-32.10
-21.86
-17.22
-22.36
-38.89
-64.41
-92.68
-115.56
-126.15
-121.75
-105.06
-82.79
-62.45
-48.61
-40.98
-35.00
-24.46
-4.87
24.65
61.38
100.68
138.00
170.01
194.37
209.09
212.15
202.09
179.28
146.87
110.57
77.04
51.51
35.96
28.66
25.46
21.89
15.14
4.90
-7.05
-17.90
-25.14
-27.42
-24.81
-18.56
-10.48
-2.36
4.59
9.90
13.93
17.49
21.66
27.32
34.96
44.50
55.39
66.81
77.88
87.90
96.35
102.97
107.60
110.24
110.95
109.83
107.10
103.07
98.06
92.40
86.34
80.06
73.63
66.97
59.89
52.12
43.45
33.85
23.63
13.36
3.68
-4.93
-12.33
-18.75
-24.63
-30.49
-36.79
-43.75
-51.27
-58.90
-65.89
-71.32
-74.39
-74.60
-71.98
-66.97
-60.32
-52.89
-45.45
-38.58
-32.65
-27.72
-23.65
-20.16
-17.02
-14.17
-11.74
-10.05
-9.30
-9.48
-10.28
-11.25
-12.01
-12.53
-13.05
-14.05
-15.94
-18.93
-22.96
-27.81
-33.15
-38.62
-43.78
-48.09
-50.99
-51.91
-50.58
-47.09
-41.95
-35.88
-29.65
-23.82
-18.65
-14.14
-10.14
-6.43
-2.92
0.35
3.21
5.40
6.72
7.14
6.84
6.13
5.38
4.75
4.19
3.49
2.45
1.03
-0.60
-2.20
-3.68
-5.19
-7.01
-9.32
-11.98
-14.45
-16.03
-16.14
-14.64
-11.83
-8.29
-4.56
-0.96
2.39
5.50
8.22
10.30
11.44
11.54
10.77
9.57
8.52
8.01
8.12
8.59
8.96
8.81
7.89
6.25
4.17
2.06
0.39
-0.48
-0.28
1.02
3.27
6.09
8.99
11.51
13.26
14.09
14.08
13.48
12.67
12.01
11.77
12.03
12.65
13.31
13.61
13.25
12.08
10.16
7.76
5.18
2.76
0.78
-0.50
-0.89
-0.30
1.25
3.58
6.44
9.54
12.70
15.83
18.85
21.69
24.15
26.01
27.10
27.30
26.70
25.46
23.71
21.46
18.65
15.18
11.15
6.87
2.89
-0.28
-2.33
-3.31
-3.58
-3.57
-3.67
-4.01
-4.51
-5.07
-5.63
-6.34
-7.41
-9.02
-11.11
-13.37
-15.30
-16.42
-16.54
-15.82
-14.74
-13.86
-13.53
-13.80
-14.40
-14.97
-15.25
-15.17
-14.88
-14.59
-14.42
-14.51
-14.89
-15.64
-16.85
-18.53
-20.51
-22.36
-23.55
-23.52
-22.02
-19.12
-15.27
-11.06
-7.04
-3.60
-0.95
0.82
1.72
1.91
1.69
1.48
1.64
2.38
3.63
5.09
6.34
7.04
7.00
6.20
4.77
2.87
0.76
-1.30
-3.08
-4.45
-5.50
-6.50
-7.83
-9.77
-12.31
-15.13
-17.63
-19.16
-19.32
-18.11
-15.94
-13.40
-11.03
-9.09
-7.54
-6.23
-5.04
-4.06
-3.47
-3.38
-3.70
-4.09
-4.12
-3.44
-1.99
0.05
2.39
4.77
7.07
9.25
11.26
12.95
14.08
14.47
14.08
13.12
11.92
10.85
10.09
9.61
9.28
8.99
8.79
8.86
9.44
10.64
12.31
14.08
15.49
16.19
16.06
15.23
13.97
12.50
10.92
9.20
7.25
5.05
2.72
0.44
-1.52
-2.96
-3.75
-3.86
-3.41
-2.67
-2.03
-1.84
-2.23
-3.05
-3.89
-4.34
-4.20
-3.67
-3.23
-3.41
-4.46
-6.23
-8.23
-9.86
-10.66
-10.46
-9.38
-7.69
-5.65
-3.50
-1.38
0.61
2.32
3.55
4.08
3.73
2.54
0.77
-1.13
-2.62
-3.38
-3.36
-2.78
-2.05
-1.46
-1.12
-0.93
-0.76
-0.58
-0.55
-0.93
-1.91
-3.45
-5.35
-7.30
-9.11
-10.76
-12.36
-14.06
-15.88
-17.70
-19.25
-20.26
-20.50
-19.87
-18.37
-16.14
-13.39
-10.41
-7.48
-4.81
-2.48
-0.47
1.25
2.65
3.65
4.16
4.20
3.94
3.65
3.61
3.98
4.66
5.43
5.99
6.15
5.87
5.23
4.32
3.19
1.88
0.45
-0.99
-2.25
-3.21
-3.89
-4.45
-5.15
-6.18
-7.56
-9.08
-10.42
-11.22
-11.24
-10.37
-8.64
-6.24
-3.43
-0.53
2.12
4.26
5.73
6.53
6.75
6.55
6.08
5.44
4.72
4.06
3.62
3.58
3.97
4.69
5.44
5.91
5.88
5.35
4.49
3.55
2.68
1.89
1.06
0.06
-1.16
-2.55
-3.99
-5.44
-6.88
-8.35
-9.85
-11.26
-12.36
-12.95
-12.84
-12.02
-10.64
-8.97
-7.32
-5.86
-4.63
-3.44
-2.09
-0.41
1.52
3.43
4.99
5.96
6.38
6.54
6.80
7.38
8.16
8.80
8.90
8.29
7.13
5.80
4.73
4.12
3.92
3.88
3.79
3.55
3.16
2.66
1.92
0.79
-0.86
-2.88
-4.89
-6.27
-6.48
-5.23
-2.66
0.72
4.20
7.12
9.15
10.21
10.53
10.32
9.73
8.80
7.57
6.13
4.72
3.56
2.74
2.15
1.47
0.37
-1.28
-3.32
-5.39
-7.05
-8.03
-8.30
-7.98
-7.29
-6.42
-5.53
-4.79
-4.41
-4.58
-5.44
-6.90
-8.66
-10.22
-11.12
-11.10
-10.16
-8.52
-6.48
-4.26
-1.98
0.29
2.48
4.44
6.01
7.03
7.45
7.33
6.84
6.15
5.39
4.63
3.86
3.09
2.30
1.53
0.89
0.42
0.12
-0.11
-0.48
-1.11
-2.05
-3.13
-4.11
-4.72
-4.85
-4.57
-4.16
-3.90
-3.96
-4.38
-5.00
-5.62
-6.03
-6.14
-5.90
-5.31
-4.41
-3.28
-2.00
-0.67
0.59
1.68
2.54
3.15
3.49
3.56
3.41
3.08
2.68
2.30
2.04
1.93
1.95
2.02
2.04
1.91
1.58
1.05
0.33
-0.47
-1.28
-2.04
-2.71
-3.26
-3.65
-3.84
-3.83
-3.72
-3.68
-3.92
-4.51
-5.29
-5.89
-5.81
-4.65
-2.25
1.19
5.17
9.03
12.19
14.29
15.34
15.66
15.76
16.04
16.71
17.61
18.41
18.82
18.86
18.89
19.50
21.17
23.97
27.50
31.07
34.12
36.49
38.54
40.94
44.44
49.51
56.38
65.12
75.71
87.92
100.95
113.27
122.57
126.56
123.82
114.67
101.22
86.66
74.02
65.18
60.37
58.52
58.05
57.54
56.11
53.24
48.39
40.80
29.57
14.11
-5.27
-27.07
-48.80
-67.65
-81.39
-89.24
-92.07
-92.07
-91.84
-93.39
-97.53
-103.88
-111.41
-119.00
-125.85
-131.56
-135.91
-138.67
-139.65
-138.82
-136.53
-133.38
-130.19
-127.53
-125.61
-124.20
-122.82
-120.97
-118.36
-114.92
-110.87
-106.47
-102.01
-97.64
-93.27
-88.65
-83.50
-77.71
-71.38
-64.80
-58.16
-51.16
-42.88
-31.78
-16.27
4.74
31.36
62.58
96.65
131.42
164.73
194.53
218.74
235.28
242.15
238.14
223.15
198.64
167.38
132.86
98.53
67.15
40.56
19.76
5.03
-4.00
-8.26
-9.17
-8.40
-7.50
-7.59
-9.04
-11.48
-13.72
-14.01
-10.46
-1.66
12.63
31.16
51.38
70.35
85.76
96.74
103.89
108.49
111.42
112.45
110.32
103.58
91.71
75.74
58.01
41.25
27.47
17.22
9.77
3.78
-1.74
-6.90
-11.01
-13.29
-13.46
-12.05
-10.00
-8.00
-6.14
-3.90
-0.87
2.65
5.44
5.72
2.07
-5.99
-17.69
-31.42
-45.38
-58.07
-68.58
-76.58
-82.15
-85.68
-87.82
-89.37
-91.17
-93.93
-98.18
-104.38
-112.87
-123.64
-136.04
-148.38
-158.10
-162.43
-159.48
-149.00
-132.62
-113.14
-93.65
-76.57
-63.25
-53.92
-47.74
-42.99
-37.22
-27.92
-13.42
6.20
28.78
50.75
68.45
79.60
83.89
82.69
77.99
71.50
64.19
56.67
49.77
44.76
43.25
46.67
55.84
70.68
90.40
113.67
138.78
163.76
186.49
204.88
217.30
222.87
221.73
214.88
203.98
190.71
176.22
160.56
142.64
120.55
92.45
57.58
16.81
-27.13
-70.42
-109.07
-140.07
-162.11
-175.96
-184.15
-190.19
-197.41
-207.68
-220.59
-233.36
-241.98
-243.02
-235.56
-222.08
-207.72
-198.40
-198.40
-208.77
-226.70
-246.45
-260.62
-262.02
-245.29
-208.41
-153.73
-88.11
-21.82
34.04
71.09
86.88
86.22
79.71
79.76
95.47
129.06
174.86
221.76
257.57
273.57
267.30
242.45
206.35
166.38
127.29
90.26
54.09
17.36
-19.86
-55.64
-87.02
-111.62
-128.77
-139.49
-145.44
-147.67
-145.78
-138.51
-124.84
-105.39
-82.72
-60.71
-43.17
-32.34
-28.17
-28.43
-29.84
-29.47
-25.83
-19.34
-11.86
-5.60
-2.04
-1.35
-2.45
-3.73
-3.81
-2.09
1.16
5.12
8.88
11.83
13.85
15.31
16.86
19.20
22.74
27.24
31.76
34.89
35.33
32.38
26.38
18.51
10.34
3.23
-2.06
-5.46
-7.37
-8.41
-9.12
-9.86
-10.77
-11.79
-12.69
-13.25
-13.23
-12.64
-11.61
-10.43
-9.35
-8.51
-7.92
-7.54
-7.26
-6.96
-6.47
-5.58
-4.06
-1.67
1.76
6.18
11.37
16.86
22.07
26.39
29.42
31.03
31.43
31.03
30.25
29.35
28.25
26.59
23.86
19.60
13.66
6.27
-1.95
-10.22
-17.82
-24.32
-29.74
-34.43
-38.98
-43.86
-49.36
-55.32
-61.10
-65.54
-67.01
-63.70
-54.08
-37.54
-14.82
11.87
39.34
64.15
83.55
96.09
101.76
101.66
97.37
90.43
81.96
72.78
63.47
54.57
46.55
39.72
34.14
29.50
25.30
20.99
16.15
10.68
4.76
-1.22
-6.80
-11.59
-15.37
-18.13
-20.10
-21.67
-23.41
-25.78
-29.10
-33.29
-37.84
-41.85
-44.23
-44.00
-40.61
-34.17
-25.42
-15.53
-5.73
3.06
10.45
16.55
21.72
26.27
30.23
33.35
35.28
35.77
34.85
32.90
30.47
28.07
25.99
24.24
22.72
21.31
20.04
19.03
18.37
17.90
17.23
15.85
13.33
9.63
5.12
0.48
-3.57
-6.65
-8.77
-10.42
-12.26
-14.94
-18.75
-23.58
-28.74
-33.20
-35.75
-35.40
-31.78
-25.18
-16.62
-7.34
1.55
9.39
16.03
21.55
26.05
29.46
31.59
32.34
31.92
30.79
29.60
28.84
28.65
28.83
28.96
28.68
27.83
26.57
25.19
23.92
22.78
21.51
19.73
17.16
13.83
10.08
6.43
3.25
0.63
-1.64
-3.93
-6.56
-9.63
-13.13
-16.97
-21.09
-25.32
-29.24
-32.11
-32.99
-31.09
-26.16
-18.62
-9.54
-0.14
8.54
15.93
21.86
26.37
29.57
31.51
32.25
32.03
31.20
30.26
29.60
29.35
29.41
29.45
29.12
28.18
26.67
24.82
22.98
21.45
20.30
19.34
18.19
16.47
13.99
10.85
7.40
4.08
1.28
-0.86
-2.45
-3.85
-5.56
-7.96
-11.20
-15.02
-18.77
-21.52
-22.34
-20.64
-16.35
-10.02
-2.56
5.01
11.86
17.50
21.71
24.45
25.76
25.72
24.59
22.79
20.85
19.26
18.35
18.18
18.55
19.12
19.57
19.62
19.14
18.13
16.72
15.09
13.38
11.66
9.89
7.98
5.86
3.56
1.21
-1.01
-3.00
-4.78
-6.50
-8.45
-10.89
-13.99
-17.66
-21.53
-24.90
-26.92
-26.79
-24.13
-19.10
-12.45
-5.22
1.56
7.21
11.47
14.46
16.41
17.49
17.75
17.21
16.00
14.40
12.82
11.62
10.99
10.88
11.04
11.20
11.14
10.75
10.07
9.10
7.83
6.16
4.02
1.41
-1.48
-4.34
-6.78
-8.53
-9.56
-10.08
-10.49
-11.23
-12.66
-14.89
-17.85
-21.17
-24.26
-26.37
-26.76
-24.92
-20.74
-14.62
-7.39
-0.05
6.48
11.55
14.92
16.63
17.00
16.42
15.30
14.02
12.86
12.03
11.65
11.70
12.01
12.27
12.12
11.31
9.84
7.93
5.98
4.34
3.11
2.11
1.03
-0.44
-2.33
-4.42
-6.31
-7.69
-8.49
-8.96
-9.56
-10.78
-12.96
-16.13
-19.91
-23.65
-26.53
-27.80
-26.97
-23.94
-18.98
-12.67
-5.74
1.06
7.10
11.92
15.25
17.02
17.36
16.56
15.02
13.22
11.61
10.55
10.15
10.35
10.87
11.35
11.51
11.19
10.38
9.15
7.58
5.73
3.68
1.55
-0.49
-2.30
-3.83
-5.14
-6.39
-7.66
-8.97
-10.26
-11.55
-13.04
-15.01
-17.66
-20.89
-24.19
-26.74
-27.69
-26.48
-23.03
-17.73
-11.26
-4.43
2.01
7.44
11.47
13.92
14.89
14.70
13.74
12.44
11.10
9.95
9.12
8.69
8.66
8.92
9.29
9.52
9.40
8.81
7.76
6.41
4.90
3.39
1.93
0.53
-0.82
-2.13
-3.34
-4.38
-5.21
-5.90
-6.63
-7.71
-9.38
-11.68
-14.26
-16.40
-17.23
-16.00
-12.45
-6.90
-0.21
6.53
12.34
16.54
18.87
19.40
18.39
16.19
13.24
9.96
6.82
4.23
2.44
1.52
1.31
1.46
1.60
1.42
0.77
-0.36
-1.89
-3.74
-5.83
-8.10
-10.38
-12.48
-14.19
-15.41
-16.26
-16.99
-17.84
-18.93
-20.25
-21.65
-22.97
-24.03
-24.59
-24.27
-22.63
-19.37
-14.50
-8.48
-2.16
3.57
8.01
10.88
12.24
12.35
11.51
9.93
7.84
5.52
3.36
1.76
1.04
1.25
2.17
3.37
4.34
4.75
4.49
3.63
2.35
0.83
-0.80
-2.41
-3.86
-5.03
-5.87
-6.52
-7.32
-8.65
-10.80
-13.75
-17.15
-20.33
-22.49
-22.98
-21.42
-17.90
-12.88
-7.13
-1.48
3.39
7.11
9.61
11.08
11.71
11.61
10.85
9.49
7.75
6.01
4.73
4.20
4.37
4.87
5.14
4.72
3.48
1.63
-0.37
-2.14
-3.50
-4.55
-5.53
-6.66
-8.04
-9.64
-11.42
-13.38
-15.57
-17.88
-19.99
-21.30
-21.14
-19.05
-14.93
-9.24
-2.82
3.38
8.56
12.27
14.43
15.25
15.02
14.01
12.40
10.37
8.09
5.88
4.02
2.73
1.97
1.49
0.89
-0.24
-2.07
-4.61
-7.67
-11.10
-14.78
-18.63
-22.53
-26.25
-29.56
-32.44
-35.14
-38.19
-42.05
-46.85
-52.14
-57.01
-60.36
-61.37
-59.76
-55.82
-50.26
-43.99
-37.92
-32.84
-29.38
-27.84
-28.07
-29.32
-30.37
-29.83
-26.62
-20.45
-11.91
-2.34
6.66
13.73
18.09
19.64
18.70
15.83
11.63
6.67
1.49
-3.45
-7.91
-11.93
-15.92
-20.41
-25.71
-31.68
-37.59
-42.24
-44.24
-42.26
-35.30
-22.90
-5.37
15.86
38.35
59.03
75.06
84.77
88.25
87.28
84.54
82.54
82.79
85.43
89.53
93.82
97.29
99.60
101.09
102.54
104.75
108.16
112.63
117.43
121.55
124.00
124.30
122.54
119.45
116.07
113.45
112.44
113.47
116.45
120.77
125.42
129.28
131.31
130.92
128.09
123.31
117.48
111.58
106.42
102.31
99.03
95.81
91.70
85.88
78.09
68.78
58.90
49.58
41.57
34.98
29.10
22.56
13.83
1.71
-14.17
-33.02
-53.08
-72.09
-87.96
-99.48
-106.51
-109.96
-111.33
-112.20
-113.83
-116.86
-121.24
-126.24
-130.63
-133.03
-132.13
-127.06
-117.45
-103.40
-85.43
-64.56
-42.43
-21.15
-3.02
10.17
17.63
19.92
18.50
15.08
10.92
6.53
1.87
-3.15
-8.41
-13.46
-17.93
-21.74
-25.30
-29.31
-34.42
-40.97
-48.89
-57.84
-67.35
-77.07
-86.71
-96.07
-104.94
-113.06
-120.17
-125.95
-129.97
-131.72
-130.70
-126.61
-119.59
-110.29
-99.82
-89.40
-80.03
-72.22
-66.00
-61.10
-57.29
-54.52
-52.94
-52.68
-53.61
-55.19
-56.56
-56.82
-55.39
-52.19
-47.62
-42.40
-37.19
-32.40
-28.12
-24.23
-20.58
-17.17
-14.14
-11.72
-10.14
-9.60
-10.16
-11.76
-14.06
-16.44
-18.02
-17.93
-15.56
-10.73
-3.75
4.69
13.74
22.55
30.40
36.74
41.22
43.62
43.98
42.53
39.68
36.00
32.03
28.28
25.17
22.88
21.39
20.38
19.38
17.98
16.03
13.74
11.60
10.13
9.57
9.67
9.77
9.06
6.89
3.14
-1.68
-6.55
-10.24
-11.61
-10.01
-5.41
1.55
9.79
18.17
25.74
31.98
36.71
39.95
41.66
41.79
40.33
37.52
33.88
30.14
26.96
24.73
23.46
22.84
22.40
21.78
20.73
19.23
17.29
14.98
12.30
9.27
5.88
2.23
-1.55
-5.30
-8.98
-12.65
-16.45
-20.36
-24.10
-27.03
-28.34
-27.35
-23.87
-18.25
-11.38
-4.26
2.28
7.80
12.19
15.46
17.58
18.38
17.75
15.77
12.96
10.06
7.86
6.87
7.04
7.95
8.89
9.27
8.84
7.66
6.03
4.22
2.40
0.55
-1.40
-3.48
-5.66
-7.91
-10.31
-13.06
-16.48
-20.72
-25.57
-30.32
-33.85
-34.95
-32.83
-27.44
-19.54
-10.49
-1.69
5.83
11.58
15.61
18.20
19.62
20.04
19.60
18.49
17.03
15.63
14.65
14.23
14.26
14.42
14.33
13.68
12.38
10.53
8.35
6.08
3.87
1.73
-0.41
-2.67
-5.15
-7.95
-11.23
-15.11
-19.66
-24.64
-29.50
-33.35
-35.17
-34.22
-30.26
-23.70
-15.48
-6.75
1.50
8.60
14.27
18.54
21.53
23.31
23.97
23.61
22.47
20.95
19.51
18.49
17.98
17.84
17.80
17.58
17.07
16.22
15.00
13.34
11.17
8.50
5.48
2.40
-0.55
-3.36
-6.32
-9.86
-14.34
-19.75
-25.59
-30.94
-34.74
-36.09
-34.48
-30.01
-23.25
-15.10
-6.56
1.55
8.66
14.50
18.97
22.11
24.01
24.87
24.92
24.44
23.67
22.81
21.99
21.31
20.85
20.62
20.51
20.30
19.66
18.30
16.09
13.16
9.87
6.66
3.80
1.34
-0.98
-3.52
-6.64
-10.53
-15.18
-20.37
-25.64
-30.28
-33.41
-34.18
-31.99
-26.85
-19.39
-10.66
-1.86
6.07
12.60
17.57
21.03
23.12
23.97
23.78
22.93
21.90
21.18
21.06
21.57
22.48
23.41
24.01
24.05
23.47
22.31
20.64
18.50
15.90
12.89
9.58
6.16
2.82
-0.32
-3.30
-6.27
-9.49
-13.16
-17.33
-21.80
-26.07
-29.37
-30.84
-29.79
-25.93
-19.57
-11.50
-2.82
5.40
12.38
17.75
21.51
23.82
24.92
25.03
24.41
23.37
22.25
21.35
20.86
20.79
20.98
21.18
21.12
20.54
19.28
17.27
14.60
11.49
8.21
5.05
2.20
-0.30
-2.58
-4.76
-6.91
-9.13
-11.53
-14.34
-17.78
-21.81
-25.92
-29.11
-30.17
-28.19
-23.03
-15.42
-6.75
1.52
8.35
13.39
16.81
18.99
20.23
20.66
20.31
19.29
17.90
16.48
15.35
14.67
14.42
14.43
14.45
14.26
13.69
12.63
11.06
9.01
6.64
4.09
1.54
-0.86
-3.06
-5.08
-7.06
-9.19
-11.71
-14.79
-18.45
-22.43
-26.12
-28.74
-29.42
-27.55
-22.99
-16.19
-8.13
0.03
7.24
12.84
16.66
18.89
19.91
20.09
19.67
18.82
17.69
16.44
15.31
14.47
14.04
13.99
14.20
14.45
14.52
14.23
13.42
12.09
10.27
8.13
5.82
3.53
1.35
-0.67
-2.51
-4.24
-5.96
-7.88
-10.27
-13.33
-17.02
-20.88
-24.05
-25.50
-24.38
-20.44
-14.25
-6.98
-0.00
5.59
9.34
11.43
12.39
12.79
12.88
12.67
12.07
11.07
9.86
8.77
8.06
7.79
7.78
7.72
7.28
6.30
4.80
2.98
1.12
-0.51
-1.75
-2.62
-3.29
-4.01
-5.02
-6.45
-8.35
-10.71
-13.57
-16.97
-20.80
-24.70
-27.96
-29.68
-29.06
-25.68
-19.76
-12.08
-3.76
4.12
10.82
16.02
19.74
22.09
23.17
23.05
21.80
19.69
17.20
14.93
13.40
12.79
12.91
13.30
13.47
13.07
12.04
10.51
8.70
6.78
4.84
2.90
0.94
-1.07
-3.21
-5.59
-8.32
-11.53
-15.25
-19.29
-23.22
-26.36
-28.00
-27.57
-24.88
-20.22
-14.25
-7.81
-1.64
3.76
8.14
11.47
13.81
15.28
16.04
16.27
16.18
15.93
15.61
15.19
14.60
13.79
12.77
11.59
10.38
9.22
8.16
7.18
6.22
5.15
3.84
2.17
0.05
-2.54
-5.59
-8.97
-12.52
-16.00
-19.07
-21.30
-22.21
-21.38
-18.66
-14.23
-8.67
-2.77
2.75
7.45
11.20
14.10
16.31
17.78
18.43
18.15
17.05
15.48
13.95
12.95
12.75
13.30
14.23
15.04
15.25
14.59
13.12
11.16
9.17
7.51
6.31
5.45
4.64
3.57
2.03
-0.02
-2.53
-5.32
-8.06
-10.28
-11.40
-10.88
-8.38
-3.95
1.95
8.52
14.85
20.18
24.05
26.39
27.36
27.27
26.37
24.90
23.01
20.89
18.73
16.75
15.15
13.99
13.23
12.71
12.30
11.90
11.48
11.01
10.43
9.58
8.30
6.48
4.10
1.27
-1.88
-5.26
-8.90
-12.91
-17.35
-22.10
-26.80
-30.92
-33.78
-34.79
-33.58
-30.07
-24.60
-17.72
-10.20
-2.74
4.08
9.94
14.66
18.24
20.71
22.17
22.79
22.75
22.17
21.13
19.58
17.45
14.72
11.49
7.97
4.39
0.89
-2.48
-5.70
-8.75
-11.63
-14.39
-17.15
-20.09
-23.38
-27.09
-31.23
-35.68
-40.36
-45.15
-49.92
-54.39
-58.27
-61.20
-62.95
-63.53
-63.09
-61.88
-60.19
-58.28
-56.48
-55.29
-55.30
-56.99
-60.51
-65.52
-71.18
-76.41
-80.14
-81.53
-80.22
-76.62
-71.96
-68.25
-67.53
-70.56
-75.75
-78.97
-74.84
-58.84
-29.21
12.22
60.73
110.27
155.03
190.34
212.80
220.23
211.86
189.00
155.30
116.51
79.00
48.09
26.57
14.38
9.34
8.49
9.24
10.00
10.14
9.59
8.41
6.42
3.37
-0.65
-5.09
-8.98
-11.47
-12.30
-12.10
-11.98
-12.99
-15.43
-18.63
-21.32
-22.27
-20.88
-17.50
-13.25
-9.62
-7.88
-8.79
-12.50
-18.66
-26.63
-35.54
-44.49
-52.53
-58.82
-62.79
-64.11
-62.79
-58.85
-52.32
-43.16
-31.39
-17.39
-1.97
13.63
28.08
40.31
49.77
56.37
60.32
61.88
61.32
58.95
55.29
50.95
46.52
42.37
38.49
34.64
30.59
26.25
21.79
17.50
13.59
10.09
6.78
3.39
-0.37
-4.61
-9.34
-14.45
-19.77
-25.05
-29.96
-34.08
-36.97
-38.37
-38.26
-37.02
-35.22
-33.53
-32.39
-32.05
-32.55
-33.89
-36.06
-38.94
-42.23
-45.28
-47.35
-47.78
-46.33
-43.19
-38.79
-33.41
-26.98
-19.17
-9.69
1.29
13.02
24.41
34.42
42.27
47.56
50.10
49.78
46.56
40.77
33.21
25.07
17.50
11.20
6.08
1.47
-3.44
-9.04
-15.09
-21.09
-26.72
-32.47
-39.37
-48.31
-59.08
-69.80
-77.13
-77.39
-67.94
-48.17
-19.81
13.72
48.19
79.54
104.53
121.13
128.64
127.77
120.38
109.02
96.29
84.11
73.41
64.12
55.53
46.68
36.78
25.38
12.61
-0.86
-13.78
-24.68
-32.24
-35.71
-35.18
-31.53
-26.18
-20.58
-15.91
-12.77
-11.19
-10.75
-10.95
-11.36
-11.87
-12.58
-13.76
-15.59
-18.07
-21.03
-24.15
-27.11
-29.70
-31.77
-33.25
-34.07
-34.14
-33.45
-32.11
-30.46
-28.93
-28.05
-28.17
-29.47
-31.87
-35.09
-38.65
-41.96
-44.32
-45.05
-43.71
-40.13
-34.66
-28.04
-21.25
-15.17
-10.40
-7.13
-5.16
-4.14
-3.74
-3.75
-4.04
-4.44
-4.56
-3.83
-1.70
2.10
7.35
13.26
18.83
23.11
25.55
26.08
25.01
22.74
19.57
15.58
10.72
4.92
-1.75
-9.01
-16.29
-22.82
-27.73
-30.18
-29.64
-26.01
-19.68
-11.45
-2.33
6.70
14.93
21.94
27.63
32.10
35.49
37.91
39.27
39.44
38.31
35.94
32.65
28.94
25.35
22.27
19.89
18.13
16.85
15.89
15.10
14.31
13.26
11.61
9.07
5.50
1.08
-3.85
-8.82
-13.42
-17.36
-20.36
-22.14
-22.38
-20.87
-17.61
-12.93
-7.40
-1.63
3.88
8.80
12.94
16.21
18.48
19.62
19.56
18.36
16.19
13.40
10.35
7.34
4.62
2.35
0.69
-0.21
-0.19
0.84
2.78
5.36
8.09
10.36
11.65
11.60
10.21
7.74
4.66
1.54
-1.01
-2.46
-2.40
-0.68
2.56
6.80
11.28
15.24
18.04
19.45
19.55
18.69
17.21
15.41
13.45
11.50
9.75
8.41
7.63
7.35
7.31
7.16
6.58
5.43
3.82
2.01
0.28
-1.16
-2.22
-3.00
-3.69
-4.62
-6.10
-8.39
-11.52
-15.26
-19.04
-22.12
-23.76
-23.51
-21.35
-17.71
-13.26
-8.75
-4.67
-1.24
1.61
4.07
6.27
8.23
9.87
11.11
12.00
12.71
13.42
14.20
14.99
15.62
15.89
15.78
15.36
14.83
14.29
13.76
13.08
12.01
10.40
8.21
5.54
2.58
-0.58
-3.86
-7.24
-10.57
-13.56
-15.77
-16.70
-16.04
-13.75
-10.18
-5.92
-1.63
2.16
5.15
7.30
8.68
9.39
9.50
9.06
8.20
7.17
6.30
5.90
6.12
6.89
7.95
8.99
9.73
10.04
9.87
9.26
8.30
7.08
5.73
4.36
3.09
1.93
0.85
-0.24
-1.44
-2.85
-4.54
-6.46
-8.43
-10.10
-10.97
-10.57
-8.70
-5.54
-1.65
2.28
5.60
7.99
9.45
10.14
10.29
9.99
9.33
8.41
7.39
6.45
5.69
5.15
4.77
4.52
4.41
4.50
4.80
5.18
5.45
5.41
5.03
4.43
3.77
3.18
2.60
1.87
0.76
-0.81
-2.78
-4.94
-7.03
-8.82
-10.08
-10.65
-10.33
-8.98
-6.57
-3.31
0.42
4.08
7.11
9.18
10.17
10.24
9.63
8.60
7.34
5.99
4.72
3.75
3.26
3.32
3.77
4.31
4.57
4.32
3.58
2.53
1.48
0.62
-0.01
-0.50
-0.99
-1.60
-2.39
-3.44
-4.82
-6.56
-8.55
-10.45
-11.81
-12.14
-11.14
-8.88
-5.77
-2.42
0.56
2.79
4.15
4.77
4.87
4.62
4.10
3.28
2.16
0.89
-0.28
-1.00
-1.03
-0.40
0.58
1.46
1.84
1.58
0.83
-0.15
-1.11
-1.92
-2.60
-3.18
-3.63
-3.96
-4.29
-4.87
-6.02
-7.89
-10.22
-12.38
-13.60
-13.23
-11.11
-7.60
-3.47
0.43
3.50
5.51
6.58
6.96
6.86
6.35
5.39
4.03
2.45
1.02
0.12
-0.06
0.43
1.26
2.07
2.58
2.70
2.48
1.99
1.28
0.33
-0.83
-2.14
-3.48
-4.75
-5.96
-7.21
-8.60
-10.12
-11.56
-12.52
-12.61
-11.61
-9.58
-6.84
-3.82
-0.94
1.58
3.63
5.21
6.26
6.67
6.38
5.41
3.99
2.44
1.16
0.42
0.32
0.78
1.63
2.65
3.60
4.26
4.43
4.06
3.22
2.13
1.10
0.37
-0.04
-0.32
-0.79
-1.84
-3.65
-6.16
-9.09
-11.88
-13.99
-14.91
-14.35
-12.34
-9.23
-5.53
-1.85
1.37
3.84
5.48
6.34
6.57
6.36
5.95
5.58
5.46
5.68
6.19
6.80
7.29
7.48
7.30
6.75
5.90
4.80
3.52
2.15
0.79
-0.44
-1.50
-2.44
-3.37
-4.42
-5.70
-7.25
-9.09
-11.21
-13.50
-15.68
-17.32
-17.90
-17.00
-14.51
-10.73
-6.25
-1.82
1.93
4.63
6.23
6.92
7.02
6.87
6.72
6.72
6.85
6.99
7.03
6.93
6.73
6.59
6.62
6.84
7.13
7.26
7.05
6.45
5.49
4.33
3.09
1.81
0.50
-0.89
-2.40
-4.05
-5.86
-7.83
-9.97
-12.15
-14.13
-15.48
-15.77
-14.71
-12.31
-8.95
-5.27
-1.90
0.76
2.61
3.85
4.78
5.63
6.42
7.05
7.34
7.28
6.98
6.67
6.54
6.67
6.91
7.02
6.79
6.19
5.36
4.58
4.07
3.82
3.62
3.18
2.31
1.08
-0.29
-1.51
-2.46
-3.23
-4.11
-5.44
-7.41
-10.00
-13.01
-16.07
-18.76
-20.67
-21.45
-20.90
-19.05
-16.20
-12.86
-9.63
-7.00
-5.22
-4.36
-4.33
-5.01
-6.35
-8.27
-10.69
-13.42
-16.23
-18.87
-21.15
-22.95
-24.32
-25.42
-26.49
-27.85
-29.77
-32.43
-35.84
-39.83
-44.16
-48.61
-53.05
-57.46
-61.84
-66.08
-69.98
-73.22
-75.48
-76.39
-75.63
-72.78
-67.41
-59.12
-47.72
-33.31
-16.44
2.00
20.88
38.94
55.03
68.26
78.12
84.57
87.95
88.85
87.93
85.76
82.70
79.02
74.95
70.69
66.44
62.33
58.40
54.61
50.90
47.21
43.52
39.79
36.02
32.21
28.45
24.83
21.49
18.46
15.69
13.04
10.32
7.45
4.49
1.62
-0.91
-2.79
-3.78
-3.71
-2.59
-0.63
1.82
4.31
6.46
8.00
8.86
9.06
8.70
7.89
6.81
5.69
4.77
4.25
4.14
4.26
4.36
4.22
3.74
2.99
2.13
1.26
0.46
-0.28
-0.99
-1.67
-2.29
-2.85
-3.39
-4.01
-4.93
-6.28
-8.10
-10.23
-12.26
-13.64
-13.85
-12.60
-9.99
-6.52
-2.88
0.23
2.46
3.79
4.48
4.88
5.24
5.62
5.96
6.16
6.15
5.96
5.63
5.24
4.84
4.45
4.10
3.80
3.57
3.37
3.16
2.86
2.39
1.73
0.89
-0.03
-0.98
-1.90
-2.81
-3.81
-4.99
-6.47
-8.23
-10.13
-11.93
-13.28
-13.89
-13.53
-12.19
-10.02
-7.34
-4.52
-1.84
0.54
2.63
4.46
6.08
7.41
8.32
8.74
8.72
8.44
8.12
7.98
8.05
8.28
8.54
8.71
8.70
8.51
8.11
7.53
6.78
5.88
4.85
3.70
2.46
1.12
-0.26
-1.59
-2.76
-3.70
-4.45
-5.14
-5.96
-7.07
-8.49
-10.09
-11.59
-12.71
-13.16
-12.79
-11.54
-9.46
-6.73
-3.63
-0.51
2.28
4.43
5.79
6.35
6.20
5.55
4.65
3.79
3.24
3.20
3.70
4.55
5.41
5.91
5.79
5.03
3.88
2.74
1.98
1.78
2.07
2.57
2.90
2.80
2.21
1.29
0.32
-0.46
-0.99
-1.40
-1.92
-2.74
-3.92
-5.35
-6.89
-8.43
-9.89
-11.21
-12.21
-12.61
-12.06
-10.40
-7.74
-4.52
-1.37
1.11
2.65
3.29
3.41
3.45
3.71
4.23
4.83
5.20
5.20
4.86
4.44
4.22
4.37
4.81
5.27
5.49
5.36
5.00
4.66
4.57
4.73
4.89
4.68
3.81
2.24
0.26
-1.70
-3.21
-4.09
-4.42
-4.47
-4.52
-4.78
-5.30
-6.06
-7.03
-8.22
-9.61
-11.04
-12.14
-12.47
-11.68
-9.75
-7.00
-4.03
-1.42
0.52
1.80
2.69
3.44
4.17
4.82
5.19
5.17
4.81
4.32
3.95
3.90
4.20
4.73
5.24
5.46
5.26
4.64
3.75
2.82
2.01
1.41
1.03
0.81
0.75
0.77
0.76
0.55
-0.01
-0.99
-2.29
-3.69
-4.87
-5.66
-6.12
-6.44
-6.85
-7.40
-7.96
-8.27
-8.16
-7.58
-6.63
-5.42
-4.04
-2.51
-0.91
0.58
1.72
2.25
2.14
1.55
0.81
0.20
-0.19
-0.46
-0.79
-1.29
-1.91
-2.51
-2.95
-3.21
-3.38
-3.58
-3.87
-4.20
-4.47
-4.56
-4.45
-4.23
-4.09
-4.19
-4.66
-5.50
-6.60
-7.84
-9.01
-10.02
-10.88
-11.81
-13.13
-15.13
-17.86
-20.94
-23.65
-25.14
-24.86
-22.79
-19.55
-16.17
-13.74
-13.03
-14.32
-17.35
-21.46
-25.74
-29.05
-30.28
-28.50
-23.36
-15.26
-5.42
4.47
12.88
19.00
23.09
26.28
29.88
34.80
41.06
47.96
54.57
60.31
65.26
70.10
75.58
82.08
89.33
96.49
102.46
106.35
107.85
107.37
105.93
104.77
104.73
105.86
107.20
107.10
103.80
96.16
84.05
68.30
50.39
31.87
14.05
-2.26
-16.62
-28.87
-39.06
-47.39
-54.21
-60.01
-65.26
-70.25
-74.99
-79.13
-82.11
-83.39
-82.77
-80.47
-77.09
-73.43
-70.05
-67.28
-65.12
-63.37
-61.80
-60.26
-58.58
-56.59
-54.12
-51.14
-47.87
-44.74
-42.25
-40.62
-39.63
-38.72
-37.22
-34.77
-31.46
-27.72
-24.00
-20.48
-16.92
-12.89
-8.11
-2.72
2.74
7.61
11.49
14.47
17.00
19.58
22.40
25.24
27.58
28.87
28.77
27.27
24.65
21.33
17.65
13.84
9.93
5.82
1.39
-3.40
-8.46
-13.60
-18.67
-23.63
-28.53
-33.30
-37.54
-40.46
-41.12
-38.87
-33.86
-27.00
-19.73
-13.40
-8.77
-5.86
-4.23
-3.32
-2.85
-2.85
-3.43
-4.55
-5.88
-6.87
-7.07
-6.40
-5.17
-3.96
-3.23
-3.11
-3.36
-3.48
-3.08
-2.05
-0.68
0.48
1.02
0.77
-0.11
-1.26
-2.41
-3.41
-4.35
-5.35
-6.51
-7.81
-9.19
-10.55
-11.80
-12.81
-13.35
-13.11
-11.84
-9.52
-6.51
-3.50
-1.20
-0.05
-0.02
-0.61
-1.09
-0.87
0.28
2.17
4.35
6.34
7.85
8.78
9.16
8.99
8.23
6.81
4.71
2.09
-0.75
-3.42
-5.60
-7.06
-7.75
-7.74
-7.14
-6.08
-4.71
-3.18
-1.62
-0.14
1.25
2.52
3.67
4.63
5.26
5.44
5.14
4.47
3.67
3.02
2.75
2.96
3.58
4.39
5.01
5.10
4.44
3.05
1.13
-0.95
-2.90
-4.54
-5.90
-7.10
-8.26
-9.39
-10.52
-11.66
-12.88
-14.32
-15.99
-17.77
-19.28
-20.08
-19.82
-18.46
-16.33
-14.03
-12.20
-11.16
-10.77
-10.45
-9.35
-6.76
-2.33
3.76
10.91
18.21
24.74
29.80
33.08
34.80
35.58
36.25
37.48
39.45
41.79
43.65
44.13
42.58
38.96
33.73
27.67
21.60
16.06
11.38
7.60
4.68
2.51
0.98
0.00
-0.57
-0.95
-1.36
-2.08
-3.34
-5.24
-7.74
-10.71
-13.97
-17.37
-20.73
-23.85
-26.42
-28.09
-28.56
-27.67
-25.53
-22.45
-18.90
-15.27
-11.88
-8.88
-6.34
-4.31
-2.74
-1.52
-0.49
0.49
1.46
2.38
3.10
3.56
3.80
3.98
4.29
4.81
5.51
6.24
6.86
7.27
7.45
7.38
7.07
6.50
5.75
4.95
4.23
3.61
3.01
2.22
1.10
-0.38
-2.02
-3.50
-4.58
-5.17
-5.38
-5.50
-5.83
-6.59
-7.82
-9.32
-10.73
-11.63
-11.66
-10.69
-8.85
-6.51
-4.04
-1.79
0.10
1.63
2.93
4.10
5.18
6.21
7.09
7.79
8.19
8.21
7.91
7.44
7.07
7.09
7.64
8.62
9.75
10.63
10.99
10.70
9.86
8.67
7.30
5.87
4.42
3.01
1.71
0.62
-0.17
-0.64
-0.90
-1.07
-1.27
-1.59
-2.03
-2.59
-3.26
-4.11
-5.22
-6.57
-8.07
-9.48
-10.50
-10.86
-10.41
-9.20
-7.38
-5.18
-2.78
-0.35
1.97
4.02
5.63
6.63
6.98
6.77
6.24
5.65
5.27
5.17
5.29
5.45
5.42
5.11
4.62
4.16
4.01
4.29
4.94
5.72
6.38
6.76
6.86
6.80
6.69
6.58
6.41
6.02
5.34
4.36
3.18
1.93
0.72
-0.42
-1.49
-2.53
-3.58
-4.65
-5.71
-6.71
-7.56
-8.18
-8.46
-8.28
-7.57
-6.27
-4.51
-2.49
-0.49
1.25
2.62
3.63
4.38
4.94
5.30
5.39
5.16
4.66
4.08
3.67
3.61
3.90
4.33
4.58
4.43
3.86
3.05
2.28
1.76
1.50
1.36
1.08
0.55
-0.20
-0.93
-1.38
-1.41
-1.07
-0.61
-0.31
-0.42
-0.99
-1.91
-2.95
-3.92
-4.81
-5.70
-6.74
-7.94
-9.16
-10.06
-10.33
-9.76
-8.37
-6.41
-4.23
-2.12
-0.29
1.23
2.50
3.57
4.44
5.06
5.35
5.25
4.83
4.30
3.93
3.90
4.20
4.61
4.86
4.73
4.22
3.54
2.93
2.50
2.22
1.90
1.42
0.80
0.20
-0.17
-0.16
0.23
0.89
1.66
2.39
2.96
3.27
3.15
2.43
0.99
-1.13
-3.73
-6.41
-8.80
-10.59
-11.63
-11.94
-11.60
-10.69
-9.27
-7.39
-5.18
-2.85
-0.67
1.09
2.26
2.75
2.63
2.06
1.24
0.37
-0.32
-0.66
-0.53
0.12
1.19
2.55
3.99
5.33
6.40
7.09
7.39
7.28
6.80
5.99
4.89
3.55
2.11
0.72
-0.49
-1.42
-2.12
-2.71
-3.34
-4.09
-4.94
-5.83
-6.69
-7.48
-8.19
-8.76
-9.03
-8.75
-7.68
-5.70
-2.94
0.26
3.42
6.14
8.20
9.57
10.38
10.69
10.52
9.83
8.67
7.27
5.94
4.96
4.42
4.18
4.08
4.09
4.42
5.35
7.04
9.26
11.46
12.96
13.29
12.39
10.51
8.02
5.16
1.96
-1.63
-5.60
-9.77
-13.83
-17.51
-20.61
-23.06
-24.79
-25.73
-25.78
-24.85
-23.02
-20.51
-17.61
-14.62
-11.65
-8.75
-5.91
-3.21
-0.90
0.68
1.30
0.97
0.04
-0.93
-1.40
-1.08
-0.07
1.28
2.53
3.36
3.75
3.86
3.93
4.08
4.28
4.39
4.23
3.74
2.96
2.05
1.21
0.56
0.13
-0.23
-0.73
-1.63
-3.07
-5.00
-7.14
-9.01
-10.15
-10.21
-9.14
-7.20
-4.80
-2.38
-0.19
1.71
3.40
4.97
6.41
7.59
8.39
8.75
8.76
8.56
8.29
8.04
7.78
7.54
7.39
7.43
7.74
8.26
8.75
8.89
8.43
7.30
5.71
3.99
2.40
1.07
-0.12
-1.40
-3.00
-5.01
-7.42
-10.04
-12.59
-14.79
-16.37
-17.14
-16.99
-15.92
-14.08
-11.71
-9.12
-6.58
-4.25
-2.18
-0.36
1.22
2.51
3.44
4.05
4.44
4.85
5.47
6.30
7.14
7.67
7.56
6.70
5.27
3.58
1.99
0.73
-0.13
-0.66
-1.07
-1.63
-2.61
-4.16
-6.20
-8.42
-10.41
-11.87
-12.82
-13.68
-15.09
-17.60
-21.35
-25.93
-30.49
-34.02
-35.61
-34.80
-31.51
-25.98
-18.53
-9.44
1.20
13.27
26.48
40.17
53.37
65.15
74.92
82.66
88.81
94.01
98.60
102.55
105.45
106.70
105.73
102.16
95.87
87.07
76.44
65.01
54.00
44.40
36.59
30.29
24.68
18.85
12.25
4.97
-2.25
-8.21
-11.72
-11.91
-8.60
-2.43
5.13
12.10
16.54
17.04
13.13
5.41
-4.66
-15.25
-24.68
-31.82
-36.36
-38.69
-39.70
-40.34
-41.29
-42.81
-44.77
-46.88
-48.89
-50.69
-52.35
-53.94
-55.47
-56.73
-57.44
-57.34
-56.37
-54.59
-52.18
-49.32
-45.99
-42.03
-37.27
-31.65
-25.37
-18.85
-12.58
-6.95
-2.08
2.20
6.11
9.87
13.37
16.29
18.16
18.65
17.74
15.80
13.51
11.65
10.90
11.62
13.78
17.04
20.94
25.10
29.39
33.81
38.38
42.92
47.06
50.30
52.28
52.90
52.28
50.70
48.44
45.65
42.48
39.06
35.63
32.40
29.56
27.14
25.01
22.88
20.34
16.94
12.37
6.59
0.04
-6.46
-12.00
-16.02
-18.58
-20.43
-22.61
-25.99
-30.89
-36.95
-43.32
-49.05
-53.36
-55.74
-56.07
-54.43
-51.28
-47.34
-43.69
-41.46
-41.52
-44.09
-48.41
-52.91
-55.51
-54.35
-48.29
-37.44
-23.05
-7.14
8.20
21.50
32.12
40.15
45.82
49.10
49.56
46.66
40.29
31.12
20.56
10.16
1.02
-6.62
-13.23
-19.40
-25.37
-30.83
-35.20
-38.06
-39.54
-40.25
-41.22
-43.40
-47.45
-53.47
-60.91
-68.55
-74.66
-77.51
-75.88
-69.60
-59.78
-48.50
-38.23
-31.12
-28.30
-29.57
-33.27
-36.60
-36.23
-29.25
-14.11
8.77
36.99
66.84
94.44
116.82
132.31
140.58
142.00
137.16
126.60
110.92
90.87
67.69
43.02
18.71
-3.49
-22.27
-36.91
-47.31
-53.78
-56.95
-57.49
-55.99
-52.90
-48.59
-43.49
-38.25
-33.75
-30.80
-29.85
-30.47
-31.38
-30.77
-27.17
-20.40
-12.01
-4.76
-1.24
-2.37
-6.75
-11.34
-13.13
-10.81
-5.53
-0.12
2.57
1.23
-3.35
-8.98
-13.46
-15.54
-15.11
-12.57
-8.22
-1.91
6.50
16.68
27.65
38.09
46.98
53.96
59.30
63.53
66.98
69.50
70.56
69.61
66.31
60.75
53.34
44.63
35.22
25.51
15.63
5.45
-5.07
-15.59
-25.09
-32.17
-35.53
-34.68
-30.13
-22.97
-14.03
-3.29
10.16
27.44
48.89
73.58
99.50
124.31
146.25
164.46
178.74
189.02
195.17
197.12
195.29
190.68
184.31
176.49
166.18
151.29
129.66
100.39
64.55
24.98
-14.74
-51.56
-83.70
-110.64
-132.47
-149.28
-160.86
-166.92
-167.40
-162.65
-153.31
-140.13
-123.89
-105.56
-86.41
-67.90
-51.33
-37.49
-26.69
-19.06
-14.90
-14.86
-19.53
-28.85
-41.76
-56.28
-70.19
-81.69
-89.90
-94.77
-96.73
-96.36
-94.30
-91.34
-88.50
-86.90
-87.31
-89.65
-92.78
-94.60
-92.81
-85.75
-73.09
-56.12
-37.31
-19.37
-4.34
6.96
14.90
20.51
24.78
28.26
31.09
33.26
34.90
36.36
37.98
39.97
42.22
44.45
46.30
47.47
47.71
46.72
44.15
39.66
33.24
25.27
16.58
8.07
0.42
-6.08
-11.49
-15.83
-19.02
-20.94
-21.68
-21.82
-22.23
-23.67
-26.18
-28.88
-30.33
-29.26
-25.28
-19.05
-11.74
-4.04
4.26
14.21
26.74
41.70
57.37
70.83
79.10
80.40
74.77
63.87
50.08
35.43
21.05
7.33
-5.53
-16.95
-25.99
-31.76
-34.12
-33.93
-32.85
-32.59
-34.16
-37.53
-41.80
-45.82
-48.84
-50.84
-52.51
-54.85
-58.76
-64.75
-72.84
-82.54
-93.03
-103.39
-112.78
-120.61
-126.63
-130.69
-132.46
-131.20
-125.87
-115.39
-99.00
-76.46
-48.09
-14.81
21.83
59.54
95.43
126.37
149.72
164.07
169.69
168.40
162.89
155.89
149.48
144.73
141.74
139.90
138.08
134.97
129.34
120.42
108.17
93.26
76.85
60.29
44.70
30.83
19.00
9.22
1.39
-4.63
-8.90
-11.44
-12.37
-12.07
-11.17
-10.46
-10.59
-11.84
-14.04
-16.75
-19.56
-22.35
-25.25
-28.44
-31.91
-35.27
-37.87
-39.13
-38.77
-37.07
-34.66
-32.27
-30.40
-29.03
-27.75
-25.93
-23.10
-19.27
-14.85
-10.49
-6.72
-3.76
-1.55
-0.05
0.59
-0.03
-2.39
-6.63
-12.39
-18.90
-25.15
-30.28
-33.87
-35.91
-36.77
-36.88
-36.64
-36.24
-35.75
-35.13
-34.40
-33.61
-32.80
-31.92
-30.73
-28.90
-26.15
-22.52
-18.36
-14.22
-10.60
-7.68
-5.39
-3.50
-1.88
-0.56
0.30
0.64
0.57
0.35
0.23
0.29
0.37
0.16
-0.60
-2.00
-3.87
-5.91
-7.80
-9.29
-10.18
-10.38
-9.82
-8.45
-6.30
-3.50
-0.30
2.93
5.77
7.86
9.01
9.33
9.15
8.97
9.20
9.96
11.02
11.93
12.25
11.82
10.88
9.93
9.41
9.51
9.99
10.37
10.21
9.35
7.96
6.41
4.99
3.81
2.76
1.63
0.30
-1.17
-2.68
-4.11
-5.49
-6.94
-8.55
-10.25
-11.71
-12.46
-12.10
-10.49
-7.81
-4.44
-0.83
2.63
5.74
8.35
10.36
11.66
12.17
11.96
11.30
10.56
10.13
10.23
10.81
11.63
12.40
12.94
13.19
13.20
13.07
12.79
12.28
11.43
10.19
8.64
7.02
5.54
4.40
3.57
2.88
2.07
0.85
-0.91
-3.19
-5.81
-8.43
-10.67
-12.17
-12.64
-11.90
-9.94
-6.98
-3.43
0.17
3.34
5.77
7.39
8.40
9.10
9.75
10.44
11.09
11.52
11.56
11.19
10.54
9.87
9.44
9.36
9.53
9.71
9.70
9.32
8.59
7.61
6.48
5.23
3.81
2.18
0.41
-1.29
-2.77
-3.99
-5.14
-6.52
-8.29
-10.32
-12.15
-13.17
-12.90
-11.19
-8.28
-4.66
-0.88
2.70
5.85
8.52
10.63
12.19
13.22
13.87
14.37
14.97
15.80
16.86
18.05
19.22
20.27
21.18
21.97
22.71
23.45
24.28
25.26
26.44
27.81
29.27
30.65
31.75
32.52
33.00
33.37
33.82
34.51
35.43
36.53
37.67
38.61
39.08
38.66
36.93
33.63
28.79
22.87
16.80
11.58
8.02
6.39
6.23
6.56
6.19
4.18
0.09
-5.96
-13.37
-21.37
-29.06
-35.64
-40.40
-42.88
-43.00
-41.16
-38.23
-35.37
-33.73
-34.20
-37.18
-42.67
-50.22
-59.13
-68.40
-76.76
-82.87
-85.59
-84.37
-79.51
-72.02
-63.32
-54.71
-46.96
-40.19
-33.96
-27.58
-20.34
-11.67
-1.24
10.90
24.25
37.68
49.56
57.99
61.42
59.10
51.31
39.22
24.54
8.96
-6.21
-20.18
-32.71
-43.87
-53.84
-62.63
-69.90
-74.85
-76.33
-73.14
-64.61
-51.09
-34.17
-16.44
-0.73
10.70
16.88
18.21
16.27
13.15
10.85
10.81
13.68
19.19
26.19
32.95
37.52
38.50
35.43
29.13
21.32
14.06
8.98
6.86
7.64
10.75
15.52
21.44
28.09
35.01
41.66
47.37
51.72
54.48
55.72
55.57
54.05
51.00
46.15
39.37
30.81
20.99
10.60
0.41
-8.93
-17.02
-23.71
-29.07
-33.32
-36.68
-39.23
-40.86
-41.34
-40.42
-37.99
-34.19
-29.36
-24.06
-18.94
-14.62
-11.63
-10.25
-10.37
-11.49
-12.79
-13.53
-13.36
-12.60
-12.09
-12.88
-15.78
-20.96
-28.02
-36.07
-44.06
-50.69
-54.40
-53.51
-46.68
-33.71
-16.00
3.48
21.28
34.76
43.21
47.92
51.24
55.18
60.31
65.45
68.42
67.24
61.16
51.14
39.54
29.18
22.36
19.93
20.99
23.28
24.16
21.76
15.69
7.19
-1.70
-9.07
-14.01
-16.83
-18.65
-20.73
-23.86
-28.27
-33.76
-40.08
-47.09
-54.67
-62.39
-69.27
-73.85
-74.67
-70.81
-62.49
-51.10
-38.74
-27.50
-18.75
-12.76
-8.87
-6.03
-3.37
-0.54
2.34
4.94
7.06
8.84
10.67
13.05
16.28
20.37
25.09
30.12
35.23
40.37
45.69
51.35
57.34
63.35
68.71
72.52
73.83
71.85
66.10
56.53
43.75
29.05
14.37
1.77
-7.15
-11.93
-13.38
-13.31
-13.77
-16.33
-21.70
-29.67
-39.41
-49.93
-60.33
-69.97
-78.45
-85.52
-90.96
-94.43
-95.50
-93.80
-89.22
-82.12
-73.34
-63.99
-54.97
-46.71
-39.11
-31.78
-24.46
-17.13
-10.05
-3.36
3.08
9.89
17.89
27.74
39.53
52.51
65.14
75.64
82.52
85.33
84.81
82.68
80.87
80.84
82.96
86.59
90.50
93.58
95.17
95.20
93.94
91.59
88.09
83.13
76.41
67.91
57.94
47.12
36.14
25.59
15.79
6.83
-1.31
-8.73
-15.46
-21.46
-26.59
-30.71
-33.62
-35.15
-35.22
-33.82
-31.11
-27.40
-23.11
-18.67
-14.42
-10.52
-6.98
-3.74
-0.74
1.98
4.37
6.46
8.44
10.58
13.05
15.78
18.39
20.34
21.20
21.00
20.16
19.37
19.21
19.80
20.76
21.35
20.86
18.92
15.68
11.63
7.50
3.99
1.55
0.43
0.64
2.09
4.69
8.31
12.78
17.79
22.86
27.44
30.97
33.08
33.65
32.80
30.79
27.99
24.73
21.33
18.13
15.40
13.29
11.75
10.44
8.87
6.57
3.21
-1.18
-6.25
-11.44
-16.18
-20.09
-22.98
-24.96
-26.24
-27.18
-28.08
-29.16
-30.49
-31.83
-32.79
-32.84
-31.56
-28.85
-24.99
-20.56
-16.22
-12.50
-9.59
-7.48
-6.04
-5.21
-4.99
-5.35
-6.12
-6.92
-7.35
-7.09
-6.22
-5.17
-4.56
-4.89
-6.31
-8.46
-10.74
-12.56
-13.58
-13.94
-14.05
-14.41
-15.37
-16.96
-18.99
-21.10
-23.02
-24.55
-25.61
-26.09
-25.75
-24.23
-21.20
-16.59
-10.77
-4.46
1.43
6.19
9.49
11.52
12.77
13.79
14.86
16.01
17.03
17.69
17.92
17.81
17.59
17.42
17.33
17.16
16.60
15.41
13.49
10.90
7.75
4.18
0.17
-4.34
-9.34
-14.74
-20.28
-25.65
-30.58
-34.86
-38.28
-40.58
-41.47
-40.75
-38.39
-34.65
-30.02
-25.11
-20.46
-16.50
-13.46
-11.43
-10.43
-10.46
-11.44
-13.25
-15.64
-18.12
-20.02
-20.62
-19.38
-16.14
-11.22
-5.26
0.92
6.73
11.80
16.04
19.38
21.69
22.67
22.03
19.65
15.76
10.91
5.90
1.51
-1.58
-2.95
-2.49
-0.30
3.27
7.75
12.69
17.64
22.26
26.23
29.27
31.04
31.27
29.86
26.99
23.24
19.47
16.55
15.12
15.34
16.86
18.94
20.78
21.78
21.80
21.07
19.97
18.82
17.56
15.79
13.00
8.74
2.82
-4.75
-13.93
-24.63
-36.73
-49.97
-63.84
-77.84
-91.67
-105.47
-119.57
-133.88
-147.32
-157.52
-161.46
-156.57
-142.00
-119.32
-92.08
-64.64
-40.62
-21.82
-7.93
2.67
11.88
20.87
29.70
37.68
44.11
48.95
53.11
58.12
65.49
75.96
89.24
104.13
119.05
132.59
143.84
152.40
158.22
161.50
162.46
161.39
158.39
153.22
145.20
133.42
117.17
96.41
72.21
46.60
22.22
1.74
-12.62
-19.44
-18.39
-10.31
2.82
18.23
32.92
44.28
50.57
50.92
45.14
33.42
16.39
-4.59
-27.10
-47.84
-63.48
-71.81
-72.61
-67.70
-59.87
-51.52
-43.54
-35.25
-25.28
-12.68
2.43
19.18
36.49
53.46
68.89
80.58
85.35
80.11
63.71
38.33
9.31
-16.76
-34.75
-42.99
-43.39
-39.89
-36.25
-34.44
-34.48
-35.48
-36.81
-38.68
-41.93
-47.36
-55.12
-64.56
-74.44
-83.45
-90.64
-95.75
-99.20
-101.85
-104.64
-108.24
-112.86
-118.35
-124.37
-130.60
-136.79
-142.67
-147.80
-151.47
-152.70
-150.43
-143.69
-131.89
-115.08
-94.06
-70.34
-45.84
-22.38
-1.19
17.31
33.33
47.34
59.47
69.37
76.42
80.14
80.59
78.42
74.55
69.63
63.77
56.62
47.69
36.92
24.88
12.70
1.66
-7.36
-14.18
-19.43
-24.24
-29.74
-36.65
-45.25
-55.26
-66.04
-76.47
-84.83
-88.80
-86.05
-75.15
-56.51
-32.75
-7.87
14.30
31.74
44.98
56.48
69.12
84.59
102.59
121.22
138.13
151.71
161.59
168.30
172.53
174.50
173.85
170.06
163.02
153.26
141.88
130.11
118.82
108.21
97.98
87.71
77.25
66.90
57.24
48.81
41.82
36.04
30.98
26.12
21.16
16.03
10.92
6.15
2.00
-1.26
-3.49
-4.66
-4.85
-4.23
-3.00
-1.37
0.49
2.45
4.36
5.99
7.05
7.12
5.75
2.53
-2.84
-10.42
-19.92
-30.74
-41.96
-52.48
-61.26
-67.48
-70.70
-70.91
-68.59
-64.52
-59.64
-54.78
-50.51
-47.09
-44.54
-42.73
-41.55
-40.89
-40.68
-40.73
-40.77
-40.50
-39.64
-38.15
-36.20
-34.14
-32.35
-31.06
-30.31
-29.87
-29.40
-28.63
-27.43
-25.93
-24.41
-23.14
-22.31
-21.85
-21.64
-21.45
-21.12
-20.55
-19.69
-18.45
-16.72
-14.37
-11.33
-7.74
-3.82
0.05
3.51
6.27
8.16
9.16
9.34
8.83
7.81
6.54
5.24
4.17
3.46
3.09
2.96
2.86
2.61
2.08
1.23
0.16
-0.95
-1.87
-2.42
-2.52
-2.26
-1.89
-1.66
-1.72
-1.98
-2.16
-1.87
-0.83
0.97
3.33
5.84
8.18
10.09
11.49
12.37
12.74
12.60
12.01
11.08
9.99
8.97
8.25
7.88
7.77
7.72
7.46
6.82
5.77
4.48
3.15
1.90
0.67
-0.74
-2.52
-4.68
-6.98
-8.97
-10.27
-10.66
-10.21
-9.11
-7.56
-5.67
-3.47
-1.07
1.24
3.14
4.28
4.57
4.11
3.21
2.20
1.29
0.63
0.24
0.14
0.34
0.81
1.38
1.83
1.85
1.28
0.15
-1.33
-2.83
-4.08
-4.93
-5.46
-5.90
-6.48
-7.30
-8.25
-9.04
-9.30
-8.72
-7.19
-4.83
-1.98
0.88
3.30
4.92
5.65
5.56
4.90
3.96
2.97
2.06
1.22
0.33
-0.74
-2.04
-3.47
-4.90
-6.19
-7.27
-8.18
-9.02
-9.93
-11.00
-12.31
-13.89
-15.81
-18.04
-20.46
-22.79
-24.59
-25.34
-24.64
-22.39
-18.78
-14.33
-9.70
-5.56
-2.38
-0.39
0.38
0.15
-0.78
-2.00
-3.15
-3.86
-4.01
-3.70
-3.21
-2.98
-3.36
-4.55
-6.50
-8.98
-11.64
-14.11
-16.05
-17.31
-18.08
-18.93
-20.73
-24.27
-29.84
-36.82
-43.82
-49.01
-50.90
-48.85
-43.26
-35.28
-26.21
-17.01
-8.09
0.58
9.11
17.39
25.10
31.86
37.42
41.88
45.60
48.99
52.38
55.72
58.72
60.95
62.05
61.99
61.10
59.96
59.20
59.30
60.39
62.34
64.75
67.18
69.25
70.67
71.29
70.98
69.68
67.36
64.11
60.06
55.39
50.24
44.67
38.66
32.11
24.87
16.78
7.75
-2.07
-12.24
-21.99
-30.45
-36.85
-40.73
-42.06
-41.27
-39.06
-36.23
-33.51
-31.36
-30.01
-29.42
-29.35
-29.52
-29.66
-29.64
-29.42
-29.02
-28.38
-27.37
-25.79
-23.40
-20.08
-15.86
-10.98
-5.80
-0.81
3.59
7.14
9.84
11.94
13.88
16.02
18.53
21.27
23.78
25.51
26.07
25.30
23.42
20.82
17.95
15.16
12.67
10.55
8.85
7.61
6.86
6.60
6.69
6.91
7.02
6.81
6.15
5.01
3.45
1.57
-0.55
-2.84
-5.31
-7.92
-10.54
-12.88
-14.56
-15.22
-14.65
-12.94
-10.47
-7.82
-5.57
-4.14
-3.65
-3.94
-4.70
-5.68
-6.75
-8.03
-9.71
-11.87
-14.35
-16.75
-18.71
-19.95
-20.51
-20.61
-20.50
-20.34
-20.14
-19.83
-19.32
-18.62
-17.76
-16.80
-15.75
-14.59
-13.37
-12.22
-11.39
-11.12
-11.51
-12.43
-13.48
-14.19
-14.10
-12.96
-10.81
-7.91
-4.70
-1.57
1.17
3.36
4.97
6.03
6.57
6.67
6.38
5.78
4.97
4.13
3.48
3.23
3.49
4.22
5.19
6.09
6.68
6.90
6.88
6.83
6.87
6.94
6.80
6.19
5.04
3.52
2.02
0.87
0.18
-0.21
-0.67
-1.52
-2.79
-4.27
-5.49
-6.06
-5.74
-4.63
-2.95
-1.04
0.87
2.64
4.16
5.33
5.95
5.85
4.87
3.01
0.47
-2.30
-4.78
-6.54
-7.39
-7.48
-7.19
-6.91
-6.90
-7.14
-7.40
-7.47
-7.30
-7.10
-7.16
-7.67
-8.53
-9.38
-9.82
-9.71
-9.26
-9.05
-9.58
-11.03
-13.10
-15.08
-16.22
-16.00
-14.33
-11.48
-7.93
-4.18
-0.57
2.67
5.46
7.76
9.58
10.89
11.68
11.97
11.82
11.38
10.86
10.47
10.34
10.43
10.57
10.53
10.20
9.57
8.76
7.95
7.29
6.82
6.52
6.29
6.01
5.53
4.77
3.70
2.34
0.80
-0.78
-2.28
-3.55
-4.48
-4.94
-4.81
-4.01
-2.62
-0.83
1.04
2.69
3.92
4.63
4.89
4.83
4.58
4.30
4.12
4.15
4.45
4.91
5.35
5.48
5.05
3.93
2.20
0.09
-1.97
-3.54
-4.31
-4.21
-3.49
-2.68
-2.33
-2.85
-4.32
-6.52
-9.08
-11.69
-14.22
-16.54
-18.43
-19.49
-19.21
-17.30
-13.89
-9.58
-5.26
-1.67
0.80
2.20
2.92
3.34
3.68
3.92
3.96
3.71
3.22
2.57
1.89
1.23
0.63
0.12
-0.27
-0.53
-0.68
-0.79
-0.90
-1.03
-1.14
-1.22
-1.29
-1.43
-1.82
-2.59
-3.85
-5.51
-7.36
-9.09
-10.35
-10.90
-10.63
-9.57
-7.86
-5.71
-3.35
-1.00
1.10
2.82
4.04
4.79
5.15
5.25
5.16
4.90
4.44
3.86
3.35
3.12
3.32
3.83
4.33
4.44
3.90
2.77
1.36
0.09
-0.78
-1.35
-1.99
-3.23
-5.43
-8.63
-12.51
-16.52
-20.07
-22.78
-24.44
-25.03
-24.50
-22.90
-20.33
-17.07
-13.52
-10.15
-7.25
-4.90
-2.99
-1.30
0.25
1.58
2.60
3.24
3.60
3.81
4.05
4.33
4.62
4.84
5.00
5.17
5.40
5.68
5.88
5.85
5.50
4.90
4.27
3.78
3.48
3.18
2.55
1.29
-0.69
-3.19
-5.76
-7.85
-9.04
-9.10
-8.08
-6.22
-3.92
-1.64
0.23
1.47
2.11
2.37
2.58
2.93
3.42
3.88
4.10
4.02
3.76
3.62
3.84
4.54
5.65
7.04
8.47
9.71
10.53
10.68
10.03
8.64
6.81
4.99
3.52
2.60
2.08
1.75
1.40
1.00
0.70
0.61
0.69
0.73
0.50
-0.16
-1.13
-2.10
-2.79
-3.09
-3.15
-3.24
-3.62
-4.25
-4.90
-5.29
-5.23
-4.87
-4.48
-4.36
-4.52
-4.68
-4.45
-3.59
-2.25
-0.87
0.05
0.33
0.14
-0.07
0.01
0.33
0.52
0.16
-0.91
-2.40
-3.79
-4.71
-5.19
-5.60
-6.41
-7.73
-9.22
-10.21
-10.07
-8.55
-5.90
-2.71
0.43
3.11
5.21
6.79
7.96
8.79
9.26
9.38
9.17
8.73
8.23
7.79
7.48
7.30
7.09
6.67
5.87
4.67
3.17
1.61
0.29
-0.59
-1.00
-1.09
-1.17
-1.51
-2.25
-3.43
-4.95
-6.71
-8.59
-10.42
-11.94
-12.78
-12.58
-11.18
-8.74
-5.72
-2.69
-0.13
1.74
2.93
3.66
4.07
4.27
4.31
4.24
4.12
4.05
4.12
4.39
4.84
5.49
6.22
6.90
7.35
7.42
7.09
6.55
6.02
5.73
5.70
5.76
5.55
4.70
2.95
0.37
-2.64
-5.50
-7.53
-8.31
-7.72
-6.00
-3.63
-1.07
1.22
2.99
4.05
4.32
3.85
2.83
1.61
0.63
0.19
0.32
0.69
0.78
0.08
-1.47
-3.62
-5.81
-7.53
-8.57
-9.02
-9.21
-9.46
-9.93
-10.62
-11.50
-12.62
-14.09
-16.00
-18.17
-20.15
-21.28
-21.06
-19.39
-16.69
-13.66
-11.02
-9.10
-7.76
-6.61
-5.24
-3.53
-1.65
-0.03
0.98
1.29
1.06
0.66
0.43
0.59
1.16
2.04
3.08
4.16
5.24
6.32
7.47
8.70
9.92
10.89
11.28
10.82
9.37
7.08
4.26
1.35
-1.22
-3.17
-4.37
-4.78
-4.42
-3.33
-1.62
0.53
2.87
5.13
7.08
8.63
9.80
10.66
11.26
11.64
11.78
11.77
11.68
11.66
11.81
12.16
12.61
12.95
13.01
12.65
11.89
10.86
9.69
8.52
7.40
6.29
5.13
3.82
2.31
0.54
-1.53
-3.87
-6.40
-8.94
-11.17
-12.75
-13.38
-12.89
-11.36
-9.09
-6.51
-3.98
-1.68
0.51
2.85
5.59
8.75
12.06
15.04
17.23
18.40
18.56
17.95
16.83
15.40
13.78
12.09
10.53
9.41
8.92
9.09
9.71
10.43
10.88
10.84
10.30
9.34
8.13
6.77
5.30
3.71
1.96
0.03
-2.06
-4.25
-6.30
-7.92
-8.75
-8.48
-6.91
-4.08
-0.29
3.91
7.84
10.75
12.13
11.82
10.12
7.71
5.42
4.01
3.91
5.20
7.58
10.46
13.07
14.65
14.65
12.92
9.84
6.26
3.24
1.60
1.52
2.52
3.59
3.75
2.41
-0.29
-3.75
-7.14
-9.84
-11.61
-12.43
-12.41
-11.57
-9.90
-7.49
-4.67
-1.95
0.11
1.18
1.27
0.53
-0.77
-2.50
-4.55
-6.82
-9.08
-10.99
-12.27
-12.73
-12.43
-11.59
-10.44
-9.17
-7.86
-6.63
-5.58
-4.86
-4.57
-4.65
-4.91
-5.13
-5.14
-4.90
-4.55
-4.25
-4.17
-4.39
-4.88
-5.56
-6.34
-7.04
-7.40
-7.12
-5.91
-3.68
-0.62
2.76
5.85
8.12
9.35
9.64
9.33
8.73
7.95
6.94
5.60
3.93
2.20
0.80
0.07
0.11
0.71
1.44
1.94
2.00
1.67
1.13
0.53
-0.12
-0.93
-2.00
-3.32
-4.71
-5.90
-6.70
-7.02
-6.91
-6.49
-5.82
-4.87
-3.49
-1.62
0.68
3.14
5.38
7.05
7.94
8.09
7.65
6.87
5.97
5.13
4.50
4.19
4.24
4.60
5.09
5.46
5.50
5.08
4.24
3.13
1.92
0.66
-0.69
-2.31
-4.37
-6.88
-9.65
-12.25
-14.10
-14.77
-14.05
-12.15
-9.50
-6.64
-4.01
-1.82
-0.13
1.12
2.03
2.68
3.19
3.69
4.32
5.16
6.18
7.19
8.01
8.45
8.44
8.06
7.50
6.93
6.40
5.84
5.12
4.17
2.99
1.72
0.44
-0.85
-2.25
-3.81
-5.49
-7.02
-8.11
-8.50
-8.13
-7.08
-5.47
-3.40
-0.88
1.97
4.90
7.47
9.21
9.77
9.03
7.13
4.34
1.06
-2.40
-5.66
-8.45
-10.55
-11.82
-12.25
-11.92
-10.91
-9.35
-7.44
-5.46
-3.78
-2.78
-2.70
-3.54
-5.01
-6.64
-7.97
-8.68
-8.66
-7.91
-6.52
-4.52
-1.94
1.08
4.29
7.26
9.56
10.84
11.00
10.16
8.64
6.84
5.21
4.06
3.54
3.63
4.09
4.56
4.72
4.43
3.72
2.77
1.77
0.80
-0.09
-0.92
-1.64
-2.15
-2.39
-2.40
-2.39
-2.62
-3.36
-4.61
-6.21
-7.85
-9.15
-9.80
-9.70
-8.86
-7.43
-5.63
-3.63
-1.62
0.26
1.94
3.35
4.46
5.27
5.75
5.84
5.52
4.85
3.93
2.94
2.06
1.38
0.97
0.76
0.70
0.71
0.72
0.64
0.40
-0.11
-0.90
-1.89
-2.91
-3.81
-4.51
-5.07
-5.68
-6.54
-7.80
-9.39
-11.06
-12.36
-12.86
-12.33
-10.77
-8.51
-5.97
-3.55
-1.43
0.34
1.77
2.83
3.44
3.52
3.14
2.55
2.05
1.87
2.04
2.45
2.91
3.38
3.89
4.54
5.33
6.12
6.63
6.64
6.05
4.95
3.58
2.15
0.78
-0.56
-1.99
-3.61
-5.39
-7.19
-8.80
-9.98
-10.63
-10.74
-10.42
-9.79
-8.95
-7.89
-6.58
-4.99
-3.21
-1.44
0.10
1.27
2.12
2.84
3.64
4.69
5.94
7.20
8.26
8.94
9.19
9.06
8.66
8.14
7.58
7.02
6.43
5.77
5.05
4.37
3.83
3.53
3.46
3.41
3.05
2.07
0.38
-1.85
-4.23
-6.28
-7.64
-8.12
-7.70
-6.47
-4.58
-2.25
0.28
2.77
5.01
6.82
8.12
8.85
9.03
8.72
8.07
7.21
6.32
5.49
4.79
4.26
3.95
3.88
4.02
4.21
4.22
3.87
3.11
2.11
1.10
0.23
-0.52
-1.35
-2.44
-3.81
-5.29
-6.58
-7.53
-8.14
-8.59
-9.04
-9.48
-9.70
-9.37
-8.28
-6.45
-4.15
-1.70
0.62
2.70
4.53
6.13
7.44
8.32
8.66
8.44
7.79
6.97
6.29
5.97
6.07
6.52
7.15
7.78
8.21
8.36
8.14
7.58
6.79
5.90
5.02
4.23
3.52
2.84
2.18
1.51
0.84
0.13
-0.76
-1.94
-3.39
-4.82
-5.72
-5.56
-4.07
-1.38
1.96
5.30
8.21
10.65
12.94
15.47
18.45
21.74
24.95
27.70
29.75
31.09
31.78
31.82
30.94
28.82
25.16
19.96
13.63
6.89
0.58
-4.64
-8.58
-11.50
-14.09
-17.12
-21.17
-26.35
-32.28
-38.30
-43.73
-48.15
-51.55
-54.34
-57.14
-60.60
-65.21
-70.96
-77.29
-82.96
-86.30
-85.70
-80.26
-70.27
-57.48
-44.52
-34.02
-27.60
-25.08
-24.49
-22.74
-16.75
-4.54
14.08
37.46
62.70
86.50
105.96
119.12
125.18
124.39
117.83
107.21
94.44
81.28
68.93
57.90
48.13
39.27
31.10
23.61
16.90
10.99
5.61
0.45
-4.63
-9.34
-13.12
-15.43
-16.15
-15.61
-14.41
-13.02
-11.57
-9.91
-7.87
-5.42
-2.60
0.61
4.45
9.17
14.69
20.30
24.77
26.79
25.64
21.60
15.85
10.02
5.41
2.54
1.03
-0.18
-2.19
-5.70
-10.72
-16.61
-22.50
-27.56
-31.40
-34.03
-35.82
-37.09
-38.07
-38.74
-39.08
-39.28
-39.69
-40.70
-42.35
-44.15
-45.13
-44.15
-40.35
-33.59
-24.52
-14.37
-4.54
3.82
10.06
14.06
16.04
16.44
15.72
14.30
12.46
10.38
8.14
5.72
3.15
0.47
-2.21
-4.73
-6.92
-8.68
-10.00
-10.96
-11.66
-12.28
-12.91
-13.60
-14.31
-14.91
-15.22
-15.21
-14.98
-14.88
-15.39
-16.98
-19.88
-23.93
-28.53
-32.68
-35.38
-35.87
-33.98
-30.15
-25.32
-20.50
-16.51
-13.78
-12.33
-11.90
-11.95
-11.76
-10.45
-7.43
-2.75
2.60
6.89
8.33
5.85
-0.55
-9.81
-20.35
-30.50
-38.54
-42.58
-40.48
-30.43
-12.02
12.86
39.89
63.47
78.75
83.49
78.70
67.90
55.21
43.58
33.87
25.24
16.38
6.83
-2.52
-9.71
-12.77
-10.68
-3.79
6.39
17.91
28.98
38.16
44.34
46.65
44.62
38.59
29.98
21.20
14.86
12.68
14.71
19.40
24.34
27.38
27.40
24.40
18.99
11.84
3.49
-5.31
-13.18
-18.18
-18.36
-12.75
-2.07
11.34
24.45
34.81
41.56
45.70
49.42
55.03
63.91
76.05
90.16
104.34
116.72
126.04
131.75
133.85
132.59
128.21
120.75
110.14
96.39
79.88
61.51
42.78
25.44
11.18
1.13
-4.40
-5.84
-4.23
-0.79
3.33
7.11
9.73
10.48
8.84
4.58
-2.23
-11.12
-21.40
-32.24
-42.88
-52.71
-61.30
-68.40
-73.85
-77.54
-79.41
-79.50
-78.07
-75.70
-73.32
-72.01
-72.63
-75.51
-80.25
-85.83
-91.04
-94.94
-97.17
-97.85
-97.27
-95.51
-92.43
-87.86
-82.01
-75.87
-71.02
-69.13
-71.21
-76.81
-83.81
-88.96
-88.95
-81.77
-67.82
-50.12
-33.47
-22.82
-21.53
-30.14
-46.20
-65.07
-81.35
-90.45
-89.58
-78.20
-57.92
-32.02
-4.56
20.53
40.59
54.80
64.18
70.82
76.53
81.70
84.97
83.91
76.59
63.24
46.84
32.29
24.45
25.80
35.28
48.83
61.38
69.24
71.61
70.40
68.65
68.59
70.39
72.47
72.81
70.41
66.09
61.99
60.43
62.59
67.94
74.46
79.62
81.43
79.06
72.90
64.13
54.01
43.51
33.13
23.11
13.72
5.32
-1.71
-7.14
-11.18
-14.36
-17.37
-20.76
-24.86
-29.82
-35.80
-43.13
-52.40
-64.30
-79.24
-96.98
-116.41
-135.43
-151.46
-161.97
-165.35
-161.33
-150.98
-136.31
-119.52
-102.47
-86.33
-71.60
-58.47
-47.08
-37.62
-30.32
-25.18
-21.85
-19.75
-18.28
-17.17
-16.52
-16.56
-17.15
-17.45
-15.93
-10.96
-1.79
10.74
24.12
35.09
41.03
41.03
36.42
30.15
25.74
25.98
32.24
44.26
60.29
77.42
92.00
100.46
100.29
91.08
75.01
56.40
40.34
30.90
29.87
36.38
47.70
60.48
71.87
80.18
84.68
85.33
82.48
76.72
69.00
60.38
51.71
43.35
35.11
26.38
16.58
5.39
-7.06
-20.15
-32.99
-44.57
-54.04
-61.01
-65.68
-68.71
-70.85
-72.45
-73.15
-71.87
-67.24
-58.19
-44.35
-26.34
-5.55
15.95
35.73
51.48
61.54
65.42
63.93
58.86
52.14
45.00
37.73
29.99
21.44
12.40
3.77
-3.47
-8.95
-13.18
-17.24
-22.02
-27.60
-33.19
-37.73
-40.59
-41.98
-42.71
-43.60
-44.72
-45.26
-43.94
-39.74
-32.57
-23.31
-13.36
-3.92
4.55
12.21
19.52
26.64
33.35
39.28
44.16
48.05
50.92
52.22
50.60
44.26
31.76
12.93
-10.58
-35.63
-58.46
-75.75
-85.33
-86.45
-79.45
-65.50
-46.49
-24.96
-3.91
13.74
25.90
32.00
33.16
31.64
29.84
29.41
30.78
33.41
36.43
39.28
41.94
44.63
47.51
50.33
52.55
53.64
53.34
51.83
49.48
46.66
43.50
39.83
35.31
29.62
22.66
14.63
6.08
-2.19
-9.33
-14.85
-18.74
-21.53
-24.04
-26.99
-30.60
-34.53
-38.05
-40.35
-40.88
-39.43
-36.16
-31.53
-26.07
-20.40
-14.98
-10.06
-5.60
-1.39
2.78
6.89
10.70
13.82
15.94
17.02
17.25
16.90
16.05
14.59
12.33
9.19
5.46
1.72
-1.35
-3.34
-4.24
-4.51
-4.79
-5.74
-7.79
-11.12
-15.67
-21.21
-27.29
-33.21
-38.03
-40.77
-40.66
-37.45
-31.52
-23.89
-15.82
-8.44
-2.42
2.17
5.61
8.26
10.29
11.70
12.38
12.33
11.72
10.73
9.42
7.67
5.25
2.14
-1.44
-4.97
-7.88
-9.85
-10.91
-11.40
-11.76
-12.40
-13.61
-15.64
-18.58
-22.37
-26.60
-30.53
-33.31
-34.28
-33.33
-30.97
-28.05
-25.38
-23.46
-22.27
-21.45
-20.61
-19.62
-18.59
-17.83
-17.55
-17.68
-17.95
-18.09
-18.00
-17.96
-18.36
-19.52
-21.40
-23.67
-25.94
-28.02
-30.02
-31.98
-33.51
-33.52
-30.52
-23.27
-11.61
3.36
19.45
34.30
46.17
54.36
59.10
61.02
60.65
58.27
54.14
48.65
42.63
37.05
32.79
30.22
29.06
28.61
28.00
26.57
24.03
20.51
16.38
12.01
7.67
3.42
-0.78
-5.02
-9.34
-13.66
-17.78
-21.36
-24.07
-25.57
-25.82
-24.99
-23.53
-21.90
-20.38
-18.94
-17.28
-15.00
-11.87
-7.97
-3.72
0.34
3.79
6.37
7.98
8.64
8.35
7.08
4.86
1.83
-1.66
-5.14
-8.07
-10.00
-10.77
-10.49
-9.64
-8.81
-8.53
-8.98
-9.93
-10.81
-11.00
-10.18
-8.52
-6.67
-5.41
-5.34
-6.62
-8.85
-11.27
-12.95
-13.22
-11.73
-8.58
-4.20
0.85
6.03
10.94
15.30
18.85
21.33
22.48
22.21
20.70
18.47
16.27
14.83
14.63
15.63
17.44
19.42
20.98
21.81
21.90
21.41
20.52
19.30
17.69
15.51
12.65
9.08
4.89
0.34
-4.18
-8.11
-10.84
-11.86
-11.03
-8.60
-5.19
-1.50
1.87
4.56
6.37
7.09
6.47
4.28
0.51
-4.52
-10.20
-15.85
-20.95
-25.32
-29.10
-32.46
-35.42
-37.77
-39.19
-39.49
-38.80
-37.61
-36.49
-35.88
-35.81
-35.98
-35.90
-35.12
-33.44
-30.87
-27.55
-23.64
-19.35
-14.90
-10.51
-6.45
-2.81
0.41
3.38
6.28
9.19
12.07
14.84
17.43
19.83
21.99
23.81
25.13
25.78
25.65
24.67
22.83
20.15
16.73
12.79
8.60
4.52
0.84
-2.25
-4.74
-6.75
-8.55
-10.44
-12.66
-15.24
-17.93
-20.23
-21.53
-21.39
-19.70
-16.73
-13.03
-9.15
-5.42
-1.97
1.25
4.21
6.76
8.64
9.67
9.86
9.56
9.20
9.10
9.37
9.82
10.10
9.91
9.16
7.99
6.65
5.39
4.35
3.58
3.06
2.68
2.16
1.15
-0.70
-3.56
-7.20
-10.97
-14.02
-15.58
-15.28
-13.28
-10.09
-6.34
-2.53
1.15
4.64
8.00
11.14
13.83
15.73
16.57
16.35
15.24
13.65
11.98
10.56
9.57
9.06
9.08
9.58
10.52
11.70
12.84
13.60
13.70
12.98
11.51
9.52
7.36
5.50
4.37
4.32
5.41
7.43
9.87
12.14
13.77
14.47
14.24
13.24
11.71
9.89
7.98
6.15
4.41
2.73
0.98
-0.97
-3.17
-5.61
-8.18
-10.70
-12.95
-14.66
-15.63
-15.77
-15.25
-14.50
-14.05
-14.36
-15.64
-17.87
-20.74
-23.78
-26.41
-27.92
-27.55
-24.74
-19.54
-12.78
-6.06
-1.20
0.39
-1.64
-6.57
-12.84
-18.81
-23.28
-25.73
-26.23
-25.10
-22.67
-19.25
-15.25
-11.23
-8.01
-6.32
-6.64
-9.03
-13.24
-18.97
-26.05
-34.36
-43.63
-53.06
-61.36
-66.94
-68.61
-66.07
-60.13
-52.38
-44.51
-37.67
-32.15
-27.59
-23.43
-19.47
-15.95
-13.45
-12.54
-13.51
-16.27
-20.51
-25.78
-31.57
-37.36
-42.56
-46.65
-49.27
-50.21
-49.47
-47.13
-43.40
-38.54
-32.95
-26.89
-20.21
-12.17
-1.62
12.53
30.51
51.25
72.45
91.39
106.07
116.03
122.28
126.51
129.97
132.79
134.21
133.31
129.99
125.20
120.59
117.62
116.89
117.97
119.84
121.54
122.49
122.41
120.95
117.58
111.75
103.35
93.09
82.37
72.90
66.07
62.50
61.85
62.86
63.73
62.43
57.30
47.51
33.54
17.10
0.69
-13.17
-22.76
-27.49
-27.77
-24.52
-18.67
-10.88
-1.75
8.04
17.67
26.37
33.74
39.94
45.53
51.06
56.69
62.00
66.26
68.87
69.68
69.11
67.81
66.35
64.94
63.39
61.30
58.28
54.11
48.76
42.38
35.34
28.16
21.46
15.79
11.36
7.98
5.03
1.66
-2.79
-8.37
-14.36
-19.41
-21.94
-20.94
-16.60
-10.65
-6.05
-6.00
-12.75
-26.60
-45.68
-66.57
-85.49
-99.48
-107.12
-108.61
-105.24
-98.70
-90.54
-81.98
-74.01
-67.59
-63.63
-62.70
-64.79
-69.06
-74.05
-78.11
-80.01
-79.38
-76.68
-72.98
-69.33
-66.50
-64.76
-64.08
-64.33
-65.43
-67.35
-70.03
-73.34
-77.19
-81.47
-86.21
-91.39
-96.98
-102.80
-108.68
-114.54
-120.45
-126.35
-131.66
-135.08
-134.85
-129.55
-118.92
-104.21
-87.77
-71.99
-58.29
-46.72
-36.38
-26.14
-15.26
-3.51
9.24
23.22
38.72
55.68
73.16
89.50
102.76
111.52
115.33
114.77
111.13
105.95
100.66
96.31
93.49
92.28
92.29
92.89
93.41
93.32
92.28
89.95
86.02
80.28
72.81
64.18
55.44
47.81
42.11
38.46
36.20
34.30
31.95
28.95
25.72
22.88
20.63
18.47
15.36
10.37
3.34
-4.74
-12.18
-17.33
-19.43
-18.93
-17.23
-15.97
-16.18
-17.95
-20.50
-22.71
-23.75
-23.39
-22.08
-20.43
-18.81
-16.99
-14.26
-9.74
-2.99
5.65
15.13
24.03
31.12
35.71
37.72
37.45
35.38
32.05
28.18
24.70
22.71
23.19
26.60
32.72
40.61
48.84
55.84
60.20
60.92
57.68
50.84
41.50
31.21
21.55
13.65
7.88
3.82
0.64
-2.48
-5.94
-9.57
-12.80
-15.00
-15.74
-14.99
-13.08
-10.59
-8.14
-6.23
-5.16
-4.97
-5.61
-6.85
-8.42
-10.01
-11.25
-11.94
-12.04
-11.70
-11.27
-11.12
-11.53
-12.55
-13.99
-15.49
-16.66
-17.33
-17.59
-17.79
-18.37
-19.65
-21.65
-24.05
-26.32
-27.90
-28.42
-27.82
-26.25
-24.01
-21.33
-18.43
-15.52
-12.87
-10.79
-9.50
-9.03
-9.17
-9.55
-9.77
-9.66
-9.25
-8.83
-8.72
-9.09
-9.86
-10.73
-11.32
-11.36
-10.90
-10.22
-9.71
-9.65
-10.15
-11.11
-12.33
-13.66
-15.00
-16.22
-17.12
-17.45
-16.94
-15.50
-13.24
-10.50
-7.68
-5.09
-2.91
-1.19
0.13
0.99
1.35
1.07
0.17
-1.21
-2.75
-4.12
-5.06
-5.57
-5.82
-6.00
-6.26
-6.59
-6.91
-7.23
-7.70
-8.54
-9.94
-11.85
-14.03
-15.99
-17.29
-17.62
-16.86
-15.10
-12.54
-9.47
-6.22
-3.11
-0.43
1.63
2.98
3.67
3.86
3.75
3.51
3.24
2.93
2.51
1.90
1.06
0.04
-0.97
-1.80
-2.28
-2.42
-2.33
-2.28
-2.54
-3.31
-4.64
-6.36
-8.20
-9.87
-11.10
-11.79
-11.93
-11.50
-10.46
-8.75
-6.34
-3.29
0.13
3.56
6.57
8.80
10.08
10.44
10.03
9.01
7.55
5.75
3.79
1.88
0.31
-0.72
-1.15
-1.18
-1.14
-1.37
-2.03
-3.05
-4.19
-5.21
-6.04
-6.86
-7.99
-9.72
-12.12
-14.90
-17.48
-19.18
-19.49
-18.28
-15.86
-12.83
-9.83
-7.26
-5.17
-3.33
-1.46
0.53
2.46
3.89
4.32
3.56
1.88
0.03
-1.04
-0.59
1.52
4.57
7.18
7.86
5.61
0.55
-6.12
-12.55
-17.06
-18.93
-18.70
-17.96
-18.61
-22.24
-29.53
-40.06
-52.31
-63.54
-69.93
-67.32
-52.62
-25.78
9.10
44.20
70.51
81.37
75.58
58.02
37.56
23.13
20.07
28.60
44.77
62.92
77.90
86.07
84.99
73.13
50.13
17.78
-19.35
-54.52
-80.85
-93.85
-93.04
-81.98
-66.55
-52.49
-43.59
-41.04
-43.98
-50.49
-58.56
-66.77
-74.55
-82.16
-90.34
-99.83
-110.79
-122.39
-132.83
-139.56
-139.99
-132.23
-115.72
-91.69
-63.24
-34.72
-10.72
5.35
12.26
11.34
5.85
-0.12
-2.91
0.01
9.87
26.74
49.61
76.40
104.27
130.09
151.38
166.90
176.74
181.81
183.03
180.75
174.77
164.83
151.14
134.49
116.00
96.86
78.20
61.29
47.57
38.22
33.46
31.89
30.65
26.42
16.83
1.48
-17.83
-37.96
-55.72
-68.97
-77.14
-81.01
-82.16
-82.08
-81.75
-81.30
-80.24
-77.87
-73.77
-68.01
-61.09
-53.53
-45.42
-36.46
-26.11
-14.15
-0.94
12.59
25.18
35.70
43.44
48.12
49.88
49.09
46.42
42.71
38.94
36.10
34.98
35.97
38.96
43.29
48.01
52.18
55.11
56.61
56.88
56.25
54.89
52.62
48.98
43.49
36.03
26.90
16.80
6.54
-3.23
-12.22
-20.37
-27.69
-34.02
-39.03
-42.36
-43.80
-43.49
-41.85
-39.44
-36.71
-33.91
-31.20
-28.75
-26.94
-26.24
-27.09
-29.54
-33.08
-36.68
-39.06
-39.15
-36.56
-31.74
-25.88
-20.51
-17.00
-16.10
-17.83
-21.50
-26.08
-30.61
-34.44
-37.40
-39.65
-41.47
-42.99
-43.99
-44.09
-42.84
-40.07
-35.98
-31.02
-25.59
-19.76
-13.31
-5.91
2.50
11.51
20.29
27.99
34.09
38.61
42.01
44.83
47.36
49.42
50.52
50.11
47.89
43.86
38.35
31.76
24.48
16.86
9.28
2.31
-3.42
-7.38
-9.48
-10.21
-10.64
-11.97
-15.07
-20.05
-26.06
-31.60
-35.01
-35.18
-31.88
-25.82
-18.25
-10.49
-3.52
2.24
6.76
10.28
13.08
15.35
17.24
18.89
20.37
21.71
22.76
23.29
22.99
21.66
19.20
15.72
11.37
6.38
1.01
-4.49
-9.86
-14.82
-19.15
-22.71
-25.55
-27.80
-29.72
-31.48
-33.22
-35.02
-36.92
-38.88
-40.67
-41.74
-41.17
-37.96
-31.37
-21.28
-8.42
5.75
19.53
31.49
40.87
47.71
52.60
56.39
59.74
63.09
66.60
70.34
74.31
78.38
82.22
85.22
86.62
85.81
82.64
77.56
71.46
65.34
59.80
55.01
50.77
46.82
43.24
40.38
38.79
38.81
40.41
43.08
46.06
48.49
49.60
48.86
45.91
40.62
33.06
23.57
12.84
1.82
-8.41
-17.03
-23.64
-28.44
-32.00
-35.03
-37.92
-40.65
-42.85
-44.20
-44.66
-44.60
-44.60
-45.18
-46.48
-48.29
-50.18
-51.73
-52.67
-52.85
-52.15
-50.36
-47.26
-42.69
-36.81
-29.99
-22.90
-16.20
-10.36
-5.55
-1.75
1.20
3.45
5.09
6.22
6.92
7.33
7.54
7.59
7.44
7.03
6.35
5.42
4.32
3.13
1.87
0.56
-0.79
-2.20
-3.77
-5.70
-8.18
-11.30
-14.83
-18.16
-20.55
-21.25
-19.82
-16.26
-10.99
-4.69
1.89
8.06
13.33
17.42
20.22
21.80
22.28
21.90
20.92
19.62
18.24
16.91
15.64
14.33
12.85
11.12
9.17
7.14
5.17
3.31
1.56
-0.18
-1.96
-3.90
-6.16
-8.94
-12.36
-16.34
-20.44
-23.88
-25.77
-25.44
-22.69
-17.87
-11.69
-5.02
1.42
7.18
12.05
15.93
18.75
20.41
20.87
20.23
18.75
16.84
14.95
13.40
12.33
11.65
11.13
10.49
9.53
8.19
6.52
4.69
2.86
1.10
-0.60
-2.44
-4.69
-7.59
-11.19
-15.22
-19.01
-21.73
-22.57
-21.09
-17.38
-12.02
-5.87
0.22
5.71
10.33
14.08
17.00
19.09
20.16
20.10
18.93
17.00
14.88
13.17
12.26
12.07
12.15
11.90
10.86
8.94
6.42
3.78
1.45
-0.29
-1.46
-2.26
-3.09
-4.44
-6.76
-10.23
-14.59
-19.10
-22.70
-24.37
-23.61
-20.58
-16.01
-10.87
-5.92
-1.52
2.36
5.92
9.15
11.79
13.26
13.05
10.95
7.34
3.13
-0.55
-2.73
-3.07
-2.06
-0.81
-0.66
-2.57
-6.68
-12.24
-17.86
-21.96
-23.16
-20.74
-14.83
-6.69
1.18
5.47
2.87
-8.71
-28.96
-54.82
-81.06
-102.04
-113.58
-114.32
-105.83
-91.43
-74.51
-57.08
-39.45
-20.84
-0.66
20.66
41.55
60.08
74.84
85.62
93.09
98.02
100.53
99.99
95.66
87.52
76.80
65.61
56.15
49.70
46.26
44.80
44.00
42.85
40.90
38.17
34.82
30.96
26.77
22.71
19.64
18.68
20.74
26.07
33.91
42.65
50.43
55.84
58.40
58.49
56.71
53.29
47.63
38.72
25.89
9.55
-8.57
-25.90
-39.98
-49.41
-54.19
-55.56
-55.31
-55.00
-55.53
-57.17
-59.84
-63.49
-68.36
-74.77
-82.84
-92.03
-101.01
-107.88
-110.72
-108.25
-100.25
-87.64
-72.09
-55.53
-39.62
-25.44
-13.55
-4.08
3.03
7.98
11.06
12.73
13.64
14.49
15.83
17.87
20.40
22.86
24.66
25.33
24.78
23.24
21.07
18.68
16.27
13.80
11.06
7.75
3.70
-1.03
-6.09
-10.86
-14.67
-16.98
-17.50
-16.34
-13.89
-10.71
-7.39
-4.42
-2.20
-0.96
-0.82
-1.75
-3.55
-5.88
-8.24
-10.13
-11.08
-10.84
-9.46
-7.36
-5.16
-3.47
-2.62
-2.58
-2.96
-3.27
-3.17
-2.65
-1.96
-1.51
-1.67
-2.68
-4.54
-7.14
-10.11
-12.90
-14.77
-15.03
-13.23
-9.38
-3.99
2.07
7.80
12.38
15.31
16.43
15.87
13.98
11.24
8.18
5.35
3.14
1.72
1.00
0.77
0.73
0.71
0.73
0.98
1.62
2.74
4.21
5.69
6.77
7.08
6.47
4.98
2.86
0.55
-1.37
-2.20
-1.27
1.86
7.19
14.22
22.10
29.86
36.71
42.17
46.03
48.29
49.05
48.50
46.95
44.81
42.48
40.17
37.74
34.84
31.10
26.32
20.66
14.53
8.47
3.01
-1.55
-5.14
-7.96
-10.48
-13.25
-16.74
-21.11
-25.97
-30.52
-33.73
-34.75
-33.20
-29.32
-23.85
-17.75
-12.01
-7.41
-4.45
-3.28
-3.63
-4.87
-6.19
-6.84
-6.45
-5.13
-3.42
-1.96
-1.22
-1.31
-2.02
-3.02
-4.02
-4.92
-5.70
-6.41
-7.07
-7.73
-8.47
-9.44
-10.67
-12.07
-13.35
-14.06
-13.77
-12.13
-9.06
-4.65
0.82
6.92
13.13
18.85
23.57
26.90
28.74
29.32
29.05
28.30
27.29
26.04
24.43
22.34
19.79
16.88
13.83
10.79
7.89
5.19
2.68
0.28
-2.23
-5.06
-8.42
-12.26
-16.26
-19.82
-22.25
-23.00
-21.86
-18.94
-14.65
-9.49
-3.99
1.37
6.19
10.13
12.96
14.61
15.15
14.78
13.77
12.38
10.80
9.15
7.45
5.64
3.66
1.43
-1.04
-3.72
-6.53
-9.34
-12.04
-14.52
-16.73
-18.73
-20.66
-22.73
-25.08
-27.71
-30.35
-32.49
-33.55
-33.04
-30.75
-26.80
-21.62
-15.80
-9.91
-4.40
0.44
4.46
7.61
9.91
11.40
12.17
12.38
12.17
11.71
11.18
10.73
10.58
10.87
11.67
12.86
14.20
15.42
16.34
16.98
17.46
17.95
18.49
18.91
19.01
18.61
17.66
16.20
14.29
11.97
9.31
6.58
4.27
2.97
3.16
4.96
8.05
11.76
15.36
18.32
20.36
21.47
21.74
21.27
20.19
18.68
17.01
15.46
14.17
13.14
12.20
11.19
10.02
8.78
7.58
6.45
5.31
4.01
2.39
0.42
-1.82
-4.15
-6.49
-8.78
-11.06
-13.40
-15.82
-18.36
-20.97
-23.54
-25.85
-27.60
-28.42
-28.02
-26.28
-23.33
-19.54
-15.43
-11.53
-8.26
-5.83
-4.23
-3.31
-2.87
-2.73
-2.79
-2.97
-3.14
-3.16
-2.85
-2.15
-1.15
-0.14
0.51
0.50
-0.23
-1.48
-2.81
-3.77
-4.08
-3.69
-2.74
-1.55
-0.41
0.43
0.80
0.61
-0.20
-1.53
-3.13
-4.63
-5.56
-5.52
-4.31
-1.96
1.25
4.93
8.64
12.03
14.82
16.83
17.94
18.10
17.37
15.91
13.97
11.84
9.81
8.10
6.81
5.98
5.52
5.26
5.03
4.62
3.94
2.96
1.75
0.39
-1.06
-2.57
-4.14
-5.79
-7.55
-9.44
-11.53
-13.82
-16.19
-18.34
-19.81
-20.11
-18.94
-16.33
-12.65
-8.51
-4.48
-1.00
1.73
3.70
4.98
5.72
6.03
6.08
6.05
6.09
6.26
6.53
6.75
6.78
6.48
5.78
4.75
3.50
2.24
1.16
0.41
-0.03
-0.30
-0.67
-1.40
-2.53
-3.94
-5.35
-6.48
-7.26
-7.81
-8.35
-9.00
-9.65
-9.96
-9.54
-8.12
-5.72
-2.59
0.91
4.41
7.70
10.59
12.91
14.43
14.95
14.39
12.83
10.60
8.15
5.96
4.39
3.56
3.30
3.14
2.52
0.95
-1.77
-5.50
-9.74
-13.96
-17.73
-20.90
-23.63
-26.29
-29.30
-33.02
-37.61
-43.01
-48.88
-54.69
-59.82
-63.73
-66.03
-66.57
-65.36
-62.53
-58.25
-52.79
-46.47
-39.74
-33.06
-26.89
-21.54
-17.20
-13.86
-11.44
-9.78
-8.72
-8.15
-8.03
-8.32
-8.93
-9.66
-10.17
-10.01
-8.78
-6.25
-2.44
2.31
7.39
12.08
15.77
18.19
19.50
20.28
21.38
23.57
27.31
32.60
38.97
45.65
51.80
56.80
60.40
62.75
64.25
65.42
66.55
67.63
68.35
68.42
67.83
66.91
66.15
65.84
65.72
64.96
62.44
57.22
49.00
38.30
26.36
14.85
5.44
-0.60
-2.77
-1.43
2.21
6.36
9.23
9.50
6.77
1.55
-4.95
-11.28
-16.20
-18.95
-19.39
-17.93
-15.38
-12.78
-11.18
-11.53
-14.45
-20.21
-28.54
-38.73
-49.61
-59.84
-68.20
-73.96
-77.08
-78.09
-77.85
-77.04
-75.79
-73.58
-69.52
-62.84
-53.37
-41.85
-29.76
-18.88
-10.74
-6.09
-4.82
-6.09
-8.68
-11.34
-13.02
-12.95
-10.67
-6.02
0.70
8.75
17.02
24.20
29.24
31.54
31.21
28.92
25.64
22.35
19.70
18.01
17.25
17.24
17.78
18.67
19.75
20.81
21.62
21.86
21.25
19.58
16.83
13.20
9.22
5.65
3.37
3.08
5.10
9.16
14.44
19.81
24.12
26.52
26.64
24.61
20.91
16.18
11.00
5.82
0.84
-3.80
-8.03
-11.75
-14.84
-17.24
-19.01
-20.31
-21.29
-22.03
-22.45
-22.43
-21.96
-21.21
-20.53
-20.26
-20.59
-21.51
-22.87
-24.47
-26.17
-27.89
-29.41
-30.45
-30.55
-29.36
-26.67
-22.61
-17.56
-12.06
-6.60
-1.53
2.89
6.52
9.25
11.07
12.04
12.41
12.46
12.51
12.80
13.40
14.26
15.23
16.12
16.78
17.13
17.15
16.91
16.53
16.11
15.69
15.19
14.43
13.18
11.28
8.64
5.28
1.28
-3.22
-8.02
-12.76
-16.87
-19.75
-20.87
-20.03
-17.44
-13.59
-9.14
-4.62
-0.39
3.36
6.53
8.98
10.60
11.25
11.00
10.01
8.61
7.09
5.70
4.52
3.57
2.77
2.00
1.13
0.11
-1.10
-2.46
-3.86
-5.14
-6.21
-7.06
-7.81
-8.64
-9.70
-11.06
-12.63
-14.29
-15.94
-17.55
-19.04
-20.19
-20.59
-19.71
-17.22
-13.13
-7.94
-2.40
2.79
7.24
10.88
13.86
16.26
17.97
18.79
18.57
17.46
15.85
14.20
12.81
11.76
10.91
10.10
9.27
8.48
7.81
7.23
6.59
5.68
4.33
2.49
0.24
-2.22
-4.74
-7.18
-9.49
-11.66
-13.75
-15.88
-18.17
-20.69
-23.37
-25.95
-28.09
-29.38
-29.52
-28.40
-26.03
-22.66
-18.60
-14.20
-9.70
-5.18
-0.56
4.33
9.57
15.03
20.34
25.00
28.55
30.84
31.96
32.20
31.85
31.03
29.68
27.66
24.96
21.71
18.20
14.68
11.30
8.05
4.86
1.74
-1.11
-3.38
-4.87
-5.68
-6.19
-7.00
-8.60
-11.18
-14.48
-17.87
-20.53
-21.70
-20.81
-17.64
-12.30
-5.20
3.05
11.80
20.50
28.69
36.10
42.50
47.80
52.02
55.42
58.43
61.55
65.05
68.87
72.51
75.21
76.22
75.04
71.56
66.09
59.23
51.73
44.33
37.58
31.74
26.66
21.81
16.46
9.87
1.59
-8.35
-19.29
-30.10
-39.56
-46.69
-51.12
-53.06
-53.06
-51.64
-49.01
-45.10
-39.76
-33.13
-25.74
-18.39
-11.91
-6.77
-3.05
-0.43
1.53
3.18
4.70
6.05
7.10
7.74
7.95
7.72
7.13
6.17
4.79
3.00
0.87
-1.34
-3.25
-4.47
-4.77
-4.28
-3.42
-2.82
-3.07
-4.54
-7.22
-10.78
-14.63
-18.05
-20.34
-21.00
-19.82
-16.90
-12.76
-8.15
-3.90
-0.67
1.24
1.90
1.64
0.81
-0.37
-1.88
-3.77
-6.05
-8.63
-11.23
-13.56
-15.43
-16.80
-17.74
-18.34
-18.64
-18.64
-18.30
-17.65
-16.91
-16.35
-16.25
-16.77
-17.81
-19.09
-20.12
-20.44
-19.75
-18.02
-15.54
-12.83
-10.48
-8.96
-8.46
-8.79
-9.41
-9.66
-8.94
-7.06
-4.22
-1.05
1.76
3.64
4.36
4.04
3.01
1.65
0.30
-0.78
-1.44
-1.51
-0.93
0.33
2.16
4.28
6.40
8.17
9.39
10.01
10.14
9.95
9.66
9.34
8.95
8.37
7.40
5.90
3.80
1.12
-2.05
-5.56
-9.12
-12.32
-14.56
-15.23
-13.89
-10.51
-5.67
-0.50
3.66
5.59
4.59
0.70
-5.49
-13.07
-21.11
-28.83
-35.70
-41.45
-46.03
-49.68
-52.91
-56.36
-60.53
-65.49
-70.73
-75.25
-77.99
-78.20
-75.88
-71.76
-67.07
-63.05
-60.44
-59.27
-58.82
-58.05
-55.96
-51.92
-45.75
-37.63
-27.82
-16.48
-3.72
10.33
25.34
40.67
55.42
68.58
79.22
86.72
90.88
91.88
90.17
86.33
80.94
74.54
67.68
60.94
55.01
50.50
47.77
46.66
46.54
46.51
45.76
43.97
41.33
38.45
35.99
34.32
33.33
32.60
31.54
29.65
26.62
22.36
16.95
10.66
3.96
-2.50
-7.99
-11.86
-13.80
-13.84
-12.44
-10.27
-8.06
-6.37
-5.52
-5.53
-6.17
-7.09
-7.81
-7.88
-6.91
-4.76
-1.52
2.39
6.35
9.63
11.71
12.41
11.86
10.53
8.96
7.60
6.71
6.44
6.89
8.15
10.28
13.14
16.32
19.18
21.08
21.73
21.35
20.64
20.49
21.50
23.73
26.69
29.51
31.40
31.96
31.15
29.23
26.49
23.12
19.29
15.12
10.83
6.68
2.84
-0.69
-4.06
-7.55
-11.36
-15.53
-19.86
-24.01
-27.55
-30.09
-31.45
-31.69
-31.11
-30.21
-29.50
-29.33
-29.77
-30.64
-31.55
-32.18
-32.28
-31.80
-30.71
-28.95
-26.37
-22.69
-17.67
-11.16
-3.24
5.71
15.06
24.00
31.73
37.64
41.50
43.50
44.13
43.95
43.40
42.70
41.88
40.99
40.18
39.72
39.88
40.83
42.48
44.55
46.59
48.06
48.44
47.26
44.34
39.83
34.39
28.97
24.51
21.62
20.27
19.96
19.88
19.34
17.98
15.79
13.03
9.95
6.80
3.73
0.87
-1.64
-3.70
-5.33
-6.63
-7.81
-9.06
-10.39
-11.68
-12.58
-12.70
-11.77
-9.72
-6.85
-3.62
-0.59
1.85
3.54
4.57
5.09
5.16
4.68
3.44
1.23
-1.99
-6.00
-10.36
-14.51
-17.86
-19.96
-20.60
-19.81
-17.81
-14.99
-11.69
-8.27
-5.02
-2.22
-0.18
0.83
0.64
-0.79
-3.32
-6.69
-10.63
-14.91
-19.27
-23.17
-25.70
-25.59
-21.64
-13.25
-0.88
13.88
28.70
41.19
49.48
52.56
50.26
42.96
31.36
16.37
-0.86
-18.86
-35.95
-50.48
-61.21
-67.51
-69.54
-68.15
-64.57
-60.14
-55.86
-52.18
-49.09
-46.30
-43.55
-40.82
-38.31
-36.23
-34.69
-33.48
-32.27
-30.73
-28.70
-26.34
-24.01
-22.20
-21.26
-21.32
-22.24
-23.65
-25.12
-26.32
-27.12
-27.57
-27.88
-28.23
-28.64
-29.02
-29.20
-29.06
-28.50
-27.45
-25.81
-23.48
-20.36
-16.54
-12.25
-7.87
-3.76
-0.17
2.78
5.03
6.48
6.97
6.50
5.22
3.56
2.08
1.21
1.03
1.29
1.51
1.29
0.47
-0.80
-2.17
-3.30
-4.05
-4.58
-5.25
-6.56
-8.85
-12.18
-16.20
-20.15
-23.07
-24.05
-22.44
-18.10
-11.48
-3.52
4.59
11.73
17.18
20.70
22.54
23.22
23.19
22.72
21.80
20.27
17.94
14.79
11.00
6.96
3.15
0.05
-2.05
-3.10
-3.30
-2.97
-2.34
-1.48
-0.25
1.48
3.59
5.68
7.08
7.20
5.75
2.89
-0.82
-4.69
-8.14
-10.83
-12.57
-13.30
-12.99
-11.64
-9.39
-6.58
-3.71
-1.21
0.64
1.89
2.88
4.15
6.27
9.69
14.48
20.30
26.37
31.59
34.92
35.63
33.63
29.49
24.28
19.26
15.48
13.47
13.17
14.06
15.44
16.65
17.20
16.75
15.11
12.14
7.94
2.85
-2.46
-7.16
-10.54
-12.32
-12.81
-12.84
-13.35
-14.97
-17.66
-20.75
-23.25
-24.32
-23.61
-21.42
-18.54
-15.83
-13.91
-12.94
-12.68
-12.63
-12.32
-11.47
-9.99
-8.07
-6.03
-4.39
-3.68
-4.23
-5.93
-8.10
-9.43
-8.49
-4.27
3.14
12.20
20.21
24.12
21.62
12.11
-3.04
-20.99
-38.31
-52.11
-60.60
-63.25
-60.50
-53.37
-43.27
-31.95
-21.41
-13.80
-10.99
-14.13
-23.25
-37.15
-53.63
-69.86
-82.95
-90.46
-90.91
-84.07
-71.10
-54.19
-35.89
-18.48
-3.31
9.23
19.43
27.67
34.01
38.03
39.18
37.24
32.79
27.35
23.06
21.97
25.31
32.92
43.16
53.57
61.93
67.22
70.15
72.76
77.39
85.57
97.25
110.84
123.81
133.66
138.45
137.28
130.37
119.13
106.23
95.23
89.63
91.34
99.29
109.17
114.79
110.71
94.90
69.96
42.24
19.26
6.73
6.82
17.97
36.14
56.47
74.55
87.15
92.32
89.45
79.19
63.29
44.06
23.70
3.84
-14.70
-31.68
-47.29
-61.83
-75.72
-89.36
-102.88
-115.88
-127.25
-135.37
-138.61
-136.02
-127.67
-114.81
-99.61
-84.49
-71.50
-61.80
-55.47
-51.71
-49.26
-46.83
-43.37
-38.14
-30.71
-21.07
-9.82
1.75
11.79
18.45
20.57
18.23
12.76
6.29
0.82
-2.41
-3.29
-2.63
-1.53
-0.95
-1.38
-2.93
-5.52
-9.08
-13.47
-18.34
-23.10
-27.04
-29.60
-30.73
-30.95
-31.06
-31.66
-32.71
-33.53
-33.12
-30.72
-26.27
-20.54
-14.72
-9.93
-6.78
-5.19
-4.58
-4.29
-3.81
-2.97
-1.86
-0.67
0.46
1.54
2.74
4.28
6.28
8.61
10.91
12.70
13.76
14.27
14.89
16.40
19.31
23.49
28.20
32.41
35.38
36.97
37.67
38.23
39.24
40.82
42.66
44.22
45.05
44.92
43.86
42.07
39.87
37.47
34.91
32.02
28.41
23.70
17.77
10.91
3.86
-2.44
-7.16
-9.93
-10.86
-10.47
-9.36
-7.96
-6.40
-4.61
-2.48
-0.09
2.23
4.00
4.69
3.91
1.46
-2.71
-8.43
-15.42
-23.15
-30.90
-37.74
-42.76
-45.35
-45.39
-43.33
-39.97
-36.21
-32.70
-29.73
-27.30
-25.32
-23.69
-22.36
-21.28
-20.28
-19.18
-17.91
-16.59
-15.52
-15.06
-15.38
-16.35
-17.58
-18.58
-19.01
-18.88
-18.42
-18.05
-18.21
-19.19
-21.11
-23.79
-26.75
-29.22
-30.27
-29.20
-25.75
-20.36
-13.95
-7.63
-2.31
1.63
4.34
6.26
7.86
9.34
10.63
11.53
11.84
11.63
11.11
10.64
10.53
10.93
11.88
13.24
14.76
16.14
16.98
16.91
15.68
13.27
9.92
6.10
2.29
-1.19
-4.25
-7.01
-9.69
-12.43
-15.22
-17.94
-20.30
-21.97
-22.58
-21.84
-19.67
-16.21
-11.83
-6.92
-1.84
3.21
8.06
12.48
16.21
18.96
20.57
21.11
20.90
20.35
19.87
19.69
19.82
20.17
20.53
20.71
20.53
19.88
18.66
16.89
14.67
12.12
9.40
6.59
3.70
0.64
-2.73
-6.49
-10.63
-14.97
-19.20
-22.90
-25.73
-27.37
-27.68
-26.66
-24.46
-21.36
-17.82
-14.27
-11.10
-8.53
-6.57
-5.16
-4.24
-3.79
-3.87
-4.46
-5.41
-6.34
-6.81
-6.47
-5.24
-3.40
-1.45
0.09
0.95
1.20
1.25
1.51
2.18
3.03
3.47
2.83
0.70
-2.78
-6.90
-10.66
-13.16
-14.08
-13.69
-12.75
-12.09
-12.22
-13.08
-14.13
-14.59
-13.83
-11.76
-8.80
-5.88
-3.96
-3.65
-4.93
-7.13
-9.11
-9.73
-8.27
-4.75
-0.09
3.97
5.25
1.66
-8.03
-23.45
-42.18
-59.99
-71.96
-74.22
-65.56
-48.24
-27.32
-8.69
3.17
6.84
4.08
-1.60
-6.95
-10.51
-12.76
-15.35
-19.57
-25.58
-32.31
-38.18
-41.84
-42.59
-40.26
-34.93
-26.77
-16.18
-4.03
8.30
19.30
27.85
33.67
37.27
39.55
41.30
42.88
44.29
45.43
46.33
47.15
47.98
48.62
48.55
47.22
44.32
40.13
35.38
31.12
28.29
27.58
29.17
32.74
37.48
42.23
45.87
47.67
47.58
46.13
44.03
41.63
38.60
34.17
27.47
18.18
6.76
-5.64
-17.61
-27.84
-35.28
-39.09
-38.42
-32.65
-21.71
-6.59
10.62
27.24
40.98
50.83
57.42
62.40
67.24
72.23
76.12
76.85
72.84
64.05
52.15
39.63
28.54
19.64
12.32
5.41
-1.94
-9.62
-16.76
-22.34
-25.82
-27.45
-28.03
-28.49
-29.39
-30.79
-32.28
-33.36
-33.63
-33.01
-31.77
-30.42
-29.55
-29.62
-30.70
-32.53
-34.50
-36.02
-36.73
-36.58
-35.82
-34.78
-33.58
-32.11
-30.14
-27.50
-24.24
-20.66
-17.10
-13.88
-11.12
-8.83
-7.04
-5.76
-4.97
-4.55
-4.24
-3.73
-2.83
-1.63
-0.48
0.14
-0.03
-0.92
-2.16
-3.27
-3.98
-4.35
-4.70
-5.40
-6.64
-8.27
-9.92
-11.16
-11.64
-11.26
-10.07
-8.14
-5.60
-2.52
0.92
4.39
7.45
9.65
10.76
10.80
10.13
9.18
8.32
7.71
7.31
7.00
6.71
6.46
6.32
6.30
6.35
6.34
6.17
5.81
5.29
4.64
3.83
2.72
1.24
-0.61
-2.58
-4.30
-5.39
-5.59
-4.88
-3.42
-1.47
0.73
3.05
5.41
7.81
10.14
12.31
14.14
15.44
16.06
15.85
14.80
13.02
10.86
8.77
7.20
6.43
6.43
6.97
7.71
8.30
8.57
8.44
7.89
6.93
5.58
3.90
2.00
-0.03
-2.12
-4.21
-6.18
-7.89
-9.05
-9.43
-8.90
-7.49
-5.43
-2.99
-0.47
1.90
3.90
5.39
6.22
6.35
5.81
4.76
3.50
2.39
1.75
1.72
2.17
2.73
2.94
2.56
1.62
0.48
-0.42
-0.81
-0.77
-0.67
-1.04
-2.22
-4.22
-6.69
-9.18
-11.22
-12.59
-13.21
-13.11
-12.31
-10.74
-8.30
-5.05
-1.23
2.69
6.24
9.15
11.38
13.02
14.13
14.59
14.14
12.70
10.51
8.16
6.43
5.81
6.35
7.60
8.87
9.69
9.93
9.88
9.94
10.31
10.85
11.19
10.99
10.21
9.31
9.14
10.67
14.67
21.42
30.71
41.98
54.47
67.29
79.39
89.46
96.12
98.25
95.47
88.37
78.44
67.49
57.01
47.65
39.36
31.72
24.49
17.88
12.43
8.52
6.08
4.47
2.74
0.09
-3.86
-8.95
-14.72
-20.61
-26.25
-31.37
-35.81
-39.33
-41.64
-42.43
-41.61
-39.39
-36.27
-32.99
-30.16
-28.11
-26.82
-25.99
-25.32
-24.74
-24.35
-24.47
-25.35
-27.00
-29.22
-31.65
-33.92
-35.78
-37.10
-37.79
-37.76
-36.91
-35.04
-31.98
-27.56
-21.73
-14.69
-7.00
0.43
6.45
9.99
10.49
8.08
3.66
-1.36
-5.57
-7.92
-8.13
-6.54
-3.90
-0.94
1.91
4.61
7.32
10.05
12.61
14.51
15.30
14.82
13.32
11.31
9.26
7.42
5.63
3.63
1.23
-1.43
-3.88
-5.56
-6.07
-5.46
-4.23
-3.17
-3.03
-4.18
-6.44
-9.18
-11.63
-13.21
-13.83
-13.77
-13.41
-12.89
-12.03
-10.45
-7.90
-4.58
-1.06
1.85
3.49
3.50
1.86
-1.25
-5.58
-10.81
-16.50
-21.92
-26.25
-28.79
-29.27
-28.00
-25.74
-23.37
-21.48
-20.13
-18.88
-17.06
-14.09
-9.86
-4.70
0.70
5.53
9.23
11.48
12.30
11.77
9.90
6.59
1.76
-4.38
-11.14
-17.39
-21.90
-23.78
-22.79
-19.33
-14.08
-7.63
-0.27
7.82
16.22
24.04
29.96
32.78
31.84
27.50
20.97
13.89
7.71
3.34
1.03
0.57
1.68
4.04
7.35
11.13
14.66
17.21
18.25
17.70
15.93
13.57
11.08
8.56
5.73
2.29
-1.70
-5.62
-8.51
-9.43
-7.95
-4.41
0.23
4.75
8.08
9.63
9.34
7.66
5.31
3.11
1.77
1.71
2.92
4.98
7.09
8.39
8.29
6.67
4.05
1.38
-0.28
-0.07
2.30
6.59
11.95
17.21
21.11
22.63
21.32
17.49
12.25
7.13
3.69
2.94
4.96
8.95
13.44
16.90
18.17
16.97
13.89
10.39
8.27
8.99
12.95
18.94
24.32
25.85
21.09
9.59
-6.61
-23.53
-36.73
-42.88
-40.87
-31.87
-18.52
-3.76
10.05
21.49
29.89
34.93
36.55
34.97
30.97
25.82
21.08
18.02
17.16
18.19
20.07
21.57
21.62
19.62
15.56
10.12
4.53
0.26
-1.43
-0.21
3.04
6.32
7.27
4.22
-3.07
-13.26
-24.05
-33.15
-39.12
-41.79
-41.99
-41.05
-40.15
-39.96
-40.55
-41.55
-42.41
-42.69
-42.22
-41.14
-39.73
-38.30
-37.05
-35.98
-34.91
-33.49
-31.12
-27.06
-20.46
-10.67
2.43
18.09
34.68
49.82
60.93
65.91
63.68
54.57
40.34
23.75
7.96
-4.26
-11.19
-12.57
-9.53
-4.21
0.98
4.04
3.89
0.59
-4.94
-11.27
-16.88
-20.56
-21.49
-19.26
-13.96
-6.12
3.22
12.58
20.35
25.16
26.33
24.23
20.22
16.22
13.98
14.35
16.81
19.77
21.23
19.77
15.18
8.51
1.48
-4.50
-8.94
-12.38
-15.72
-19.57
-23.70
-27.25
-29.44
-30.19
-30.36
-31.33
-34.21
-39.13
-45.04
-50.27
-53.17
-52.85
-49.15
-42.32
-32.54
-19.84
-4.29
13.47
32.12
50.01
65.80
78.92
89.30
96.68
99.92
97.07
86.33
67.48
42.80
16.72
-5.67
-20.59
-26.88
-26.02
-21.02
-14.99
-9.97
-6.74
-5.35
-5.60
-7.39
-10.59
-14.77
-19.12
-22.59
-24.28
-23.61
-20.68
-16.11
-11.04
-6.76
-4.31
-4.04
-5.44
-7.20
-7.79
-6.27
-2.82
1.13
3.51
2.60
-2.17
-9.84
-18.45
-25.93
-30.97
-33.47
-34.34
-34.89
-36.10
-38.30
-41.09
-43.68
-45.24
-45.24
-43.61
-40.90
-38.14
-36.59
-37.45
-41.28
-47.58
-54.56
-59.36
-58.93
-51.13
-35.79
-15.12
6.62
24.27
33.22
30.69
16.39
-7.61
-37.58
-69.14
-98.23
-121.80
-137.95
-145.93
-145.81
-138.30
-124.61
-106.44
-85.94
-65.44
-47.04
-32.07
-20.74
-12.24
-5.01
2.76
12.69
25.98
43.36
65.09
90.83
119.63
149.88
179.49
206.24
228.24
244.35
254.45
259.45
260.95
260.66
259.79
258.55
256.08
250.85
241.43
227.17
208.63
187.25
164.75
142.19
119.56
95.75
69.08
38.18
2.85
-35.36
-73.20
-106.41
-131.09
-145.12
-149.11
-146.25
-141.00
-137.26
-136.76
-138.66
-140.45
-139.67
-135.35
-128.51
-121.40
-116.17
-113.65
-112.92
-111.79
-107.80
-99.35
-86.66
-71.85
-58.26
-48.96
-45.37
-46.53
-49.70
-51.97
-51.83
-49.87
-48.05
-48.16
-50.51
-53.71
-55.45
-53.53
-46.41
-32.93
-11.98
17.37
54.83
98.05
142.38
181.96
211.54
228.15
231.57
223.60
206.92
183.99
156.90
127.85
99.48
74.82
56.47
45.81
42.31
43.86
47.68
51.37
53.50
53.37
50.48
43.95
32.87
17.01
-2.38
-22.52
-40.24
-53.45
-62.09
-67.61
-71.54
-73.78
-72.30
-64.41
-48.99
-28.14
-7.11
7.84
12.42
6.36
-6.43
-19.81
-28.39
-29.91
-25.87
-20.17
-16.83
-17.88
-22.81
-29.34
-35.08
-38.99
-41.71
-44.93
-49.98
-57.02
-65.00
-72.41
-78.25
-82.57
-86.21
-90.00
-94.05
-97.50
-99.09
-97.89
-94.01
-88.63
-83.43
-79.89
-78.49
-78.51
-78.30
-76.07
-70.60
-61.85
-51.13
-40.66
-32.84
-29.40
-30.74
-35.79
-42.37
-48.06
-50.93
-50.19
-46.21
-40.30
-34.18
-29.51
-27.42
-28.17
-30.99
-34.11
-35.26
-32.30
-23.99
-10.45
6.80
25.31
42.61
56.94
67.83
76.06
83.19
90.70
99.16
107.87
114.95
118.04
115.26
105.97
91.18
73.20
55.04
39.49
28.52
22.79
21.75
23.87
27.13
29.67
30.14
28.01
23.43
17.10
9.97
3.18
-2.02
-4.33
-2.68
3.38
13.28
25.43
37.55
47.27
52.88
53.65
49.80
42.20
31.94
20.17
7.93
-3.73
-13.79
-21.40
-26.00
-27.55
-26.53
-23.84
-20.63
-17.99
-16.70
-17.09
-19.01
-21.99
-25.46
-28.82
-31.64
-33.51
-34.14
-33.22
-30.67
-26.65
-21.60
-16.14
-10.92
-6.43
-2.91
-0.49
0.89
1.31
1.08
0.65
0.49
0.92
1.87
2.89
3.34
2.75
1.01
-1.58
-4.49
-7.23
-9.52
-11.31
-12.66
-13.61
-14.20
-14.53
-14.91
-15.75
-17.36
-19.69
-22.26
-24.24
-24.78
-23.36
-20.00
-15.18
-9.65
-4.12
0.88
5.02
8.06
9.86
10.34
9.55
7.67
5.04
2.03
-1.04
-3.92
-6.45
-8.53
-10.09
-11.12
-11.68
-11.95
-12.13
-12.39
-12.66
-12.54
-11.33
-8.35
-3.32
3.31
10.20
15.61
18.04
16.83
12.47
6.23
-0.45
-6.59
-11.85
-16.31
-20.05
-22.86
-24.29
-24.04
-22.21
-19.39
-16.49
-14.32
-13.36
-13.64
-14.96
-17.00
-19.48
-22.18
-24.88
-27.37
-29.37
-30.66
-31.04
-30.40
-28.67
-25.68
-20.94
-13.46
-2.14
13.74
33.63
55.31
75.17
89.31
94.88
91.09
79.37
62.58
43.98
26.29
11.33
0.05
-7.23
-10.79
-11.35
-9.94
-7.45
-4.23
0.00
5.79
13.25
21.66
29.45
34.80
36.42
34.00
28.29
20.66
12.73
5.97
1.42
-0.59
-0.61
-0.13
-1.10
-5.19
-13.05
-23.84
-35.50
-45.56
-52.01
-53.79
-50.89
-44.05
-34.34
-23.03
-11.45
-1.04
6.92
11.62
13.01
11.81
9.20
6.47
4.58
3.99
4.60
5.87
7.04
7.30
6.17
3.62
0.16
-3.39
-6.23
-7.98
-8.82
-9.42
-10.62
-13.02
-16.87
-22.03
-27.95
-33.67
-37.73
-38.32
-33.64
-22.71
-5.98
14.48
35.57
54.20
68.23
76.97
80.91
81.06
78.21
72.80
65.09
55.67
45.63
36.42
29.31
24.80
22.35
20.46
17.19
10.95
1.19
-11.31
-24.63
-36.43
-44.81
-48.90
-48.89
-45.58
-39.74
-31.81
-21.93
-10.48
1.39
11.79
18.66
20.74
18.33
13.34
8.43
5.85
6.40
9.13
11.95
12.53
9.31
1.95
-8.55
-20.36
-31.27
-39.30
-43.21
-42.83
-39.10
-33.82
-29.00
-26.21
-26.09
-28.24
-31.51
-34.32
-35.17
-32.90
-26.97
-17.67
-6.03
6.39
18.21
28.75
38.39
48.27
59.43
71.65
82.77
89.11
86.81
73.80
51.21
23.38
-3.62
-24.33
-35.98
-39.17
-36.98
-33.08
-30.03
-28.69
-28.68
-29.40
-30.64
-32.40
-34.29
-35.06
-33.06
-27.04
-17.11
-4.90
7.10
16.68
22.87
26.20
28.25
30.69
34.32
38.62
41.67
41.00
34.52
21.72
4.26
-14.32
-29.68
-38.38
-39.19
-33.54
-24.88
-17.21
-13.55
-14.94
-20.36
-27.36
-33.11
-35.44
-33.52
-28.01
-20.58
-13.16
-7.03
-2.38
1.73
6.81
14.27
24.81
38.09
52.56
65.49
73.49
73.44
63.75
45.43
22.37
0.25
-15.30
-20.94
-16.78
-6.13
6.13
15.71
20.59
21.27
19.92
18.69
18.64
19.32
19.47
17.93
14.42
9.65
4.71
0.40
-3.25
-6.81
-10.76
-14.80
-17.79
-18.33
-15.75
-10.99
-6.52
-5.42
-9.89
-20.18
-34.23
-48.62
-59.96
-66.26
-67.48
-65.20
-61.57
-58.20
-55.59
-53.06
-49.27
-42.94
-33.45
-21.19
-7.51
5.57
16.04
22.51
24.57
22.92
19.07
14.86
11.98
11.47
13.37
16.59
19.03
18.09
11.44
-2.16
-22.30
-46.85
-72.24
-94.23
-108.74
-112.81
-105.37
-87.60
-62.87
-35.89
-11.59
6.27
15.89
17.68
13.68
6.72
-0.31
-4.85
-4.77
1.37
14.02
32.31
53.97
75.93
95.22
110.14
120.82
128.98
136.95
146.23
156.49
165.49
170.06
167.57
157.23
140.55
120.70
101.12
84.36
71.32
61.38
53.05
44.77
35.28
23.74
9.75
-6.57
-24.36
-41.94
-57.19
-68.04
-73.34
-73.08
-68.36
-60.79
-51.89
-42.74
-33.84
-25.30
-16.93
-8.44
0.62
10.69
22.06
34.49
47.01
57.82
64.65
65.43
59.10
46.44
30.33
15.15
5.64
5.24
14.98
33.07
55.46
77.01
92.73
98.59
91.95
72.01
40.24
0.73
-40.10
-74.72
-96.54
-101.95
-91.48
-69.34
-41.75
-14.94
6.53
20.13
25.09
21.84
11.72
-2.89
-18.59
-31.33
-37.67
-36.13
-28.31
-18.59
-12.64
-15.14
-27.61
-47.87
-71.05
-91.88
-106.97
-115.92
-120.75
-123.94
-126.49
-127.06
-122.73
-110.88
-91.08
-65.77
-39.37
-16.38
0.49
11.08
17.21
21.32
24.98
28.33
30.43
30.23
27.47
22.93
17.85
13.24
9.19
4.85
-1.09
-9.66
-20.95
-33.87
-46.44
-56.42
-62.11
-62.94
-59.60
-53.77
-47.50
-42.41
-39.18
-37.17
-34.70
-29.63
-20.24
-5.90
12.59
33.19
53.22
70.13
82.08
88.19
88.47
83.68
75.03
64.13
52.75
42.57
34.91
30.48
29.31
30.68
33.14
34.66
32.93
26.03
13.19
-4.71
-25.26
-45.42
-62.66
-75.81
-84.97
-90.62
-92.61
-89.74
-80.45
-63.96
-41.35
-15.61
9.40
30.42
45.86
55.84
61.40
63.39
61.91
56.49
46.82
33.47
17.93
2.29
-11.48
-22.08
-29.14
-33.23
-35.51
-37.26
-39.42
-42.37
-45.92
-49.59
-52.91
-55.57
-57.28
-57.44
-54.98
-48.52
-37.02
-20.48
-0.32
20.93
40.47
56.15
67.01
73.19
75.39
74.29
70.35
63.91
55.56
46.36
37.78
31.35
28.20
28.72
32.28
37.23
41.13
41.30
35.58
23.20
5.24
-15.60
-35.91
-52.85
-65.07
-72.79
-77.02
-78.46
-76.76
-70.76
-59.36
-42.64
-22.36
-1.52
16.68
30.01
37.76
40.72
40.53
38.92
37.22
36.26
36.45
37.81
40.00
42.24
43.46
42.48
38.29
30.32
18.50
3.35
-14.04
-32.10
-48.97
-62.99
-73.03
-78.88
-80.95
-79.88
-75.90
-68.68
-57.62
-42.54
-24.32
-4.89
13.31
28.27
38.98
45.51
48.55
48.80
46.65
42.35
36.30
29.28
22.32
16.35
11.83
8.76
6.87
5.91
5.78
6.39
7.57
9.15
11.11
13.71
17.38
22.04
26.72
29.58
28.61
22.70
12.40
-0.24
-12.78
-23.48
-32.01
-39.09
-45.32
-50.36
-52.73
-50.72
-43.53
-32.09
-18.72
-6.10
3.89
10.72
14.96
17.51
18.86
18.97
17.78
15.77
14.26
15.04
19.36
26.95
35.62
41.86
42.24
34.94
20.58
2.01
-17.04
-33.47
-45.82
-54.34
-60.13
-64.03
-65.86
-64.42
-58.18
-46.26
-29.08
-8.58
12.30
30.47
43.53
50.40
51.33
47.56
40.73
32.42
24.02
16.80
12.07
10.95
14.09
21.13
30.63
40.34
47.87
51.32
49.69
42.83
31.24
15.71
-2.75
-22.90
-43.20
-61.89
-76.99
-86.70
-89.62
-85.18
-73.89
-57.48
-38.58
-20.16
-4.72
6.41
13.15
16.43
17.44
17.14
15.97
14.17
12.15
10.80
11.36
15.05
22.62
34.10
48.53
64.02
77.72
86.43
87.24
78.69
61.48
38.55
14.28
-6.95
-22.18
-30.66
-33.60
-33.20
-31.44
-29.42
-27.27
-24.62
-21.03
-16.33
-10.60
-4.02
3.30
11.28
19.83
28.71
37.26
44.51
49.26
50.41
47.30
40.01
29.36
16.83
4.18
-6.87
-15.00
-19.56
-20.64
-19.13
-16.50
-14.46
-14.40
-17.00
-22.04
-28.62
-35.65
-42.32
-48.29
-53.60
-58.37
-62.52
-65.75
-67.66
-68.00
-66.84
-64.55
-61.41
-57.37
-51.75
-43.47
-31.56
-15.82
2.71
21.84
38.79
51.22
57.98
59.40
57.00
52.71
48.25
44.68
42.42
41.27
40.55
39.20
35.99
30.04
21.32
10.95
0.92
-6.74
-10.75
-11.18
-9.30
-7.03
-6.16
-7.88
-12.58
-19.94
-28.91
-37.96
-45.19
-48.74
-47.41
-41.08
-30.90
-19.00
-7.88
0.36
4.53
4.55
1.30
-3.73
-8.89
-12.90
-15.26
-16.56
-18.25
-22.05
-29.14
-39.39
-51.04
-61.25
-67.02
-66.23
-58.21
-43.72
-24.47
-2.41
20.60
43.00
63.51
81.07
94.98
105.08
111.73
115.83
118.44
120.57
122.80
125.20
127.25
128.06
126.67
122.44
115.28
105.74
94.59
82.39
69.17
54.43
37.63
18.93
-0.36
-17.88
-30.94
-37.65
-37.82
-32.96
-25.60
-18.12
-11.70
-6.18
-0.55
6.09
13.89
22.11
29.69
35.99
41.14
45.99
51.60
58.58
66.60
74.43
80.21
82.11
78.87
70.12
56.38
38.81
18.82
-2.00
-22.03
-39.65
-53.40
-62.38
-66.60
-67.03
-65.34
-63.18
-61.65
-61.00
-60.86
-60.90
-61.20
-62.44
-65.48
-70.79
-77.97
-85.72
-92.35
-96.51
-97.60
-95.98
-92.53
-88.08
-83.00
-77.13
-70.13
-61.81
-52.47
-42.83
-33.75
-25.94
-19.63
-14.73
-10.88
-7.73
-5.10
-2.97
-1.47
-0.74
-0.78
-1.38
-2.11
-2.44
-1.98
-0.66
1.21
3.14
4.62
5.53
6.06
6.60
7.45
8.59
9.69
10.29
10.08
9.05
7.48
5.82
4.40
3.40
2.77
2.38
2.11
1.90
1.82
1.98
2.51
3.44
4.71
6.14
7.49
8.62
9.57
10.52
11.68
13.17
14.87
16.50
17.77
18.53
18.88
19.07
19.39
20.00
20.94
22.12
23.45
24.93
26.55
28.21
29.68
30.64
30.82
30.09
28.54
26.45
24.11
21.81
19.64
17.56
15.45
13.27
11.19
9.49
8.55
8.55
9.38
10.58
11.58
12.01
11.87
11.65
12.01
13.45
15.92
18.72
20.86
21.44
20.19
17.51
14.34
11.69
10.40
10.85
13.14
17.04
21.85
26.27
28.39
26.22
18.51
5.47
-11.00
-27.92
-42.31
-52.35
-57.75
-59.57
-59.34
-58.25
-56.90
-55.25
-53.17
-50.68
-48.17
-46.17
-45.10
-45.04
-45.73
-46.72
-47.65
-48.56
-49.99
-52.70
-57.22
-63.35
-69.94
-75.16
-77.19
-74.87
-68.23
-58.27
-46.61
-34.76
-23.73
-13.93
-5.40
1.95
8.21
13.43
17.81
21.64
25.27
28.88
32.37
35.45
37.75
39.14
39.69
39.74
39.64
39.61
39.68
39.71
39.49
38.83
37.63
35.83
33.43
30.51
27.19
23.70
20.25
17.02
14.06
11.33
8.69
6.03
3.29
0.45
-2.44
-5.29
-7.98
-10.33
-12.18
-13.37
-13.87
-13.70
-12.99
-11.88
-10.53
-9.09
-7.67
-6.37
-5.27
-4.40
-3.71
-3.13
-2.55
-2.01
-1.57
-1.35
-1.44
-1.85
-2.44
-3.02
-3.42
-3.53
-3.46
-3.42
-3.69
-4.47
-5.76
-7.35
-8.88
-10.02
-10.54
-10.41
-9.69
-8.55
-7.15
-5.61
-4.07
-2.66
-1.47
-0.56
0.05
0.36
0.42
0.24
-0.11
-0.57
-1.07
-1.56
-2.02
-2.44
-2.84
-3.25
-3.72
-4.28
-5.00
-5.90
-6.99
-8.23
-9.53
-10.76
-11.75
-12.39
-12.59
-12.38
-11.90
-11.33
-10.84
-10.38
-9.72
-8.52
-6.59
-4.14
-1.81
-0.52
-0.95
-3.23
-6.69
-10.14
-12.40
-12.93
-12.08
-10.92
-10.80
-12.66
-16.85
-23.27
-31.72
-42.04
-53.78
-65.70
-75.60
-80.74
-79.00
-70.02
-55.57
-39.01
-23.73
-11.76
-3.15
3.37
9.03
14.01
17.40
18.55
18.36
19.82
26.86
42.08
64.76
90.41
112.37
124.72
124.95
114.92
99.64
84.71
73.85
67.82
65.10
63.52
61.75
59.87
58.83
59.47
61.63
64.04
64.85
62.62
57.04
49.10
40.66
33.55
28.90
26.70
26.10
26.03
25.81
25.49
25.72
27.28
30.49
34.98
39.80
43.77
46.09
46.64
46.01
45.29
45.59
47.58
51.24
55.88
60.43
63.80
65.08
63.57
58.74
50.27
38.17
23.01
6.05
-11.06
-26.69
-39.72
-49.78
-57.17
-62.44
-66.05
-68.26
-69.24
-69.20
-68.54
-67.67
-66.90
-66.19
-65.30
-63.89
-61.73
-58.89
-55.78
-53.13
-51.79
-52.46
-55.30
-59.78
-64.75
-68.84
-71.19
-71.82
-71.66
-71.95
-73.49
-76.07
-78.60
-79.64
-78.16
-74.01
-67.74
-60.14
-51.71
-42.51
-32.41
-21.58
-10.75
-1.10
6.29
10.84
12.82
13.08
12.66
12.41
12.78
13.87
15.53
17.50
19.45
21.03
22.02
22.34
22.21
21.99
22.04
22.56
23.43
24.32
24.85
24.74
23.95
22.62
21.01
19.43
18.20
17.52
17.46
17.87
18.37
18.51
17.92
16.51
14.47
12.20
10.08
8.35
6.97
5.76
4.49
3.07
1.53
0.04
-1.28
-2.36
-3.18
-3.67
-3.68
-2.99
-1.50
0.66
3.05
5.03
6.03
5.78
4.45
2.56
0.77
-0.49
-1.09
-1.20
-1.15
-1.13
-1.16
-1.08
-0.77
-0.23
0.37
0.81
0.94
0.74
0.26
-0.33
-0.97
-1.64
-2.36
-3.20
-4.19
-5.31
-6.47
-7.50
-8.23
-8.59
-8.69
-8.79
-9.21
-10.06
-11.20
-12.23
-12.71
-12.44
-11.51
-10.24
-8.93
-7.73
-6.67
-5.70
-4.85
-4.28
-4.14
-4.47
-5.11
-5.71
-5.94
-5.62
-4.79
-3.69
-2.66
-2.00
-1.91
-2.41
-3.39
-4.63
-5.91
-6.97
-7.66
-7.95
-7.91
-7.69
-7.54
-7.59
-7.88
-8.28
-8.50
-8.33
-7.62
-6.43
-5.01
-3.64
-2.51
-1.68
-1.04
-0.50
-0.06
0.24
0.29
0.07
-0.36
-0.87
-1.33
-1.66
-1.89
-2.02
-2.05
-1.95
-1.77
-1.57
-1.47
-1.62
-2.11
-2.90
-3.82
-4.65
-5.20
-5.39
-5.29
-5.09
-4.91
-4.80
-4.61
-4.11
-3.20
-1.97
-0.71
0.25
0.71
0.75
0.72
0.92
1.47
2.20
2.76
2.80
2.20
1.16
0.01
-0.88
-1.40
-1.63
-1.78
-2.07
-2.63
-3.50
-4.60
-5.83
-7.01
-7.88
-8.22
-7.88
-6.90
-5.56
-4.25
-3.33
-2.93
-2.91
-2.93
-2.62
-1.79
-0.50
0.99
2.35
3.33
3.82
3.90
3.71
3.39
2.99
2.53
2.01
1.47
1.06
0.91
1.10
1.59
2.14
2.48
2.32
1.49
-0.03
-2.02
-4.11
-5.87
-6.90
-7.05
-6.41
-5.32
-4.18
-3.27
-2.66
-2.16
-1.47
-0.40
1.05
2.59
3.86
4.55
4.60
4.24
3.81
3.62
3.74
3.91
3.79
3.13
1.96
0.62
-0.41
-0.81
-0.56
-0.03
0.25
-0.14
-1.34
-3.18
-5.32
-7.40
-9.17
-10.46
-11.10
-11.00
-10.06
-8.34
-6.07
-3.57
-1.16
0.98
2.85
4.57
6.27
8.04
9.78
11.28
12.32
12.72
12.44
11.59
10.40
9.11
7.98
7.11
6.52
6.11
5.71
5.15
4.34
3.36
2.41
1.74
1.52
1.69
2.04
2.21
1.90
1.01
-0.31
-1.72
-2.85
-3.43
-3.40
-2.88
-2.14
-1.43
-0.92
-0.71
-0.74
-0.93
-1.07
-0.95
-0.40
0.60
1.94
3.33
4.48
5.17
5.28
4.87
4.04
2.91
1.64
0.41
-0.53
-0.95
-0.78
-0.17
0.46
0.68
0.23
-0.86
-2.32
-3.76
-4.94
-5.79
-6.39
-6.86
-7.26
-7.56
-7.69
-7.54
-7.04
-6.15
-4.94
-3.51
-2.08
-0.85
0.01
0.46
0.58
0.63
0.88
1.57
2.83
4.50
6.22
7.52
7.99
7.54
6.40
5.06
4.04
3.63
3.73
4.04
4.17
3.92
3.31
2.46
1.56
0.64
-0.34
-1.40
-2.47
-3.40
-4.02
-4.24
-4.12
-3.79
-3.42
-3.08
-2.76
-2.31
-1.61
-0.56
0.85
2.56
4.41
6.15
7.45
8.04
7.84
7.01
5.91
4.89
4.19
3.78
3.48
3.03
2.33
1.44
0.58
-0.05
-0.41
-0.64
-0.98
-1.66
-2.74
-4.13
-5.62
-6.98
-8.00
-8.56
-8.64
-8.31
-7.72
-7.02
-6.41
-5.95
-5.67
-5.52
-5.38
-5.15
-4.81
-4.45
-4.23
-4.36
-4.93
-5.89
-7.04
-8.13
-9.00
-9.71
-10.51
-11.64
-13.15
-14.77
-15.97
-16.22
-15.14
-12.68
-9.04
-4.60
0.17
4.84
9.00
12.37
14.91
16.79
18.23
19.43
20.42
21.09
21.34
21.36
21.55
22.46
24.50
27.73
31.87
36.32
40.41
43.53
45.29
45.72
45.18
44.35
43.72
43.34
42.51
40.01
34.70
26.12
14.78
1.99
-10.82
-22.68
-33.20
-42.33
-49.95
-55.62
-58.98
-59.98
-59.22
-57.49
-55.33
-52.80
-49.80
-46.65
-44.49
-44.85
-48.65
-55.25
-62.24
-66.32
-64.98
-57.85
-47.08
-36.46
-29.66
-28.75
-33.57
-42.00
-51.06
-57.86
-60.52
-58.47
-52.44
-44.30
-36.44
-31.27
-30.50
-34.76
-43.41
-54.68
-66.16
-75.40
-80.37
-79.97
-74.18
-64.04
-51.41
-38.59
-27.69
-20.05
-15.89
-14.19
-13.26
-11.37
-7.37
-1.17
6.37
13.76
19.61
23.16
24.64
25.32
27.08
31.82
40.43
52.13
64.14
72.46
73.42
65.32
49.56
30.46
13.68
3.91
2.97
9.14
18.03
24.60
25.21
18.73
6.36
-9.48
-26.37
-42.64
-57.23
-69.18
-77.18
-79.72
-75.77
-65.59
-50.97
-34.64
-19.25
-6.36
3.86
12.13
19.13
24.82
28.34
28.45
24.36
16.28
5.57
-5.75
-15.56
-22.36
-25.52
-25.40
-23.05
-19.80
-16.83
-14.80
-13.75
-13.23
-12.51
-10.89
-7.80
-2.91
4.05
13.27
24.86
38.77
54.52
71.22
87.58
102.04
112.87
118.37
117.18
108.63
93.32
73.29
51.81
32.68
19.13
12.95
14.08
20.94
31.16
42.25
52.09
59.04
61.93
60.08
53.53
43.11
30.37
17.03
4.52
-6.37
-15.49
-23.04
-29.03
-33.25
-35.46
-35.66
-33.96
-30.19
-23.71
-13.80
-0.44
14.82
28.89
38.12
39.92
34.05
22.75
9.66
-1.85
-9.87
-14.24
-15.86
-15.72
-14.37
-11.98
-8.70
-4.88
-1.05
2.61
6.18
10.06
14.81
20.86
28.24
36.48
44.67
51.54
55.82
56.57
53.65
47.75
40.22
32.56
25.98
21.06
17.74
15.54
13.90
12.33
10.50
8.06
4.56
-0.51
-7.40
-15.83
-24.84
-32.99
-38.83
-41.45
-40.86
-37.80
-33.38
-28.48
-23.45
-18.02
-11.66
-4.08
4.48
13.16
20.71
25.96
28.37
28.25
26.80
25.75
26.82
31.17
38.97
49.30
60.23
69.21
73.72
71.98
63.60
49.92
33.70
18.20
6.01
-1.94
-6.56
-10.02
-14.67
-21.94
-31.89
-43.28
-54.16
-62.56
-66.90
-66.23
-60.30
-49.62
-35.44
-19.62
-4.31
8.60
17.99
23.79
26.90
28.86
31.21
34.92
40.09
45.90
51.11
54.54
55.54
54.15
50.81
46.04
40.12
33.11
25.12
16.56
8.33
1.60
-2.50
-3.35
-0.99
3.76
9.42
14.10
15.83
12.89
4.24
-10.18
-29.29
-51.01
-72.58
-91.09
-104.07
-109.95
-108.29
-99.76
-85.80
-68.26
-49.00
-29.65
-11.59
4.21
17.32
27.87
36.54
44.19
51.43
58.23
63.89
67.40
68.01
65.68
61.25
56.09
51.52
48.40
46.91
46.68
47.01
47.02
45.88
42.92
37.86
30.85
22.44
13.41
4.53
-3.57
-10.51
-16.09
-20.17
-22.57
-23.09
-21.58
-18.14
-13.27
-7.83
-2.92
0.43
1.56
0.39
-2.54
-6.26
-9.74
-12.23
-13.41
-13.34
-12.27
-10.52
-8.39
-6.22
-4.42
-3.38
-3.24
-3.64
-3.67
-2.20
1.56
7.40
14.09
19.86
23.30
24.03
22.81
21.00
19.66
19.11
18.98
18.72
18.10
17.27
16.39
15.25
13.22
9.60
4.27
-2.09
-8.32
-13.35
-16.88
-19.34
-21.58
-24.32
-27.82
-31.85
-35.98
-39.72
-42.60
-43.92
-42.65
-37.60
-27.96
-13.79
3.75
22.59
40.35
54.83
64.43
68.26
66.18
58.87
47.72
34.71
21.93
11.01
2.74
-2.94
-6.56
-8.64
-9.36
-8.64
-6.40
-2.99
0.74
3.68
4.77
3.38
-0.59
-6.58
-13.61
-20.45
-25.95
-29.26
-30.04
-28.45
-24.99
-20.24
-14.60
-8.24
-1.24
6.26
13.87
20.91
26.49
29.68
29.77
26.57
20.45
12.33
3.45
-4.97
-11.97
-16.94
-19.65
-20.16
-18.80
-16.26
-13.47
-11.50
-11.22
-13.00
-16.58
-21.24
-26.13
-30.55
-34.01
-36.14
-36.48
-34.62
-30.37
-24.04
-16.50
-8.75
-1.44
5.55
13.06
22.11
33.20
45.92
58.97
70.70
79.64
84.92
86.16
83.22
75.98
64.52
49.36
31.79
13.73
-2.70
-15.81
-24.77
-29.57
-30.76
-29.00
-24.97
-19.42
-13.39
-8.21
-5.18
-5.14
-8.03
-12.87
-18.14
-22.30
-24.22
-23.33
-19.44
-12.51
-2.67
9.67
23.48
36.93
47.60
53.04
51.58
42.97
28.60
11.20
-5.94
-19.85
-28.65
-31.87
-30.42
-26.10
-21.01
-16.97
-15.23
-16.32
-20.21
-26.42
-34.26
-42.93
-51.54
-59.14
-64.72
-67.39
-66.45
-61.58
-52.95
-41.20
-27.39
-12.80
1.25
13.69
23.82
31.42
36.70
40.00
41.57
41.45
39.43
35.36
29.54
22.91
17.01
13.63
14.13
18.95
27.21
36.88
45.23
49.58
48.02
39.99
26.35
9.24
-8.38
-23.58
-34.11
-39.02
-38.73
-34.70
-28.61
-21.59
-13.88
-5.03
5.44
17.38
29.72
40.78
48.95
53.33
53.99
51.69
47.38
41.80
35.42
28.66
22.06
16.38
12.27
9.98
9.02
8.29
6.39
2.25
-4.43
-12.91
-21.63
-28.74
-32.72
-32.85
-29.26
-22.91
-15.15
-7.53
-1.54
1.60
1.15
-2.91
-9.86
-18.29
-26.47
-32.86
-36.51
-37.32
-35.87
-33.17
-30.27
-27.95
-26.58
-26.05
-25.95
-25.73
-24.90
-23.07
-20.09
-15.93
-10.72
-4.76
1.48
7.33
12.10
15.25
16.71
16.89
16.65
16.90
18.28
20.90
24.31
27.79
30.58
32.10
31.90
29.58
24.74
17.11
6.90
-5.07
-17.28
-28.05
-36.01
-40.65
-42.19
-41.28
-38.42
-33.72
-27.09
-18.69
-9.31
-0.37
6.53
10.28
10.75
8.79
5.84
3.22
1.75
1.59
2.49
4.21
6.70
10.04
14.23
18.96
23.53
27.11
29.00
28.87
26.79
22.93
17.45
10.44
2.10
-7.00
-15.77
-23.04
-27.99
-30.66
-32.07
-33.73
-36.91
-41.94
-48.03
-53.60
-56.89
-56.58
-52.09
-43.57
-31.64
-17.21
-1.30
15.07
30.97
45.64
58.57
69.42
77.98
84.04
87.47
88.21
86.40
82.29
76.11
68.09
58.41
47.46
36.03
25.25
16.28
9.78
5.57
2.66
-0.21
-3.79
-7.93
-11.60
-13.57
-13.16
-10.63
-7.00
-3.43
-0.62
1.39
2.93
4.24
5.17
5.20
3.81
0.87
-3.18
-7.50
-11.18
-13.60
-14.56
-14.27
-13.19
-11.87
-10.79
-10.32
-10.70
-12.02
-14.25
-17.17
-20.40
-23.36
-25.39
