1515737168.00
64.000000
-0.00
-0.00
-0.00
-0.00
-0.00
-0.00
-0.00
-0.00
-0.00
-0.00
0.00
0.01
0.01
-0.00
-0.03
-0.05
-0.05
0.00
0.13
0.36
0.66
1.01
1.37
1.72
2.06
2.40
2.79
3.24
3.80
4.42
5.06
5.66
6.20
6.68
7.15
7.68
8.31
9.14
10.09
11.04
11.88
12.56
13.14
13.76
14.65
15.96
17.91
20.32
22.90
25.38
27.58
29.57
31.68
34.32
37.81
42.54
48.15
54.10
59.83
64.97
69.58
74.14
79.34
85.71
93.76
103.00
112.62
121.73
129.77
136.75
143.30
150.75
157.77
166.64
177.95
191.79
206.97
220.57
228.25
225.36
208.53
176.87
132.76
80.05
23.07
-34.94
-92.44
-149.16
-205.23
-260.37
-313.74
-363.87
-409.82
-450.88
-486.46
-515.67
-537.13
-549.09
-549.79
-538.15
-513.93
-478.34
-433.49
-381.99
-326.50
-269.25
-211.97
-155.93
-102.15
-51.49
-4.94
36.63
72.57
102.59
126.85
145.85
160.30
170.90
178.29
182.85
184.87
184.60
182.29
178.30
173.03
166.90
160.25
153.34
146.30
139.21
132.11
125.04
118.07
111.26
104.69
98.41
92.45
86.84
81.57
76.65
72.11
67.93
64.13
60.71
57.68
55.03
52.77
50.89
49.35
48.14
47.17
46.36
45.57
44.64
43.38
41.59
39.13
35.86
31.72
26.73
20.93
14.51
7.69
0.76
-5.98
-12.23
-17.73
-22.26
-25.70
-28.02
-29.21
-29.41
-28.73
-27.37
-25.45
-23.14
-20.50
-17.60
-14.43
-10.96
-7.17
-3.06
1.39
6.13
11.13
16.29
21.51
26.68
31.71
36.44
40.76
44.58
47.91
50.71
53.04
54.93
56.50
57.86
59.01
59.99
60.89
61.82
62.94
64.41
66.42
69.15
72.81
77.28
82.54
88.50
95.10
102.23
109.78
117.65
125.75
134.05
142.14
149.77
156.67
162.59
167.23
170.18
170.89
168.52
164.35
158.69
151.68
143.30
133.54
122.36
109.82
96.06
81.34
66.06
50.33
34.45
18.75
3.62
-10.58
-23.51
-34.91
-44.55
-52.25
-58.13
-62.28
-64.79
-65.73
-65.13
-63.00
-59.35
-54.18
-47.49
-39.47
-30.33
-20.29
-9.62
1.43
12.49
23.27
33.41
42.60
50.47
56.73
61.20
63.76
64.45
63.35
60.61
56.42
50.96
44.43
37.05
29.09
20.81
12.53
4.48
-3.11
-10.11
-16.48
-22.18
-27.18
-31.38
-34.70
-36.96
-38.07
-38.07
-37.11
-35.54
-33.69
-31.92
-30.41
-29.16
-28.02
-26.90
-25.81
-25.02
-25.04
-26.40
-29.49
-34.31
-40.50
-47.39
-54.40
-61.26
-68.19
-75.87
-85.04
-96.22
-109.30
-123.59
-138.14
-152.07
-165.09
-177.48
-190.03
-203.55
-218.75
-236.11
-255.92
-278.10
-301.70
-324.69
-343.81
-355.69
-358.04
-350.98
-337.23
-320.99
-306.12
-294.34
-284.86
-275.17
-262.87
-247.08
-228.74
-209.81
-191.74
-174.73
-157.63
-139.24
-119.42
-99.84
-83.57
-73.57
-71.40
-76.21
-85.35
-95.40
-103.79
-109.41
-112.45
-113.52
-112.46
-108.43
-100.21
-87.46
-71.29
-54.16
-38.86
-27.21
-19.54
-14.75
-11.46
-8.87
-7.35
-7.91
-11.39
-17.83
-26.07
-34.43
-41.05
-44.47
-43.46
-36.98
-24.28
-5.23
19.11
46.65
74.54
100.18
121.59
137.68
147.97
152.34
151.11
145.11
135.90
125.46
115.68
107.74
102.02
98.59
97.69
100.08
106.53
117.11
130.49
144.19
155.56
162.91
166.15
166.32
164.32
159.55
149.57
131.05
101.56
61.24
13.25
-36.94
-83.28
-120.66
-146.05
-158.43
-158.49
-147.89
-128.63
-102.80
-72.06
-37.28
1.73
45.69
94.56
145.91
193.92
230.25
246.46
237.54
204.46
154.50
98.86
48.46
10.24
-14.42
-28.32
-35.65
-39.40
-40.52
-39.03
-35.85
-34.16
-38.74
-54.06
-81.75
-119.35
-160.58
-197.82
-225.17
-240.47
-245.72
-244.99
-241.76
-236.63
-227.03
-208.90
-179.13
-137.69
-87.67
-33.96
19.05
68.57
113.63
154.06
189.47
218.82
240.56
253.43
256.51
249.25
231.02
201.31
160.61
111.34
58.48
8.69
-31.49
-57.96
-70.29
-71.68
-67.65
-63.80
-64.17
-70.12
-80.41
-91.85
-100.48
-102.69
-96.33
-81.60
-61.20
-39.87
-22.57
-12.50
-9.38
-9.12
-4.95
10.44
42.03
90.19
149.51
209.83
258.86
286.05
285.92
259.81
215.17
162.92
113.88
75.60
51.39
40.95
42.34
53.60
73.01
98.25
125.39
148.96
163.19
164.35
152.28
130.59
105.24
82.14
65.14
54.92
49.53
45.73
40.85
34.16
27.03
21.97
20.86
23.75
28.86
34.33
40.13
48.83
63.96
86.96
114.57
138.51
148.64
137.54
104.13
54.06
-3.20
-58.36
-105.10
-140.45
-163.66
-175.04
-175.70
-167.96
-155.44
-141.88
-129.68
-118.89
-107.32
-91.75
-69.35
-38.67
-0.03
44.47
91.07
134.35
167.81
185.31
182.78
159.83
120.11
70.47
18.76
-28.31
-66.60
-94.63
-112.52
-120.80
-119.56
-108.62
-88.43
-61.22
-31.32
-4.60
13.33
18.74
10.39
-11.12
-44.46
-88.23
-140.48
-197.40
-252.56
-297.67
-324.75
-328.93
-310.12
-272.87
-224.44
-171.99
-120.33
-71.13
-23.44
25.05
76.82
133.58
195.51
260.74
325.14
382.80
427.51
454.48
461.79
450.93
426.14
392.67
355.21
316.88
279.19
242.77
208.03
175.52
145.69
118.44
92.79
67.14
39.93
9.98
-23.28
-60.38
-101.98
-148.10
-196.54
-241.68
-274.92
-287.47
-274.40
-237.50
-185.57
-131.44
-87.21
-60.56
-53.83
-65.88
-94.72
-138.63
-194.90
-257.71
-317.29
-361.92
-382.12
-374.81
-344.76
-302.49
-260.02
-226.04
-203.53
-190.12
-180.43
-169.46
-154.48
-135.54
-114.57
-93.96
-75.35
-59.06
-44.05
-28.28
-9.29
15.49
48.15
89.49
137.90
188.68
234.15
265.41
275.22
260.78
225.46
178.06
130.21
92.82
73.16
73.49
91.44
121.48
156.70
190.36
216.85
232.27
234.46
222.91
198.48
163.25
120.92
77.08
39.08
14.50
8.63
21.77
48.12
77.25
97.67
101.12
85.15
53.39
13.26
-26.88
-59.84
-80.46
-85.50
-73.66
-45.93
-6.22
38.92
81.68
115.14
135.14
140.85
133.92
116.93
92.59
63.16
30.92
-1.70
-32.63
-61.28
-89.40
-120.66
-158.72
-204.13
-252.51
-294.72
-319.68
-318.88
-289.65
-235.95
-166.21
-89.90
-14.84
53.53
111.51
156.36
186.62
203.32
210.82
215.87
224.93
241.13
262.56
283.33
296.54
297.40
285.21
262.98
235.48
207.09
180.34
155.82
132.85
110.41
87.87
65.16
42.58
20.41
-1.43
-23.48
-46.91
-73.66
-106.34
-147.79
-199.74
-261.16
-327.24
-389.76
-439.37
-468.92
-476.26
-465.10
-443.19
-418.96
-398.16
-382.32
-369.40
-355.76
-338.21
-314.65
-284.04
-246.40
-203.58
-160.21
-123.46
-100.83
-96.53
-108.93
-130.19
-149.55
-157.90
-151.59
-133.02
-108.13
-82.68
-59.53
-38.74
-19.44
-1.99
11.49
18.47
18.34
13.92
10.60
14.16
27.91
50.75
77.06
98.49
106.62
95.41
62.99
12.15
-50.14
-114.11
-169.01
-205.50
-217.80
-205.14
-171.90
-126.10
-76.69
-30.64
8.77
41.86
70.76
97.27
121.60
142.39
157.94
167.58
172.22
173.82
174.41
175.20
176.32
177.29
177.76
178.04
179.15
182.64
189.81
201.38
216.91
234.78
252.56
267.75
278.53
284.21
284.93
281.31
273.99
263.55
250.69
236.39
221.90
208.59
197.91
191.36
190.47
196.38
209.07
226.67
245.45
260.82
269.01
268.48
260.14
246.32
229.17
209.50
186.81
160.45
130.63
99.10
68.57
41.53
19.04
0.07
-17.93
-38.28
-64.13
-98.01
-141.25
-193.34
-251.02
-308.07
-356.22
-387.44
-396.61
-383.34
-351.83
-308.60
-259.72
-208.91
-157.68
-106.90
-58.57
-16.44
14.98
32.24
34.61
24.53
6.74
-13.52
-32.19
-47.41
-59.54
-70.09
-80.47
-91.08
-101.16
-109.61
-115.62
-119.15
-120.50
-119.55
-115.14
-105.62
-90.01
-69.15
-45.69
-22.83
-2.68
14.51
29.56
42.85
53.16
58.23
56.61
49.45
40.77
35.64
37.22
44.58
53.12
56.92
52.23
39.36
22.19
5.61
-7.12
-15.36
-20.05
-21.77
-19.55
-11.29
4.25
25.78
49.06
68.50
79.78
81.95
77.78
71.85
68.09
67.97
70.44
73.57
76.46
80.09
86.59
97.64
112.85
129.36
142.72
148.27
142.60
124.18
93.62
53.53
8.18
-37.05
-76.53
-105.74
-122.65
-128.33
-126.57
-122.47
-120.62
-123.39
-130.24
-138.01
-142.24
-138.69
-124.74
-100.04
-66.49
-27.58
12.56
49.89
80.87
102.68
113.32
111.91
99.01
76.76
48.65
18.73
-9.24
-32.64
-50.19
-61.58
-66.91
-66.28
-59.77
-47.84
-31.83
-13.90
3.63
19.37
33.29
46.50
60.03
73.69
85.64
93.26
94.44
88.64
76.85
60.71
41.51
20.04
-2.96
-25.88
-46.17
-61.22
-69.77
-72.66
-72.53
-72.49
-74.62
-79.33
-85.73
-92.64
-99.53
-106.61
-114.18
-121.84
-128.13
-130.89
-128.18
-119.15
-104.49
-86.24
-67.07
-49.44
-35.04
-24.65
-18.30
-15.71
-16.48
-20.00
-25.17
-30.00
-31.76
-27.67
-16.04
2.99
27.16
52.73
75.73
93.25
104.37
110.26
113.43
116.72
122.38
131.73
145.46
163.94
187.40
215.68
247.90
282.25
316.23
347.18
372.90
392.05
404.01
408.48
404.94
392.48
370.20
338.04
297.42
251.24
203.37
157.46
115.93
79.38
46.75
15.97
-15.23
-48.74
-85.55
-125.27
-165.89
-203.81
-234.43
-253.40
-258.20
-249.25
-230.03
-205.98
-182.50
-163.09
-148.44
-136.75
-125.11
-111.03
-93.61
-73.66
-53.03
-33.50
-16.20
-1.51
10.46
19.11
23.24
21.77
14.90
5.09
-3.14
-4.77
3.35
20.50
41.64
59.22
66.09
58.23
36.09
3.86
-32.76
-68.78
-101.28
-129.07
-151.43
-166.97
-173.88
-171.33
-160.98
-147.19
-135.68
-131.36
-136.37
-149.30
-165.99
-180.87
-188.40
-183.75
-163.46
-126.26
-74.28
-13.85
44.96
90.45
112.76
106.94
74.42
22.19
-39.50
-100.06
-150.52
-184.70
-199.49
-194.46
-171.29
-132.92
-83.26
-26.94
30.44
82.57
123.34
148.67
158.47
157.14
152.17
150.83
156.76
168.47
180.49
186.73
183.97
173.32
158.91
144.79
132.28
119.36
102.39
78.92
49.42
17.00
-14.46
-42.59
-67.76
-92.42
-119.24
-149.15
-180.51
-209.56
-232.09
-245.28
-248.79
-244.67
-236.00
-225.10
-212.31
-196.10
-174.34
-146.10
-112.84
-78.25
-46.81
-21.91
-4.77
5.38
10.01
9.95
5.04
-5.01
-18.99
-33.41
-43.00
-42.71
-30.31
-8.01
17.88
39.34
50.07
47.93
35.56
18.52
2.39
-9.62
-17.17
-21.59
-23.90
-23.84
-20.54
-14.19
-7.19
-3.69
-7.26
-18.42
-33.57
-46.38
-50.92
-44.47
-28.41
-6.75
16.45
39.28
62.22
86.61
112.60
138.24
160.11
175.21
182.50
183.29
180.51
177.10
174.88
174.02
173.29
170.57
163.66
151.15
133.27
112.26
91.74
75.35
65.02
59.94
57.04
52.52
43.89
31.14
16.72
4.13
-3.68
-5.73
-3.34
0.69
3.26
2.30
-2.60
-10.46
-19.87
-30.21
-42.30
-58.19
-79.71
-106.89
-137.14
-165.80
-187.92
-199.99
-200.97
-192.09
-175.96
-155.59
-133.80
-113.09
-95.35
-81.53
-71.06
-61.57
-49.54
-31.71
-6.71
23.90
55.71
82.64
98.93
101.07
89.22
67.34
41.95
19.99
6.58
3.69
10.32
23.93
42.22
63.98
88.90
116.44
144.76
170.53
190.07
200.88
202.86
198.35
190.96
184.04
179.58
177.83
177.92
178.61
178.56
176.22
169.58
156.27
134.46
104.04
67.25
27.93
-10.03
-44.38
-75.01
-103.00
-128.89
-151.60
-168.58
-177.58
-178.44
-173.58
-166.78
-161.35
-158.87
-159.41
-162.69
-169.14
-179.63
-194.15
-210.40
-223.45
-226.92
-215.18
-185.11
-136.68
-72.65
2.17
81.61
158.67
226.34
279.01
313.88
331.73
336.12
331.24
319.50
300.29
270.24
225.04
162.22
83.16
-5.97
-94.88
-171.40
-224.32
-246.43
-236.95
-201.98
-153.04
-103.88
-66.76
-49.30
-53.09
-73.86
-102.99
-129.91
-144.52
-139.54
-112.22
-64.89
-4.41
59.59
117.16
160.32
184.56
189.69
179.34
159.90
138.74
122.10
113.02
110.45
109.95
105.86
94.22
74.58
50.14
26.07
6.82
-5.84
-13.33
-19.06
-26.49
-37.38
-51.40
-66.77
-81.44
-94.21
-105.15
-115.10
-124.96
-135.14
-145.25
-154.16
-160.02
-160.01
-150.59
-127.93
-89.49
-36.16
26.36
87.85
135.94
159.97
154.76
122.54
72.29
16.64
-32.42
-67.15
-85.75
-91.64
-91.08
-89.99
-91.70
-96.11
-100.85
-103.38
-102.62
-99.28
-94.53
-88.20
-77.93
-60.19
-32.57
4.13
45.58
85.86
120.15
146.86
167.51
184.82
200.07
212.01
217.76
215.36
206.09
194.70
187.44
188.60
198.22
211.75
222.21
223.56
212.90
190.75
159.19
120.09
74.72
25.07
-24.10
-64.63
-87.00
-84.48
-56.62
-10.38
42.30
88.86
120.11
131.61
122.77
95.20
51.58
-4.07
-65.68
-125.49
-176.20
-213.84
-239.39
-257.86
-274.69
-291.89
-305.97
-309.14
-293.83
-257.57
-205.74
-150.70
-107.67
-89.57
-102.57
-144.62
-206.35
-273.95
-332.43
-368.96
-375.50
-350.67
-300.23
-235.41
-169.19
-112.05
-68.89
-38.28
-14.53
8.69
35.27
65.48
96.71
125.33
148.45
164.46
172.82
173.34
166.19
152.72
136.54
123.57
120.50
132.02
158.13
193.04
226.86
249.04
252.48
235.90
203.70
163.44
122.88
87.81
61.40
44.49
36.12
33.82
33.69
31.08
21.85
3.78
-22.70
-54.52
-87.00
-115.51
-136.51
-148.48
-152.02
-149.47
-144.01
-138.58
-134.87
-132.86
-130.97
-126.66
-117.34
-101.06
-76.58
-43.67
-3.42
41.18
85.12
121.66
143.62
145.22
124.22
83.29
30.13
-23.98
-67.09
-90.28
-90.76
-72.65
-45.04
-17.73
3.01
16.34
25.84
36.05
49.15
63.66
75.89
82.70
83.46
80.17
75.59
71.35
66.95
60.64
51.16
39.17
27.31
18.94
16.62
20.94
30.19
40.83
48.22
47.59
35.09
9.08
-28.61
-71.88
-111.06
-134.91
-134.09
-104.56
-49.51
21.32
94.93
159.39
207.26
236.59
249.47
249.51
239.52
221.12
195.31
163.59
128.27
91.57
54.11
14.20
-31.40
-85.49
-147.74
-213.30
-273.44
-318.16
-339.43
-334.30
-306.02
-262.86
-215.36
-172.90
-141.54
-123.30
-117.25
-120.93
-131.42
-145.72
-160.70
-173.28
-180.87
-181.97
-176.35
-164.80
-148.76
-129.88
-110.01
-91.08
-74.57
-60.97
-49.46
-38.09
-24.67
-7.84
12.58
36.10
62.36
91.50
123.73
158.38
193.15
224.61
249.44
265.77
273.68
274.56
269.89
260.24
245.17
223.81
195.69
161.27
122.11
80.51
39.14
0.55
-33.05
-59.89
-78.72
-88.91
-90.55
-84.60
-73.03
-58.50
-43.93
-31.89
-24.08
-21.00
-22.00
-25.54
-29.72
-32.92
-34.36
-34.31
-33.96
-34.82
-38.16
-44.41
-52.87
-61.79
-68.50
-69.91
-63.07
-46.16
-19.35
14.61
50.86
83.72
108.43
122.64
126.76
123.27
115.41
105.99
96.88
89.05
82.99
78.96
77.14
77.39
79.24
81.84
83.84
83.65
79.50
70.16
55.46
36.70
16.40
-2.91
-19.53
-33.43
-45.75
-57.84
-70.19
-82.05
-91.90
-98.36
-100.99
-100.28
-97.39
-93.62
-90.26
-88.65
-90.31
-96.72
-108.89
-126.88
-149.35
-173.72
-196.51
-214.17
-223.99
-224.96
-218.32
-207.12
-195.23
-185.80
-180.12
-177.43
-175.53
-172.21
-165.90
-155.87
-141.53
-121.80
-95.27
-60.96
-19.23
27.70
76.00
121.34
160.15
190.72
213.48
230.45
244.07
255.93
266.09
273.14
275.22
271.09
260.95
246.41
229.80
213.17
197.54
182.78
168.21
153.12
137.45
121.82
107.32
94.97
85.34
78.10
72.10
65.74
57.70
47.53
35.90
24.01
12.75
2.08
-9.07
-22.15
-38.05
-56.60
-76.75
-97.26
-117.14
-135.52
-151.27
-163.09
-170.17
-173.18
-174.62
-177.86
-185.37
-196.94
-209.41
-218.16
-219.51
-212.66
-199.64
-183.82
-167.70
-151.68
-134.53
-115.04
-93.72
-73.43
-58.58
-53.37
-60.11
-77.67
-101.24
-123.32
-135.79
-132.64
-112.23
-78.18
-38.11
-0.92
26.64
42.21
48.33
51.07
57.38
72.52
98.41
133.55
174.16
216.03
255.78
291.20
320.68
342.15
352.63
348.64
327.78
290.04
238.23
177.11
111.72
46.46
-14.87
-67.93
-107.45
-128.14
-127.28
-107.16
-75.81
-44.96
-25.46
-23.09
-36.36
-57.73
-77.29
-86.95
-82.78
-65.37
-38.27
-6.24
25.79
53.23
72.28
80.82
79.62
73.06
67.95
70.94
85.32
108.68
133.16
148.07
144.12
117.15
69.82
10.52
-49.87
-101.69
-139.31
-161.80
-171.78
-173.25
-169.75
-163.58
-156.14
-148.54
-141.99
-137.45
-134.90
-132.76
-128.09
-117.66
-99.40
-73.75
-43.97
-15.23
7.26
20.29
23.88
20.82
15.01
9.35
4.51
-0.84
-8.45
-18.48
-28.49
-34.04
-30.81
-16.65
7.41
37.38
67.87
93.89
112.21
121.89
124.01
120.72
114.31
106.89
100.56
98.07
102.73
117.46
143.09
176.81
211.99
240.01
253.29
248.18
226.20
192.66
153.98
115.01
78.01
43.53
11.87
-15.87
-38.16
-54.33
-65.56
-74.74
-85.05
-98.38
-114.41
-130.87
-144.89
-154.38
-158.69
-158.30
-154.05
-146.41
-135.46
-121.20
-104.08
-85.09
-65.70
-47.46
-31.74
-19.63
-11.89
-8.95
-10.73
-16.63
-25.54
-36.13
-47.17
-57.66
-67.04
-75.01
-81.56
-86.82
-91.05
-94.52
-97.41
-99.66
-101.02
-101.23
-100.08
-97.71
-94.44
-90.75
-87.18
-84.22
-82.50
-82.59
-85.02
-89.91
-96.82
-104.71
-112.15
-117.80
-120.76
-120.82
-118.19
-113.25
-106.03
-96.13
-82.74
-65.00
-42.46
-15.31
15.38
47.90
80.21
110.32
136.70
158.29
174.59
185.29
190.32
189.67
183.63
172.75
157.86
139.95
119.91
98.68
77.20
56.56
37.72
21.28
7.22
-4.96
-15.58
-24.32
-29.70
-29.62
-22.12
-6.50
16.09
42.78
69.60
92.80
109.63
119.09
121.89
120.00
115.86
111.49
108.04
105.41
102.80
99.06
93.35
85.28
74.69
61.72
46.42
29.31
11.16
-6.79
-23.27
-37.29
-48.37
-56.61
-62.27
-65.81
-67.56
-67.91
-67.34
-66.50
-66.21
-67.14
-69.86
-74.46
-80.76
-88.19
-95.80
-102.39
-106.63
-107.77
-105.78
-101.77
-97.47
-94.67
-94.37
-96.62
-100.98
-106.99
-114.92
-125.14
-137.63
-150.84
-161.50
-165.16
-157.59
-136.48
-102.04
-57.25
-6.57
45.22
94.23
137.87
174.68
204.02
225.44
238.93
244.98
244.94
240.77
234.26
226.34
216.29
202.73
184.78
163.62
142.48
125.18
113.79
106.80
99.67
86.92
65.19
34.97
0.57
-31.75
-56.18
-68.97
-69.14
-58.06
-38.92
-16.03
5.81
22.45
31.58
33.45
30.82
27.53
27.00
30.86
38.59
47.93
55.66
58.48
53.65
40.34
20.58
-0.49
-15.85
-19.10
-7.38
16.86
46.43
72.00
85.84
84.51
69.50
45.74
19.00
-6.24
-27.65
-44.50
-56.79
-64.44
-67.43
-66.15
-61.69
-55.84
-50.45
-46.89
-45.53
-45.71
-46.16
-45.63
-43.55
-40.18
-36.53
-33.86
-33.13
-34.48
-37.27
-40.34
-42.41
-42.72
-41.14
-38.22
-34.80
-31.66
-29.17
-27.27
-25.63
-23.83
-21.68
-19.17
-16.49
-13.79
-11.24
-8.96
-7.05
-5.70
-5.04
-5.16
-5.89
-6.91
-7.82
-8.29
-8.33
-8.24
-8.66
-10.12
-12.84
-16.51
-20.29
-23.22
-24.52
-24.05
-22.31
-20.39
-19.54
-20.94
-25.32
-32.73
-42.50
-53.01
-61.89
-66.32
-63.75
-52.69
-33.28
-7.47
21.65
50.64
76.71
98.15
114.25
124.79
129.57
128.28
120.74
107.41
89.60
69.42
49.25
31.09
15.94
3.58
-7.17
-17.82
-29.25
-41.18
-51.91
-59.03
-60.47
-55.49
-45.23
-32.16
-19.27
-8.85
-2.03
1.16
1.22
-1.35
-6.18
-12.88
-20.58
-28.01
-33.68
-36.47
-35.98
-32.67
-27.65
-22.17
-17.29
-13.43
-10.50
-7.99
-5.34
-2.39
0.60
2.75
3.08
0.81
-4.13
-11.06
-18.66
-25.41
-30.18
-32.47
-32.59
-31.28
-29.48
-27.84
-26.66
-25.85
-24.89
-23.07
-19.31
-12.55
-1.90
12.90
31.08
50.86
69.75
85.25
95.52
99.85
98.62
92.89
83.90
72.62
59.82
46.11
32.19
18.88
7.11
-2.41
-9.29
-13.59
-15.78
-16.46
-16.27
-15.54
-14.45
-12.99
-11.22
-9.37
-7.79
-6.93
-6.98
-7.83
-8.98
-9.79
-9.80
-8.84
-7.19
-5.32
-3.76
-2.77
-2.36
-2.32
-2.42
-2.53
-2.67
-3.04
-3.91
-5.50
-7.86
-10.90
-14.29
-17.59
-20.39
-22.35
-23.38
-23.48
-22.79
-21.35
-19.22
-16.49
-13.37
-10.25
-7.52
-5.49
-4.18
-3.34
-2.63
-1.76
-0.76
0.19
0.75
0.80
0.43
0.04
0.03
0.63
1.77
3.12
4.32
5.14
5.65
6.12
6.82
7.90
9.14
10.21
10.69
10.39
9.33
7.77
5.94
3.97
1.87
-0.44
-2.91
-5.34
-7.42
-8.84
-9.41
-9.11
-8.05
-6.34
-4.12
-1.48
1.42
4.41
7.25
9.72
11.71
13.12
13.96
14.24
14.00
13.32
12.26
10.93
9.36
7.66
5.91
4.27
2.92
1.98
1.45
1.16
0.90
0.45
-0.18
-0.94
-1.64
-2.20
-2.64
-3.09
-3.74
-4.63
-5.77
-7.03
-8.29
-9.44
-10.37
-11.00
-11.18
-10.83
-9.87
-8.35
-6.35
-4.08
-1.75
0.44
2.26
3.65
4.59
5.26
5.81
6.42
7.12
7.76
8.13
8.03
7.51
6.75
6.03
5.57
5.31
5.02
4.29
2.89
0.79
-1.71
-4.11
-5.98
-7.12
-7.70
-8.13
-8.91
-10.35
-12.53
-15.20
-17.97
-20.47
-22.41
-23.72
-24.40
-24.59
-24.43
-24.09
-23.73
-23.42
-23.05
-22.28
-20.63
-17.62
-13.04
-6.98
0.12
7.71
15.42
23.10
31.00
39.42
48.53
58.01
66.89
73.62
76.38
73.75
65.05
50.91
32.93
13.44
-5.23
-21.28
-33.59
-41.87
-46.27
-47.51
-46.59
-44.89
-43.80
-44.29
-46.52
-49.50
-51.58
-50.99
-46.69
-38.65
-27.76
-15.27
-2.11
11.28
25.01
39.17
53.60
67.63
80.21
90.14
96.10
96.84
91.29
79.20
61.51
40.83
20.92
5.69
-2.03
-1.64
5.24
15.36
25.17
31.93
34.34
32.52
27.42
20.27
12.01
3.28
-5.63
-14.44
-22.82
-30.36
-36.55
-41.17
-44.16
-45.84
-46.65
-46.99
-47.14
-47.12
-46.94
-46.54
-46.06
-45.65
-45.50
-45.58
-45.58
-44.99
-43.24
-40.10
-35.76
-31.01
-26.72
-23.50
-21.27
-19.19
-15.96
-10.34
-1.71
9.86
23.62
38.67
54.23
69.66
84.40
97.55
107.96
114.26
115.35
110.73
100.66
85.96
67.62
46.64
23.81
-0.04
-23.90
-46.41
-65.98
-81.06
-90.43
-93.50
-90.30
-81.57
-68.50
-52.64
-35.78
-19.55
-5.35
6.16
14.96
21.70
27.16
31.93
36.05
39.03
40.46
40.30
39.38
39.10
40.97
45.79
53.25
61.93
69.60
74.04
73.41
66.94
55.15
39.91
24.11
10.78
2.21
-1.04
-0.18
2.14
3.14
0.86
-5.17
-13.90
-23.64
-32.58
-39.41
-43.29
-43.79
-40.62
-33.73
-23.59
-11.20
1.68
13.02
20.88
24.02
22.22
16.48
8.89
1.99
-1.84
-1.38
3.08
9.74
16.02
19.57
19.11
14.79
7.72
-0.60
-9.05
-17.14
-24.96
-33.00
-41.90
-52.41
-65.18
-80.50
-97.69
-114.92
-129.36
-137.91
-138.56
-131.11
-117.55
-101.14
-85.24
-71.96
-61.63
-53.24
-45.36
-37.32
-29.50
-23.14
-19.33
-18.26
-18.91
-19.53
-18.55
-15.39
-10.85
-6.49
-3.89
-3.60
-4.76
-5.38
-3.20
3.19
13.80
27.08
40.67
52.35
60.93
66.46
69.90
72.70
76.27
81.95
90.59
102.21
115.27
126.46
131.45
126.43
110.13
84.80
55.73
29.11
9.53
-1.66
-6.33
-7.98
-9.83
-13.33
-18.29
-23.70
-28.81
-33.61
-38.49
-43.71
-48.75
-52.38
-53.18
-50.35
-44.16
-35.96
-27.76
-21.42
-18.10
-17.84
-19.90
-23.13
-26.57
-29.82
-32.97
-36.34
-39.97
-43.50
-46.12
-47.00
-45.68
-42.37
-37.89
-33.17
-29.06
-25.94
-24.01
-23.26
-23.45
-23.73
-22.46
-17.69
-7.87
6.94
24.73
41.86
54.47
59.93
57.67
49.14
36.67
22.69
9.04
-2.44
-9.23
-7.93
4.92
30.98
68.35
110.99
150.33
178.30
190.68
188.76
178.13
165.65
155.74
148.88
142.33
132.78
118.98
102.49
86.68
74.28
66.01
60.14
54.03
45.59
34.33
21.21
7.69
-5.03
-16.64
-27.25
-37.16
-46.32
-54.24
-60.19
-63.44
-63.76
-61.40
-57.24
-52.44
-48.17
-45.22
-43.80
-43.62
-43.89
-43.86
-42.90
-40.87
-38.00
-34.85
-32.06
-29.99
-28.83
-28.42
-28.49
-28.69
-28.78
-28.62
-28.20
-27.62
-27.03
-26.66
-26.58
-26.85
-27.35
-27.93
-28.45
-28.72
-28.73
-28.35
-27.59
-26.38
-24.76
-22.77
-20.46
-17.94
-15.23
-12.44
-9.65
-7.06
-4.86
-3.16
-1.97
-1.14
-0.55
-0.04
0.38
0.70
0.88
0.98
1.16
1.53
2.13
2.79
3.30
3.40
3.03
2.25
1.25
0.27
-0.61
-1.37
-2.17
-3.14
-4.33
-5.66
-6.95
-8.10
-9.05
-9.97
-11.06
-12.49
-14.19
-15.90
-17.20
-17.71
-17.28
-15.99
-14.17
-12.12
-10.13
-8.25
-6.45
-4.66
-2.80
-0.99
0.69
2.08
3.12
3.81
4.22
4.50
4.68
4.78
4.72
4.48
4.07
3.66
3.47
3.63
4.20
4.94
5.59
5.84
5.60
4.93
4.03
3.16
2.39
1.74
1.04
0.20
-0.86
-2.07
-3.28
-4.37
-5.26
-6.05
-6.87
-7.96
-9.41
-11.21
-13.19
-15.03
-16.51
-17.36
-17.55
-17.07
-16.01
-14.43
-12.39
-10.04
-7.46
-4.91
-2.53
-0.53
1.09
2.33
3.28
4.05
4.62
5.01
5.06
4.82
4.33
3.80
3.49
3.51
3.92
4.50
5.06
5.35
5.34
5.07
4.73
4.49
4.38
4.40
4.32
3.98
3.19
1.97
0.44
-1.15
-2.55
-3.71
-4.63
-5.54
-6.63
-8.03
-9.70
-11.45
-13.11
-14.44
-15.39
-15.87
-15.92
-15.48
-14.54
-13.07
-11.09
-8.75
-6.22
-3.80
-1.68
-0.02
1.15
1.91
2.35
2.64
2.82
2.99
3.13
3.27
3.42
3.58
3.78
3.95
4.07
4.02
3.82
3.46
3.05
2.65
2.25
1.83
1.19
0.27
-0.98
-2.39
-3.78
-4.95
-5.81
-6.51
-7.20
-8.13
-9.32
-10.71
-12.07
-13.14
-13.77
-13.91
-13.68
-13.14
-12.37
-11.26
-9.73
-7.78
-5.51
-3.26
-1.31
0.03
0.72
0.90
0.84
0.83
1.02
1.50
2.13
2.80
3.33
3.64
3.68
3.51
3.22
2.89
2.65
2.46
2.29
2.07
1.78
1.44
1.09
0.78
0.43
0.03
-0.61
-1.52
-2.68
-3.95
-5.11
-6.00
-6.43
-6.41
-5.92
-5.03
-3.73
-2.04
0.01
2.31
4.60
6.64
8.17
9.19
9.73
10.00
10.17
10.31
10.43
10.45
10.41
10.28
10.11
9.88
9.51
8.93
8.00
6.76
5.23
3.56
1.83
0.15
-1.41
-2.89
-4.30
-5.78
-7.37
-9.11
-10.93
-12.68
-14.17
-15.18
-15.60
-15.38
-14.59
-13.32
-11.64
-9.62
-7.27
-4.74
-2.15
0.25
2.29
3.80
4.83
5.50
5.96
6.33
6.59
6.70
6.52
6.07
5.40
4.66
4.02
3.53
3.19
2.79
2.17
1.15
-0.31
-2.10
-4.07
-6.03
-7.98
-10.02
-12.38
-15.22
-18.60
-22.37
-26.21
-29.80
-32.78
-34.94
-36.05
-36.02
-34.79
-32.37
-28.87
-24.47
-19.45
-14.12
-8.90
-4.10
0.02
3.39
6.09
8.34
10.36
12.14
13.53
14.26
14.18
13.38
12.24
11.27
10.85
11.06
11.61
12.03
11.87
10.94
9.36
7.50
5.74
4.30
3.18
2.11
0.80
-1.06
-3.57
-6.64
-10.03
-13.40
-16.53
-19.30
-21.81
-24.11
-26.16
-27.77
-28.62
-28.53
-27.34
-24.88
-20.65
-13.98
-4.34
8.01
21.73
34.64
44.46
49.86
50.84
48.55
44.40
39.03
31.99
22.01
8.05
-9.97
-30.79
-52.33
-72.40
-89.41
-102.63
-111.95
-117.49
-119.30
-117.33
-111.62
-102.60
-91.14
-78.43
-65.71
-53.89
-43.54
-34.70
-27.15
-20.46
-14.19
-8.10
-2.36
2.16
4.30
2.93
-2.14
-9.74
-17.34
-21.69
-19.80
-9.82
8.34
33.01
61.02
88.36
111.03
125.92
131.60
128.50
118.76
105.31
90.92
77.52
66.09
56.92
50.06
45.61
43.41
42.99
43.31
43.13
41.34
37.35
31.32
23.87
15.93
8.30
1.62
-3.84
-8.06
-11.27
-13.80
-15.83
-17.41
-18.33
-18.43
-17.64
-16.25
-14.80
-13.83
-13.72
-14.44
-15.71
-17.16
-18.69
-20.40
-22.58
-25.39
-28.63
-31.76
-33.97
-34.53
-32.96
-29.24
-23.84
-17.52
-11.16
-5.44
-0.70
3.15
6.48
9.70
13.10
16.65
20.14
23.24
25.75
27.54
28.61
29.02
28.78
28.03
26.92
25.79
24.89
24.53
24.89
26.12
28.40
31.88
36.70
42.71
49.58
56.59
62.97
68.03
71.38
73.15
73.71
73.70
73.42
72.84
71.43
68.43
63.26
55.80
46.63
36.67
26.89
17.76
9.23
0.87
-7.62
-16.18
-24.34
-31.42
-37.01
-40.91
-43.28
-44.20
-43.61
-41.34
-37.32
-32.01
-26.25
-21.23
-17.85
-16.48
-16.73
-17.59
-17.92
-16.72
-13.55
-8.35
-1.49
6.68
15.86
25.92
36.80
48.25
59.83
70.65
79.72
86.03
88.98
88.57
85.35
80.34
74.43
68.11
61.14
52.84
42.46
29.80
15.52
0.88
-12.63
-24.05
-33.07
-40.14
-45.96
-51.04
-55.52
-59.00
-61.11
-61.42
-59.95
-57.03
-53.33
-49.75
-47.18
-46.38
-47.33
-49.25
-50.42
-48.89
-43.09
-32.53
-18.05
-1.42
15.12
29.78
41.43
49.90
55.77
60.01
63.78
67.82
72.35
76.84
80.51
82.69
83.45
83.54
83.76
84.33
84.22
81.77
75.33
64.38
49.88
33.75
18.00
3.80
-8.58
-19.55
-29.23
-37.29
-42.77
-44.65
-42.34
-36.07
-27.07
-17.12
-8.28
-2.04
1.00
1.43
0.65
0.07
0.58
1.95
3.39
3.94
3.35
2.14
1.28
1.64
3.32
5.88
8.38
9.98
9.95
7.76
2.93
-4.90
-15.38
-27.39
-38.80
-47.26
-50.86
-49.12
-43.20
-35.38
-28.35
-23.92
-22.80
-24.41
-27.45
-30.52
-32.57
-33.14
-32.21
-30.26
-27.81
-25.45
-23.51
-22.13
-21.23
-20.61
-20.18
-19.83
-19.63
-19.63
-19.94
-20.61
-21.63
-22.94
-24.17
-24.88
-24.38
-22.22
-18.21
-12.73
-6.57
-0.54
4.67
8.87
12.03
14.26
15.50
15.69
14.91
13.61
12.60
12.55
13.71
15.52
16.86
16.56
14.02
9.56
4.17
-0.89
-4.80
-7.35
-9.00
-10.34
-11.81
-13.54
-15.29
-16.86
-18.04
-18.88
-19.45
-19.79
-19.86
-19.52
-18.70
-17.33
-15.59
-13.68
-11.90
-10.40
-9.31
-8.62
-8.25
-8.12
-8.05
-8.01
-7.94
-7.87
-7.85
-7.90
-8.01
-8.09
-8.09
-7.92
-7.59
-7.08
-6.42
-5.68
-4.90
-4.22
-3.76
-3.62
-3.82
-4.27
-4.83
-5.33
-5.70
-5.85
-5.78
-5.33
-4.33
-2.60
-0.17
2.70
5.59
8.07
10.04
11.60
13.19
15.21
17.79
20.73
23.51
25.65
26.81
27.04
26.64
26.04
25.52
25.08
24.50
23.39
21.60
19.11
16.19
13.12
10.10
7.12
3.93
0.32
-3.88
-8.56
-13.50
-18.37
-22.90
-26.87
-30.14
-32.70
-34.54
-35.82
-36.70
-37.38
-37.98
-38.50
-38.90
-39.04
-38.90
-38.43
-37.67
-36.53
-34.86
-32.48
-29.23
-25.26
-20.87
-16.66
-13.11
-10.51
-8.81
-7.65
-6.66
-5.61
-4.56
-3.66
-3.06
-2.64
-2.05
-0.91
1.08
3.81
6.95
9.86
12.01
13.01
12.84
11.81
10.42
9.28
8.65
8.62
8.87
9.06
8.91
8.39
7.70
6.99
6.45
6.06
5.95
6.29
7.35
9.24
11.61
13.81
14.89
14.31
12.05
8.84
5.74
3.73
3.26
3.96
4.98
5.22
3.99
1.18
-2.61
-6.37
-9.12
-10.19
-9.53
-7.37
-4.13
-0.01
4.98
10.78
17.10
23.06
27.60
29.59
28.65
25.20
20.48
16.07
13.20
12.41
13.25
14.78
15.88
15.94
14.92
13.46
12.42
12.44
13.72
15.79
17.87
19.11
18.99
17.45
14.82
11.64
8.30
5.07
1.94
-1.07
-3.88
-6.24
-7.85
-8.52
-8.27
-7.39
-6.22
-5.10
-4.19
-3.49
-2.88
-2.24
-1.52
-0.70
0.17
1.01
1.70
2.04
1.82
0.80
-1.07
-3.73
-6.84
-10.04
-12.92
-15.27
-17.08
-18.47
-19.70
-20.90
-22.11
-23.17
-23.87
-23.99
-23.48
-22.49
-21.26
-20.18
-19.48
-19.30
-19.47
-19.69
-19.64
-19.10
-18.20
-17.29
-16.99
-17.77
-19.89
-23.17
-27.07
-30.91
-34.11
-36.40
-37.89
-38.90
-39.72
-40.40
-40.63
-39.97
-38.11
-35.15
-31.71
-28.67
-26.87
-26.66
-27.75
-29.31
-30.04
-28.54
-23.38
-13.41
2.05
22.78
47.56
74.15
99.75
121.78
138.54
149.67
155.90
158.38
157.97
154.68
147.90
136.83
121.36
102.33
81.52
61.00
42.54
27.01
14.34
3.80
-5.64
-14.85
-24.31
-33.99
-43.34
-51.52
-57.58
-60.86
-61.30
-59.50
-56.56
-53.74
-52.08
-52.08
-53.69
-56.39
-59.47
-62.29
-64.39
-65.49
-65.51
-64.43
-62.32
-59.41
-56.09
-52.98
-50.71
-49.78
-50.28
-51.97
-54.43
-57.22
-59.98
-62.39
-64.03
-64.28
-62.48
-58.34
-52.39
-46.26
-42.49
-43.91
-52.56
-68.69
-90.27
-113.29
-132.66
-143.68
-143.44
-131.73
-111.19
-86.46
-62.92
-45.15
-35.71
-34.54
-38.98
-44.45
-45.56
-37.48
-17.28
14.99
55.91
99.33
137.99
165.61
178.91
178.66
169.22
156.84
147.40
144.62
149.29
159.56
172.23
184.09
192.92
197.93
199.70
199.87
200.64
204.14
211.76
223.34
236.67
247.53
250.60
241.06
216.45
177.68
128.91
76.03
24.66
-21.69
-62.16
-97.87
-130.40
-160.40
-186.97
-207.84
-220.28
-222.24
-213.32
-195.22
-171.62
-147.40
-127.24
-114.30
-109.16
-109.92
-113.01
-114.67
-112.13
-104.18
-90.98
-73.71
-54.05
-33.93
-15.30
0.30
12.08
20.22
25.84
30.43
35.33
41.15
47.63
53.70
57.77
58.17
53.56
43.50
28.75
11.33
-5.69
-18.87
-25.10
-22.36
-10.33
9.22
32.54
54.59
70.59
77.55
75.38
66.74
55.85
46.58
40.95
38.72
38.02
36.57
32.60
25.17
13.86
-1.54
-20.76
-42.49
-63.81
-80.70
-89.32
-87.78
-77.04
-60.28
-41.22
-22.20
-3.56
15.66
35.98
56.19
73.38
84.15
86.28
79.68
66.31
49.30
31.83
16.48
4.99
-1.66
-3.13
0.25
7.65
17.71
28.64
38.34
44.64
45.64
40.32
29.02
13.55
-3.35
-18.92
-31.31
-40.09
-46.12
-50.97
-56.11
-62.36
-69.51
-76.39
-81.47
-83.51
-82.19
-78.26
-73.20
-68.49
-65.08
-63.15
-62.30
-61.98
-61.67
-60.91
-59.19
-56.01
-51.05
-44.52
-37.30
-30.75
-26.20
-24.39
-25.16
-27.49
-29.88
-30.89
-29.52
-25.58
-19.55
-12.60
-6.08
-1.14
1.85
3.62
5.71
9.84
16.88
26.09
35.08
40.55
39.64
31.07
15.84
-3.22
-22.35
-38.12
-48.22
-51.88
-49.68
-43.11
-34.15
-24.81
-16.86
-11.62
-9.88
-11.80
-16.86
-23.95
-31.58
-38.34
-43.26
-46.12
-47.29
-47.35
-46.51
-44.45
-40.32
-33.20
-22.59
-8.71
7.45
24.41
40.70
55.26
67.73
78.28
87.11
93.84
97.32
95.85
88.29
75.09
58.73
43.18
32.41
28.80
32.15
40.12
49.43
57.41
62.98
66.58
69.31
72.02
74.71
76.63
76.82
74.61
69.63
61.37
48.87
30.93
6.94
-21.99
-52.38
-78.85
-95.78
-99.41
-89.31
-68.69
-43.00
-17.89
2.68
17.34
26.97
33.62
39.27
45.26
52.13
60.01
69.07
79.51
91.31
103.88
115.84
125.33
130.65
130.85
126.01
116.98
104.82
90.36
73.97
55.96
36.95
18.18
1.26
-12.35
-21.85
-27.42
-30.08
-31.43
-33.46
-38.34
-48.15
-64.38
-87.19
-114.90
-143.98
-169.54
-186.57
-191.36
-182.85
-163.20
-137.50
-112.38
-93.96
-85.97
-88.50
-98.36
-110.56
-120.44
-125.33
-124.86
-120.20
-112.60
-102.50
-89.52
-73.35
-54.63
-35.29
-17.97
-4.99
2.69
5.73
6.07
6.02
7.41
11.05
16.67
23.25
29.59
34.76
38.37
40.41
41.01
40.06
37.21
32.09
24.78
16.16
7.87
1.85
-0.37
1.74
7.40
14.88
22.09
27.27
29.48
28.73
25.81
21.83
17.77
14.08
10.73
7.35
3.58
-0.55
-4.60
-7.86
-9.60
-9.46
-7.65
-4.93
-2.36
-0.89
-0.82
-1.73
-2.45
-1.62
1.73
7.69
15.31
22.88
28.44
30.48
28.28
22.09
12.92
2.26
-8.29
-17.30
-23.58
-26.45
-25.66
-21.43
-14.33
-5.17
5.06
15.33
24.67
32.30
37.66
40.62
41.49
41.05
40.37
40.47
42.01
45.02
48.94
52.78
55.47
56.08
53.97
48.93
41.18
31.49
20.99
11.02
2.73
-3.25
-6.91
-8.83
-9.75
-10.33
-10.83
-11.31
-11.73
-12.15
-12.69
-13.50
-14.65
-16.05
-17.60
-19.08
-20.34
-21.10
-21.08
-20.17
-18.55
-16.91
-16.07
-16.48
-17.53
-17.44
-13.67
-4.05
12.03
32.97
55.16
74.05
85.60
87.51
79.69
64.08
43.76
21.95
1.36
-16.32
-30.29
-40.39
-46.84
-49.98
-50.28
-48.40
-45.24
-41.74
-38.70
-36.55
-35.14
-33.95
-32.17
-29.06
-24.07
-17.03
-8.16
2.01
12.70
23.13
32.58
40.52
46.45
50.03
51.07
49.70
46.54
42.57
38.93
36.46
35.44
35.47
35.89
36.13
36.07
35.99
36.14
36.36
35.81
33.27
27.70
18.73
7.04
-5.96
-18.54
-29.29
-37.43
-42.94
-46.34
-48.46
-50.27
-52.49
-55.30
-57.92
-58.68
-55.34
-46.10
-30.52
-10.12
11.76
30.95
43.73
48.00
43.74
32.83
18.23
3.04
-10.28
-20.36
-26.81
-30.03
-30.69
-29.47
-26.72
-22.61
-17.18
-10.56
-3.10
4.62
11.85
17.96
22.62
25.89
28.20
30.00
31.69
33.38
35.11
36.87
38.69
40.44
41.59
41.17
38.05
31.51
21.77
10.14
-1.37
-10.78
-16.94
-19.74
-19.89
-18.39
-15.88
-12.63
-8.68
-4.30
-0.25
2.38
2.57
-0.05
-4.94
-10.77
-15.90
-19.03
-19.63
-18.10
-15.63
-13.73
-13.71
-16.15
-20.50
-25.15
-27.84
-26.35
-19.40
-7.17
8.53
24.73
38.11
45.95
46.92
41.28
30.84
18.30
6.40
-2.87
-8.78
-11.89
-13.47
-14.89
-17.01
-19.96
-23.29
-26.22
-27.79
-27.04
-23.24
-16.18
-6.46
4.43
14.57
22.20
26.44
27.40
25.97
23.23
19.91
16.28
12.26
7.85
3.13
-1.70
-6.49
-11.19
-15.70
-19.73
-22.78
-24.37
-24.27
-22.70
-20.23
-17.50
-14.98
-12.74
-10.62
-8.27
-5.37
-1.65
3.08
8.95
15.94
23.76
31.81
39.22
45.13
48.89
50.36
49.75
47.49
43.80
38.59
31.68
23.21
13.94
5.13
-1.89
-6.46
-8.90
-10.39
-12.29
-15.34
-19.31
-23.10
-25.49
-25.83
-24.30
-21.75
-19.14
-17.04
-15.40
-13.79
-11.77
-9.18
-6.29
-3.57
-1.48
-0.21
0.33
0.43
0.42
0.42
0.45
0.39
0.20
-0.06
-0.15
0.14
0.85
1.77
2.47
2.45
1.34
-0.88
-3.91
-7.17
-10.00
-11.87
-12.51
-11.99
-10.59
-8.73
-6.81
-5.12
-3.73
-2.62
-1.68
-0.83
-0.01
0.83
1.76
2.90
4.30
5.94
7.62
9.03
9.87
9.91
9.16
7.85
6.33
4.98
4.04
3.54
3.25
2.84
1.94
0.41
-1.71
-4.10
-6.37
-8.16
-9.26
-9.66
-9.45
-8.81
-7.91
-6.91
-6.04
-5.43
-5.20
-5.27
-5.39
-5.21
-4.42
-2.89
-0.74
1.74
4.22
6.43
8.26
9.71
10.85
11.71
12.26
12.47
12.33
11.88
11.16
10.23
9.08
7.72
6.17
4.47
2.80
1.29
0.12
-0.57
-0.74
-0.39
0.38
1.43
2.57
3.60
4.32
4.59
4.39
3.77
2.81
1.61
0.24
-1.28
-2.95
-4.76
-6.65
-8.51
-10.22
-11.63
-12.59
-12.95
-12.64
-11.63
-10.01
-8.00
-5.86
-3.88
-2.18
-0.84
0.20
1.00
1.56
1.83
1.75
1.30
0.53
-0.44
-1.46
-2.37
-3.03
-3.34
-3.23
-2.72
-1.92
-1.03
-0.28
0.13
0.21
0.08
-0.08
-0.14
-0.07
-0.02
-0.14
-0.51
-1.11
-1.81
-2.52
-3.25
-4.03
-4.92
-5.81
-6.45
-6.49
-5.67
-3.96
-1.55
1.17
3.80
6.04
7.76
8.92
9.57
9.73
9.43
8.76
7.84
6.88
6.04
5.44
5.04
4.75
4.43
3.97
3.40
2.78
2.27
1.95
1.81
1.73
1.51
0.99
0.11
-1.07
-2.39
-3.71
-4.96
-6.10
-7.15
-8.12
-8.99
-9.76
-10.41
-10.95
-11.33
-11.46
-11.19
-10.40
-9.08
-7.29
-5.22
-3.03
-0.90
1.06
2.75
4.07
4.98
5.47
5.68
5.76
5.89
6.16
6.52
6.87
7.04
6.91
6.48
5.84
5.17
4.66
4.42
4.45
4.65
4.87
4.97
4.85
4.48
3.86
3.03
2.07
1.00
-0.06
-1.11
-2.13
-3.17
-4.26
-5.34
-6.25
-6.75
-6.59
-5.63
-3.96
-1.84
0.38
2.36
3.92
4.97
5.59
5.86
5.89
5.72
5.44
5.07
4.64
4.17
3.64
3.13
2.70
2.45
2.38
2.42
2.46
2.34
2.06
1.69
1.40
1.33
1.51
1.86
2.15
2.18
1.79
0.96
-0.25
-1.69
-3.13
-4.33
-5.05
-5.18
-4.79
-4.20
-3.93
-4.47
-6.05
-8.43
-10.97
-12.72
-12.85
-10.86
-6.85
-1.39
4.62
10.23
14.71
17.64
19.02
19.06
18.17
16.68
14.89
12.97
11.01
9.11
7.35
5.79
4.44
3.20
1.90
0.40
-1.37
-3.34
-5.32
-7.08
-8.46
-9.46
-10.18
-10.82
-11.56
-12.47
-13.59
-14.89
-16.35
-17.87
-19.27
-20.18
-20.13
-18.72
-15.75
-11.45
-6.37
-1.29
3.10
6.34
8.33
9.30
9.57
9.51
9.37
9.27
9.25
9.27
9.28
9.19
8.93
8.35
7.38
5.97
4.19
2.25
0.37
-1.23
-2.49
-3.50
-4.45
-5.47
-6.50
-7.25
-7.31
-6.43
-4.71
-2.60
-0.74
0.32
0.40
-0.30
-1.29
-2.01
-2.11
-1.44
-0.04
1.93
4.29
6.86
9.38
11.53
13.01
13.55
13.14
12.03
10.69
9.61
9.18
9.46
10.18
10.82
10.86
10.00
8.27
5.99
3.63
1.56
-0.08
-1.38
-2.55
-3.75
-4.98
-6.14
-7.06
-7.66
-7.98
-8.18
-8.45
-8.93
-9.69
-10.80
-12.31
-14.28
-16.62
-19.17
-21.57
-23.44
-24.43
-24.33
-23.15
-21.09
-18.44
-15.54
-12.65
-9.94
-7.47
-5.25
-3.34
-1.79
-0.68
-0.04
0.29
0.56
1.12
2.23
3.95
6.06
8.19
9.95
11.01
11.32
11.05
10.61
10.52
11.19
12.82
15.28
18.19
21.04
23.45
25.22
26.37
27.07
27.39
27.31
26.71
25.51
23.72
21.55
19.25
17.05
15.05
13.17
11.24
9.03
6.48
3.66
0.81
-1.75
-3.78
-5.21
-6.17
-6.83
-7.38
-7.82
-8.05
-7.96
-7.52
-6.85
-6.17
-5.66
-5.40
-5.36
-5.48
-5.73
-6.12
-6.64
-7.25
-7.85
-8.33
-8.60
-8.65
-8.53
-8.31
-8.11
-8.00
-8.06
-8.33
-8.82
-9.44
-10.07
-10.55
-10.71
-10.43
-9.65
-8.43
-6.90
-5.23
-3.65
-2.28
-1.18
-0.33
0.31
0.78
1.09
1.26
1.36
1.43
1.56
1.69
1.82
1.90
1.95
2.06
2.29
2.65
3.01
3.17
2.97
2.39
1.50
0.51
-0.40
-1.14
-1.73
-2.29
-2.94
-3.79
-4.86
-6.10
-7.40
-8.59
-9.51
-9.97
-9.83
-9.02
-7.59
-5.71
-3.67
-1.77
-0.23
0.85
1.52
1.92
2.20
2.50
2.83
3.19
3.53
3.85
4.11
4.28
4.33
4.21
3.92
3.46
2.93
2.42
1.99
1.67
1.43
1.20
0.93
0.64
0.35
0.12
-0.04
-0.15
-0.28
-0.52
-0.95
-1.64
-2.62
-3.85
-5.21
-6.52
-7.58
-8.21
-8.30
-7.82
-6.86
-5.54
-4.04
-2.53
-1.14
-0.00
0.85
1.46
1.91
2.33
2.79
3.31
3.87
4.42
4.96
5.48
5.95
6.25
6.22
5.74
4.80
3.58
2.37
1.45
0.93
0.77
0.78
0.71
0.48
0.10
-0.30
-0.58
-0.71
-0.73
-0.76
-0.91
-1.25
-1.76
-2.44
-3.25
-4.15
-5.06
-5.84
-6.30
-6.21
-5.45
-4.07
-2.27
-0.38
1.30
2.60
3.49
4.08
4.51
4.84
5.08
5.15
5.03
4.73
4.32
3.90
3.56
3.31
3.18
3.12
3.09
3.03
2.88
2.60
2.18
1.70
1.22
0.83
0.53
0.29
0.04
-0.22
-0.49
-0.73
-0.93
-1.15
-1.43
-1.87
-2.50
-3.33
-4.24
-5.12
-5.80
-6.12
-5.96
-5.25
-4.06
-2.49
-0.75
0.98
2.54
3.81
4.72
5.25
5.42
5.28
4.95
4.57
4.23
3.97
3.76
3.61
3.46
3.30
3.10
2.82
2.46
2.02
1.58
1.18
0.87
0.65
0.53
0.49
0.55
0.68
0.81
0.84
0.64
0.17
-0.57
-1.51
-2.54
-3.61
-4.69
-5.72
-6.56
-7.04
-6.97
-6.26
-4.97
-3.31
-1.55
0.08
1.44
2.51
3.36
4.04
4.57
4.93
5.10
5.06
4.88
4.64
4.44
4.27
4.06
3.70
3.08
2.27
1.44
0.85
0.68
0.96
1.50
2.01
2.22
1.98
1.34
0.39
-0.70
-1.88
-3.08
-4.29
-5.42
-6.37
-7.11
-7.67
-8.15
-8.60
-8.96
-9.02
-8.49
-7.25
-5.35
-3.09
-0.82
1.15
2.74
4.02
5.08
6.03
6.84
7.45
7.84
8.00
7.98
7.84
7.57
7.20
6.77
6.33
5.97
5.73
5.62
5.58
5.53
5.44
5.21
4.80
4.14
3.20
2.01
0.70
-0.51
-1.43
-1.93
-2.07
-1.99
-1.98
-2.24
-2.89
-3.93
-5.19
-6.49
-7.60
-8.32
-8.48
-7.97
-6.78
-5.00
-2.83
-0.50
1.73
3.66
5.14
6.14
6.67
6.78
6.59
6.17
5.62
4.97
4.31
3.65
3.02
2.46
1.94
1.49
1.07
0.73
0.49
0.40
0.48
0.67
0.90
1.04
0.99
0.69
0.19
-0.45
-1.09
-1.67
-2.18
-2.69
-3.34
-4.22
-5.35
-6.66
-7.99
-9.13
-9.88
-10.07
-9.54
-8.29
-6.38
-4.05
-1.62
0.57
2.27
3.38
3.90
3.92
3.55
2.88
2.02
1.10
0.29
-0.25
-0.43
-0.29
0.05
0.40
0.61
0.62
0.45
0.19
-0.11
-0.44
-0.87
-1.41
-2.06
-2.68
-3.10
-3.21
-3.00
-2.64
-2.37
-2.42
-2.89
-3.70
-4.70
-5.69
-6.54
-7.13
-7.38
-7.22
-6.58
-5.52
-4.19
-2.79
-1.51
-0.44
0.47
1.27
1.99
2.58
2.98
3.17
3.22
3.26
3.38
3.58
3.72
3.63
3.24
2.58
1.83
1.14
0.56
0.05
-0.56
-1.36
-2.37
-3.44
-4.39
-5.07
-5.43
-5.56
-5.60
-5.63
-5.66
-5.69
-5.73
-5.88
-6.23
-6.80
-7.43
-7.80
-7.56
-6.47
-4.58
-2.13
0.46
2.86
4.84
6.33
7.34
7.90
8.02
7.71
7.05
6.17
5.28
4.51
3.95
3.59
3.33
3.10
2.82
2.47
2.05
1.63
1.26
1.03
0.95
1.02
1.16
1.25
1.20
0.93
0.44
-0.20
-0.94
-1.71
-2.50
-3.27
-4.00
-4.59
-4.89
-4.73
-3.96
-2.59
-0.76
1.22
2.96
4.17
4.76
4.82
4.56
4.22
3.87
3.48
2.96
2.25
1.43
0.67
0.20
0.13
0.44
0.96
1.47
1.80
1.84
1.60
1.14
0.57
-0.07
-0.75
-1.48
-2.19
-2.83
-3.33
-3.62
-3.69
-3.56
-3.29
-2.96
-2.67
-2.53
-2.58
-2.80
-3.07
-3.25
-3.20
-2.88
-2.33
-1.66
-0.96
-0.29
0.31
0.81
1.10
1.09
0.75
0.18
-0.43
-0.82
-0.82
-0.45
0.17
0.76
1.13
1.18
0.99
0.73
0.55
0.54
0.66
0.84
0.96
0.96
0.83
0.58
0.29
0.02
-0.22
-0.45
-0.76
-1.32
-2.22
-3.48
-4.91
-6.19
-6.98
-7.07
-6.51
-5.47
-4.25
-3.02
-1.79
-0.52
0.89
2.37
3.73
4.73
5.21
5.18
4.80
4.35
4.02
3.90
3.93
4.00
3.99
3.84
3.54
3.12
2.65
2.15
1.68
1.24
0.85
0.52
0.24
-0.02
-0.33
-0.77
-1.48
-2.55
-4.04
-5.89
-7.91
-9.82
-11.27
-12.05
-12.00
-11.21
-9.85
-8.18
-6.44
-4.78
-3.30
-1.98
-0.80
0.27
1.21
1.96
2.48
2.73
2.78
2.71
2.68
2.79
3.12
3.68
4.40
5.19
5.89
6.38
6.54
6.35
5.86
5.18
4.44
3.70
2.96
2.15
1.22
0.16
-1.00
-2.15
-3.28
-4.37
-5.39
-6.23
-6.70
-6.56
-5.65
-4.00
-1.86
0.42
2.47
4.03
5.06
5.60
5.77
5.65
5.30
4.80
4.19
3.59
3.09
2.78
2.69
2.83
3.13
3.51
3.86
4.08
4.10
3.87
3.40
2.70
1.84
0.87
-0.13
-1.07
-1.88
-2.50
-2.94
-3.22
-3.45
-3.67
-4.00
-4.47
-5.07
-5.76
-6.45
-6.96
-7.09
-6.66
-5.61
-4.06
-2.30
-0.70
0.43
0.99
1.05
0.82
0.58
0.52
0.71
1.10
1.60
2.11
2.61
3.09
3.58
4.10
4.63
5.13
5.52
5.72
5.66
5.36
4.85
4.14
3.28
2.29
1.23
0.18
-0.73
-1.46
-2.04
-2.60
-3.31
-4.26
-5.44
-6.63
-7.56
-7.95
-7.68
-6.76
-5.33
-3.61
-1.78
-0.01
1.61
3.01
4.15
5.08
5.80
6.30
6.54
6.47
6.12
5.65
5.24
5.02
4.97
4.87
4.49
3.69
2.56
1.40
0.52
0.06
-0.05
-0.06
-0.21
-0.61
-1.20
-1.86
-2.47
-3.00
-3.50
-4.03
-4.63
-5.28
-5.99
-6.72
-7.43
-8.03
-8.35
-8.24
-7.56
-6.31
-4.63
-2.74
-0.83
0.90
2.35
3.45
4.17
4.53
4.53
4.25
3.78
3.28
2.88
2.73
2.87
3.27
3.81
4.30
4.58
4.54
4.22
3.72
3.20
2.72
2.26
1.70
0.96
0.03
-0.97
-1.84
-2.45
-2.74
-2.82
-2.86
-3.05
-3.47
-4.11
-4.92
-5.81
-6.74
-7.59
-8.19
-8.29
-7.68
-6.31
-4.29
-1.99
0.23
2.06
3.39
4.27
4.80
5.10
5.21
5.15
4.92
4.53
4.06
3.56
3.14
2.88
2.84
3.02
3.39
3.82
4.21
4.51
4.72
4.87
4.96
4.96
4.72
4.18
3.28
2.13
0.93
-0.12
-0.86
-1.28
-1.50
-1.74
-2.18
-2.96
-4.07
-5.34
-6.54
-7.43
-7.85
-7.76
-7.20
-6.28
-5.17
-3.96
-2.78
-1.75
-0.96
-0.46
-0.27
-0.31
-0.44
-0.53
-0.52
-0.37
-0.10
0.26
0.69
1.17
1.61
1.92
2.02
1.88
1.55
1.17
0.84
0.66
0.62
0.61
0.50
0.21
-0.29
-0.93
-1.62
-2.26
-2.76
-3.08
-3.24
-3.34
-3.55
-4.00
-4.69
-5.46
-5.99
-5.95
-5.10
-3.46
-1.29
1.02
3.01
4.40
5.02
4.93
4.34
3.53
2.79
2.31
2.14
2.17
2.20
2.06
1.66
1.04
0.27
-0.52
-1.29
-2.01
-2.71
-3.40
-4.05
-4.60
-4.91
-4.88
-4.44
-3.70
-2.94
-2.56
-2.89
-4.05
-5.93
-8.16
-10.33
-12.11
-13.43
-14.36
-15.07
-15.66
-16.05
-16.01
-15.22
-13.45
-10.62
-6.89
-2.58
1.89
6.15
9.94
13.10
15.61
17.47
18.72
19.47
19.80
19.77
19.41
18.71
17.77
16.87
16.46
17.02
18.79
21.59
24.71
27.13
27.94
26.67
23.58
19.44
15.23
11.72
9.20
7.45
5.94
4.06
1.31
-2.58
-7.65
-13.61
-19.92
-25.80
-30.37
-32.94
-33.13
-30.99
-26.83
-21.10
-14.25
-6.69
1.05
8.37
14.60
19.22
22.04
23.30
23.56
23.37
23.10
22.73
21.98
20.40
17.73
13.98
9.45
4.73
0.37
-3.26
-6.15
-8.70
-11.61
-15.58
-21.01
-27.69
-34.77
-40.98
-45.09
-46.34
-44.76
-41.11
-36.56
-32.25
-28.96
-26.93
-25.97
-25.65
-25.48
-25.01
-23.77
-21.42
-17.78
-12.97
-7.46
-1.97
2.80
6.46
8.99
10.70
11.95
13.03
14.04
15.03
16.05
17.29
19.04
21.51
24.74
28.53
32.46
36.04
38.82
40.46
40.76
39.71
37.40
34.07
29.98
25.41
20.57
15.64
10.78
6.05
1.34
-3.71
-9.57
-16.63
-24.83
-33.62
-42.05
-49.13
-54.20
-57.14
-58.19
-57.69
-55.83
-52.51
-47.61
-41.18
-33.54
-25.22
-16.73
-8.42
-0.52
6.69
12.86
17.56
20.49
21.73
21.73
21.25
21.08
21.77
23.52
26.11
29.00
31.49
32.87
32.57
30.26
25.93
19.89
12.74
5.29
-1.64
-7.32
-11.30
-13.46
-13.92
-12.99
-11.09
-8.65
-6.11
-3.85
-2.15
-1.10
-0.56
-0.27
-0.04
0.10
-0.18
-1.25
-3.32
-6.14
-8.99
-10.96
-11.29
-9.72
-6.59
-2.63
1.35
4.75
7.29
8.95
9.76
9.72
8.78
6.89
4.18
0.97
-2.24
-4.95
-6.78
-7.61
-7.62
-7.16
-6.64
-6.34
-6.36
-6.59
-6.77
-6.66
-6.07
-4.96
-3.33
-1.28
1.02
3.33
5.26
6.39
6.37
5.12
2.94
0.41
-1.74
-2.94
-2.97
-1.98
-0.40
1.24
2.55
3.35
3.72
3.93
4.30
5.09
6.37
8.04
9.78
11.17
11.72
10.99
8.69
4.82
-0.20
-5.66
-10.58
-14.12
-15.83
-15.82
-14.66
-13.09
-11.72
-10.82
-10.33
-10.08
-9.97
-10.01
-10.27
-10.73
-11.15
-11.24
-10.74
-9.60
-8.07
-6.60
-5.64
-5.53
-6.38
-8.01
-10.11
-12.29
-14.22
-15.69
-16.63
-17.08
-17.09
-16.71
-15.94
-14.76
-13.19
-11.32
-9.36
-7.52
-5.99
-4.79
-3.81
-2.80
-1.49
0.34
2.81
5.91
9.48
13.27
16.88
19.85
21.74
22.32
21.68
20.33
19.09
18.65
19.27
20.46
21.18
20.39
17.74
13.96
10.68
9.67
11.91
16.87
22.66
26.73
27.05
22.97
15.44
6.48
-1.74
-7.76
-11.23
-12.79
-13.51
-14.37
-15.83
-17.84
-20.02
-21.97
-23.53
-24.78
-25.87
-26.85
-27.49
-27.32
-25.90
-23.06
-19.08
-14.66
-10.68
-7.79
-6.22
-5.63
-5.37
-4.77
-3.42
-1.32
1.23
3.86
6.34
8.65
10.93
13.32
15.90
18.68
21.64
24.79
28.18
31.72
35.17
38.00
39.61
39.47
37.35
33.42
28.24
22.56
17.13
12.49
8.91
6.49
5.21
5.08
6.14
8.34
11.40
14.85
18.03
20.31
21.34
21.10
19.90
18.16
16.24
14.29
12.28
10.12
7.73
5.07
2.15
-1.08
-4.60
-8.33
-12.05
-15.35
-17.84
-19.17
-19.21
-18.03
-15.89
-13.14
-10.16
-7.34
-5.10
-3.83
-3.76
-4.94
-7.11
-9.76
-12.28
-14.11
-14.90
-14.54
-13.18
-11.11
-8.58
-5.81
-2.89
0.12
3.07
5.75
7.84
9.06
9.25
8.47
6.97
5.12
3.24
1.48
-0.13
-1.63
-3.02
-4.19
-4.97
-5.27
-5.14
-4.79
-4.52
-4.55
-4.91
-5.49
-6.06
-6.42
-6.46
-6.18
-5.68
-5.06
-4.43
-3.85
-3.34
-2.89
-2.50
-2.15
-1.83
-1.52
-1.23
-0.99
-0.77
-0.50
-0.15
0.35
0.93
1.49
1.89
2.02
1.85
1.44
0.86
0.15
-0.66
-1.55
-2.39
-3.02
-3.31
-3.19
-2.77
-2.28
-1.95
-1.94
-2.24
-2.73
-3.22
-3.59
-3.78
-3.81
-3.73
-3.59
-3.45
-3.38
-3.43
-3.63
-3.95
-4.31
-4.59
-4.65
-4.42
-3.88
-3.03
-1.94
-0.67
0.71
2.12
3.44
4.55
5.27
5.52
5.28
4.64
3.81
2.99
2.40
2.10
2.08
2.21
2.32
2.16
1.46
-0.07
-2.60
-6.05
-9.99
-13.74
-16.57
-18.02
-18.10
-17.22
-15.93
-14.61
-13.31
-11.80
-9.87
-7.50
-4.98
-2.70
-0.92
0.34
1.38
2.54
4.01
5.71
7.28
8.31
8.52
7.96
7.05
6.34
6.34
7.30
9.07
11.22
13.19
14.49
14.79
14.05
12.50
10.71
9.57
10.06
12.92
18.19
24.99
31.70
36.53
38.15
36.22
31.39
24.88
17.81
10.82
4.00
-2.82
-9.67
-16.29
-22.18
-26.92
-30.29
-32.34
-33.30
-33.38
-32.68
-31.18
-28.88
-25.91
-22.54
-19.16
-16.21
-14.00
-12.69
-12.20
-12.22
-12.39
-12.31
-11.77
-10.75
-9.45
-8.20
-7.25
-6.70
-6.45
-6.23
-5.79
-4.95
-3.74
-2.32
-0.94
0.25
1.24
2.14
3.05
4.04
5.10
6.14
7.06
7.85
8.53
9.23
10.04
11.05
12.22
13.46
14.60
15.49
16.00
16.11
15.88
15.43
14.88
14.32
13.77
13.24
12.68
12.03
11.19
10.12
8.73
7.07
5.18
3.16
1.13
-0.81
-2.60
-4.19
-5.54
-6.65
-7.52
-8.19
-8.78
-9.35
-9.97
-10.58
-11.08
-11.30
-11.09
-10.40
-9.26
-7.80
-6.15
-4.49
-2.93
-1.57
-0.47
0.32
0.75
0.84
0.61
0.18
-0.35
-0.85
-1.23
-1.48
-1.61
-1.71
-1.82
-2.00
-2.28
-2.69
-3.24
-3.92
-4.70
-5.48
-6.16
-6.64
-6.90
-6.97
-6.94
-6.91
-6.91
-6.96
-6.99
-7.00
-6.91
-6.67
-6.19
-5.37
-4.18
-2.68
-1.03
0.47
1.55
2.03
1.91
1.35
0.60
-0.10
-0.56
-0.71
-0.56
-0.15
0.41
1.04
1.68
2.30
2.91
3.59
4.37
5.30
6.29
7.20
7.84
8.07
7.87
7.30
6.49
5.56
4.60
3.68
2.86
2.24
1.92
1.97
2.40
3.16
4.16
5.29
6.49
7.68
8.84
9.85
10.63
11.07
11.10
10.75
10.09
9.27
8.44
7.78
7.34
7.10
6.95
6.74
6.41
5.95
5.45
5.03
4.78
4.70
4.71
4.69
4.50
4.06
3.32
2.25
0.90
-0.64
-2.24
-3.75
-5.06
-6.16
-7.10
-7.93
-8.67
-9.28
-9.65
-9.71
-9.43
-8.87
-8.13
-7.30
-6.43
-5.56
-4.77
-4.15
-3.82
-3.81
-4.04
-4.34
-4.48
-4.30
-3.77
-2.94
-1.95
-0.93
0.03
0.91
1.65
2.24
2.63
2.81
2.82
2.71
2.52
2.22
1.74
0.99
-0.00
-1.18
-2.42
-3.61
-4.73
-5.76
-6.70
-7.45
-7.90
-7.91
-7.40
-6.42
-5.04
-3.46
-1.81
-0.21
1.25
2.54
3.65
4.56
5.26
5.78
6.10
6.23
6.19
5.99
5.67
5.25
4.76
4.24
3.72
3.17
2.59
1.96
1.26
0.59
0.06
-0.18
-0.12
0.16
0.43
0.45
0.09
-0.59
-1.30
-1.77
-1.82
-1.53
-1.19
-1.10
-1.42
-2.02
-2.51
-2.39
-1.40
0.45
2.74
4.84
6.18
6.42
5.64
4.30
3.09
2.59
3.13
4.51
6.15
7.20
6.79
4.31
-0.53
-7.33
-14.85
-20.94
-23.05
-19.04
-8.24
8.01
26.58
43.61
55.98
62.28
63.00
59.81
54.50
48.23
41.38
34.02
26.33
18.75
11.72
5.28
-0.89
-7.24
-13.84
-20.17
-25.14
-27.59
-26.81
-22.93
-16.95
-10.38
-4.71
-0.99
0.42
-0.17
-1.94
-3.97
-5.52
-6.27
-6.34
-6.16
-6.18
-6.69
-7.73
-9.16
-10.79
-12.50
-14.25
-16.01
-17.73
-19.27
-20.53
-21.41
-21.93
-22.19
-22.30
-22.30
-22.17
-21.87
-21.43
-20.93
-20.51
-20.28
-20.26
-20.32
-20.23
-19.76
-18.75
-17.17
-15.16
-12.89
-10.55
-8.28
-6.15
-4.23
-2.60
-1.35
-0.57
-0.23
-0.26
-0.48
-0.67
-0.67
-0.39
0.10
0.72
1.33
1.84
2.26
2.60
2.89
3.14
3.30
3.33
3.19
2.88
2.41
1.85
1.27
0.75
0.34
0.06
-0.14
-0.35
-0.64
-1.07
-1.65
-2.32
-3.00
-3.55
-3.85
-3.80
-3.36
-2.60
-1.63
-0.61
0.32
1.08
1.61
1.96
2.21
2.42
2.69
3.07
3.52
3.98
4.38
4.67
4.85
4.98
5.15
5.39
5.67
5.90
5.99
5.91
5.70
5.45
5.25
5.11
5.01
4.82
4.44
3.81
2.97
2.01
1.09
0.32
-0.31
-0.89
-1.54
-2.37
-3.38
-4.42
-5.32
-5.89
-6.06
-5.90
-5.51
-5.00
-4.40
-3.68
-2.80
-1.75
-0.61
0.55
1.59
2.49
3.21
3.80
4.29
4.73
5.13
5.50
5.82
5.98
5.91
5.48
4.69
3.65
2.52
1.56
0.90
0.60
0.52
0.52
0.41
0.15
-0.21
-0.55
-0.74
-0.75
-0.61
-0.45
-0.40
-0.59
-1.07
-1.81
-2.69
-3.55
-4.18
-4.47
-4.39
-4.04
-3.56
-3.09
-2.64
-2.16
-1.55
-0.75
0.20
1.19
2.03
2.66
3.11
3.52
4.02
4.65
5.31
5.84
6.06
5.96
5.63
5.26
4.96
4.77
4.58
4.24
3.63
2.77
1.76
0.76
-0.08
-0.65
-0.96
-1.04
-0.99
-0.94
-0.99
-1.21
-1.62
-2.14
-2.70
-3.16
-3.45
-3.50
-3.30
-2.82
-2.11
-1.21
-0.20
0.84
1.80
2.62
3.23
3.57
3.60
3.36
2.95
2.55
2.35
2.43
2.75
3.07
3.12
2.72
1.92
1.03
0.51
0.73
1.79
3.39
4.90
5.68
5.32
3.94
2.13
0.75
0.49
1.56
3.55
5.66
7.05
7.14
5.81
3.27
0.10
-2.75
-3.94
-1.98
4.27
14.85
28.25
41.72
52.13
57.29
56.74
51.79
44.61
37.10
30.14
23.61
17.06
10.33
3.87
-1.63
-5.80
-8.90
-11.75
-15.21
-19.75
-25.11
-30.56
-35.02
-37.46
-37.07
-33.45
-26.76
-17.87
-8.25
0.42
6.72
10.01
10.56
9.32
7.38
5.41
3.54
1.40
-1.45
-5.22
-9.72
-14.49
-19.03
-22.98
-26.20
-28.75
-30.72
-32.10
-32.71
-32.31
-30.72
-28.03
-24.63
-21.11
-18.07
-15.83
-14.40
-13.47
-12.57
-11.32
-9.55
-7.32
-4.90
-2.58
-0.66
0.74
1.63
2.15
2.48
2.79
3.13
3.50
3.85
4.13
4.28
4.28
4.11
3.79
3.33
2.77
2.18
1.59
0.98
0.27
-0.53
-1.39
-2.17
-2.73
-2.94
-2.74
-2.18
-1.29
-0.07
1.49
3.37
5.47
7.60
9.49
10.97
11.95
12.46
12.59
12.48
12.20
11.77
11.18
10.35
9.21
7.71
5.90
3.89
1.91
0.19
-1.08
-1.86
-2.26
-2.44
-2.56
-2.69
-2.83
-2.94
-2.96
-2.88
-2.72
-2.51
-2.28
-2.09
-2.02
-2.13
-2.43
-2.88
-3.35
-3.69
-3.79
-3.64
-3.35
-3.09
-2.97
-3.05
-3.22
-3.34
-3.28
-2.97
-2.44
-1.71
-0.77
0.46
2.08
4.12
6.48
8.92
11.15
12.90
14.05
14.62
14.74
14.57
14.20
13.66
12.93
11.99
10.87
9.64
8.38
7.15
6.01
4.96
4.02
3.23
2.61
2.18
1.90
1.68
1.37
0.88
0.17
-0.70
-1.51
-2.04
-2.08
-1.57
-0.60
0.62
1.87
3.02
4.06
5.00
5.83
6.46
6.78
6.75
6.42
5.97
5.59
5.33
5.11
4.71
3.94
2.74
1.29
-0.09
-1.09
-1.52
-1.41
-0.94
-0.43
-0.11
-0.14
-0.52
-1.19
-1.99
-2.75
-3.35
-3.71
-3.82
-3.74
-3.59
-3.43
-3.29
-3.13
-2.88
-2.51
-1.97
-1.25
-0.39
0.55
1.50
2.34
2.95
3.26
3.24
2.99
2.65
2.36
2.23
2.26
2.38
2.49
2.48
2.30
1.97
1.55
1.15
0.81
0.59
0.48
0.47
0.53
0.59
0.54
0.23
-0.44
-1.52
-2.91
-4.44
-5.90
-7.08
-7.94
-8.48
-8.80
-9.03
-9.28
-9.64
-10.15
-10.80
-11.52
-12.19
-12.65
-12.74
-12.32
-11.36
-9.91
-8.18
-6.42
-4.90
-3.80
-3.18
-2.97
-3.02
-3.20
-3.42
-3.68
-3.98
-4.26
-4.43
-4.37
-4.01
-3.38
-2.59
-1.80
-1.11
-0.58
-0.12
0.31
0.76
1.22
1.63
1.92
2.04
1.96
1.68
1.24
0.68
0.07
-0.53
-1.11
-1.69
-2.36
-3.19
-4.19
-5.29
-6.38
-7.36
-8.21
-8.98
-9.71
-10.33
-10.67
-10.52
-9.75
-8.41
-6.70
-4.91
-3.24
-1.74
-0.32
1.16
2.75
4.37
5.84
6.99
7.74
8.13
8.31
8.47
8.73
9.12
9.58
10.09
10.62
11.18
11.76
12.34
12.87
13.29
13.63
13.92
14.19
14.40
14.44
14.19
13.57
12.67
11.66
10.75
10.07
9.64
9.42
9.39
9.55
9.97
10.71
11.74
12.97
14.22
15.36
16.30
17.04
17.67
18.24
18.78
19.27
19.63
19.74
19.43
18.47
16.60
13.59
9.33
3.87
-2.51
-9.30
-15.88
-21.54
-25.70
-27.98
-28.31
-26.98
-24.52
-21.57
-18.66
-16.13
-14.07
-12.44
-11.13
-10.07
-9.21
-8.52
-7.96
-7.46
-7.00
-6.57
-6.18
-5.91
-5.82
-5.97
-6.37
-6.97
-7.65
-8.26
-8.69
-8.89
-9.00
-9.13
-9.36
-9.60
-9.61
-9.13
-8.05
-6.49
-4.73
-3.11
-1.88
-1.05
-0.53
-0.15
0.19
0.55
0.86
1.12
1.32
1.52
1.73
1.94
2.14
2.30
2.44
2.58
2.70
2.76
2.71
2.53
2.24
1.92
1.60
1.33
1.10
0.92
0.78
0.65
0.48
0.21
-0.21
-0.75
-1.33
-1.87
-2.32
-2.78
-3.37
-4.20
-5.22
-6.26
-7.08
-7.48
-7.36
-6.76
-5.80
-4.59
-3.21
-1.75
-0.30
1.01
2.04
2.74
3.10
3.22
3.20
3.14
3.12
3.16
3.30
3.50
3.71
3.87
3.92
3.84
3.71
3.65
3.74
4.01
4.34
4.60
4.64
4.43
4.02
3.55
3.17
2.93
2.84
2.83
2.85
2.84
2.78
2.64
2.38
1.91
1.15
0.04
-1.35
-2.86
-4.21
-5.15
-5.50
-5.23
-4.43
-3.28
-2.00
-0.74
0.40
1.34
2.02
2.41
2.49
2.31
1.98
1.66
1.51
1.59
1.91
2.35
2.81
3.19
3.48
3.72
3.95
4.15
4.26
4.17
3.82
3.21
2.42
1.59
0.82
0.20
-0.28
-0.66
-0.98
-1.27
-1.55
-1.81
-2.09
-2.40
-2.78
-3.22
-3.71
-4.18
-4.51
-4.58
-4.30
-3.67
-2.78
-1.76
-0.76
0.12
0.86
1.49
2.04
2.51
2.84
3.01
3.03
2.94
2.82
2.78
2.82
2.93
3.06
3.18
3.24
3.23
3.13
2.94
2.69
2.45
2.26
2.15
2.05
1.86
1.48
0.88
0.09
-0.79
-1.64
-2.40
-3.05
-3.63
-4.20
-4.78
-5.39
-5.96
-6.43
-6.66
-6.51
-5.85
-4.66
-3.04
-1.20
0.54
1.92
2.79
3.15
3.14
2.97
2.83
2.83
2.99
3.25
3.57
3.89
4.19
4.44
4.63
4.73
4.74
4.66
4.54
4.42
4.32
4.20
3.98
3.56
2.90
2.05
1.14
0.29
-0.40
-0.94
-1.44
-2.07
-2.93
-4.03
-5.28
-6.50
-7.47
-8.02
-8.04
-7.53
-6.54
-5.24
-3.78
-2.31
-0.93
0.31
1.39
2.29
2.94
3.27
3.24
2.93
2.51
2.20
2.20
2.59
3.31
4.18
4.99
5.54
5.75
5.61
5.22
4.69
4.16
3.73
3.48
3.42
3.48
3.56
3.51
3.24
2.75
2.11
1.46
0.88
0.43
0.07
-0.31
-0.82
-1.58
-2.56
-3.72
-4.87
-5.82
-6.42
-6.56
-6.20
-5.38
-4.18
-2.71
-1.13
0.42
1.75
2.73
3.28
3.43
3.30
3.00
2.63
2.23
1.84
1.53
1.37
1.41
1.63
1.95
2.28
2.52
2.70
2.83
2.97
3.05
3.00
2.70
2.13
1.37
0.54
-0.23
-0.90
-1.49
-2.09
-2.75
-3.44
-4.11
-4.71
-5.19
-5.56
-5.82
-5.89
-5.65
-4.95
-3.74
-2.11
-0.32
1.34
2.67
3.61
4.22
4.59
4.79
4.78
4.50
3.98
3.32
2.75
2.47
2.57
2.99
3.54
4.01
4.24
4.20
3.94
3.56
3.17
2.88
2.71
2.65
2.63
2.59
2.44
2.12
1.64
1.04
0.41
-0.20
-0.77
-1.33
-1.92
-2.62
-3.49
-4.50
-5.63
-6.74
-7.66
-8.20
-8.20
-7.59
-6.42
-4.87
-3.15
-1.48
-0.03
1.11
1.87
2.29
2.39
2.29
2.12
2.00
2.04
2.21
2.44
2.61
2.71
2.75
2.83
3.05
3.39
3.75
4.03
4.14
4.11
4.01
3.91
3.82
3.70
3.51
3.24
2.92
2.64
2.38
2.07
1.61
0.91
-0.01
-1.07
-2.09
-2.95
-3.56
-3.97
-4.26
-4.53
-4.82
-5.05
-5.09
-4.74
-3.88
-2.52
-0.79
1.02
2.65
3.86
4.59
4.87
4.84
4.63
4.38
4.15
3.98
3.88
3.85
3.89
4.01
4.19
4.40
4.58
4.68
4.62
4.35
3.86
3.20
2.46
1.78
1.23
0.83
0.55
0.29
0.01
-0.28
-0.52
-0.66
-0.69
-0.68
-0.75
-1.00
-1.49
-2.13
-2.82
-3.43
-3.88
-4.19
-4.38
-4.49
-4.47
-4.28
-3.83
-3.13
-2.24
-1.28
-0.39
0.32
0.78
0.97
0.94
0.75
0.52
0.34
0.26
0.29
0.37
0.43
0.45
0.46
0.55
0.76
1.13
1.57
1.96
2.17
2.09
1.71
1.09
0.37
-0.31
-0.86
-1.26
-1.57
-1.92
-2.43
-3.16
-4.09
-5.11
-6.01
-6.58
-6.66
-6.24
-5.49
-4.69
-4.15
-4.00
-4.18
-4.34
-4.10
-3.11
-1.32
1.07
3.66
6.07
8.11
9.84
11.57
13.71
16.71
21.00
26.77
33.90
41.77
49.30
55.12
58.01
57.27
52.95
45.85
37.13
27.96
19.13
10.98
3.50
-3.40
-9.76
-15.53
-20.51
-24.60
-27.70
-29.88
-31.22
-31.90
-31.96
-31.31
-29.69
-26.80
-22.58
-17.38
-11.97
-7.36
-4.34
-3.23
-3.77
-5.39
-7.58
-10.16
-13.30
-17.25
-21.92
-26.77
-30.90
-33.42
-33.88
-32.36
-29.44
-25.78
-21.94
-18.18
-14.62
-11.32
-8.46
-6.28
-4.83
-3.91
-3.05
-1.71
0.49
3.53
7.06
10.56
13.55
15.76
17.14
17.76
17.76
17.29
16.50
15.54
14.50
13.41
12.21
10.86
9.37
7.80
6.27
4.83
3.47
2.13
0.84
-0.25
-0.90
-0.91
-0.16
1.19
2.84
4.42
5.60
6.20
6.26
5.93
5.51
5.26
5.41
6.05
7.10
8.34
9.54
10.49
11.16
11.64
12.14
12.80
13.70
14.72
15.68
16.38
16.65
16.39
15.55
14.17
12.40
10.60
9.34
9.12
10.11
11.77
12.96
12.25
8.65
2.05
-6.62
-15.74
-23.74
-29.61
-33.18
-34.86
-35.28
-34.89
-33.90
-32.44
-30.67
-28.91
-27.47
-26.47
-25.79
-25.09
-23.98
-22.20
-19.73
-16.77
-13.64
-10.68
-8.13
-6.13
-4.68
-3.66
-2.85
-2.05
-1.11
-0.04
0.99
1.76
2.11
2.03
1.67
1.29
1.07
1.06
1.15
1.10
0.75
0.04
-0.88
-1.80
-2.48
-2.80
-2.74
-2.36
-1.77
-1.01
-0.14
0.82
1.83
2.84
3.74
4.46
4.97
5.27
5.42
5.47
5.49
5.49
5.46
5.35
5.10
4.65
3.99
3.20
2.38
1.65
1.15
0.90
0.92
1.08
1.28
1.40
1.36
1.16
0.82
0.42
-0.01
-0.43
-0.90
-1.46
-2.18
-3.01
-3.78
-4.21
-3.98
-2.85
-0.76
2.10
5.40
8.67
11.50
13.56
14.69
15.04
14.94
14.92
15.45
16.66
18.25
19.52
19.67
18.16
14.95
10.56
5.77
1.32
-2.32
-5.01
-6.80
-7.71
-7.72
-6.76
-4.92
-2.47
0.13
2.39
3.91
4.54
4.30
3.48
2.44
1.58
1.10
0.90
0.53
-0.69
-3.39
-7.77
-13.44
-19.38
-24.33
-27.14
-27.22
-24.63
-20.01
-14.26
-8.33
-3.01
1.13
3.77
4.79
4.35
2.83
0.81
-1.12
-2.45
-2.94
-2.60
-1.63
-0.33
1.10
2.58
4.18
6.03
8.19
10.59
12.91
14.71
15.52
15.03
13.14
10.04
6.09
1.78
-2.34
-5.75
-8.04
-9.08
-8.97
-8.13
-7.07
-6.25
-5.89
-5.92
-6.14
-6.34
-6.35
-6.13
-5.66
-4.96
-4.05
-3.02
-2.02
-1.27
-0.93
-1.03
-1.51
-2.17
-2.81
-3.28
-3.49
-3.44
-3.19
-2.83
-2.47
-2.27
-2.35
-2.81
-3.66
-4.81
-6.05
-7.15
-7.88
-8.12
-7.92
-7.44
-7.03
-7.05
-7.84
-9.48
-11.77
-14.16
-15.88
-16.12
-14.35
-10.54
-5.18
0.93
6.89
12.00
15.89
18.47
19.88
20.36
20.21
19.71
19.11
18.53
17.98
17.34
16.50
15.41
14.14
12.81
11.50
10.23
8.92
7.53
6.07
4.66
3.45
2.56
2.03
1.83
1.90
2.16
2.49
2.69
2.48
1.59
-0.10
-2.46
-5.08
-7.45
-9.13
-9.99
-10.15
-9.94
-9.66
-9.47
-9.38
-9.33
-9.29
-9.28
-9.36
-9.48
-9.45
-8.96
-7.77
-5.78
-3.12
-0.05
3.17
6.39
9.50
12.39
14.83
16.47
16.95
16.02
13.64
10.08
5.75
1.20
-3.08
-6.71
-9.51
-11.53
-12.96
-14.01
-14.85
-15.52
-16.01
-16.34
-16.57
-16.87
-17.37
-18.05
-18.79
-19.34
-19.49
-19.16
-18.40
-17.35
-16.06
-14.51
-12.58
-10.10
-6.94
-3.15
1.06
5.31
9.15
12.20
14.24
15.24
15.38
14.99
14.48
14.27
14.66
15.80
17.68
20.02
22.45
24.44
25.48
25.16
23.28
19.93
15.53
10.74
6.29
2.81
0.61
-0.35
-0.40
0.01
0.43
0.60
0.41
-0.17
-1.04
-2.03
-2.89
-3.36
-3.32
-2.87
-2.51
-2.92
-4.77
-8.32
-13.24
-18.63
-23.34
-26.37
-27.22
-25.97
-23.12
-19.35
-15.19
-10.98
-6.92
-3.13
0.21
2.91
4.76
5.63
5.47
4.30
2.24
-0.48
-3.51
-6.41
-8.70
-9.94
-9.84
-8.35
-5.73
-2.45
0.84
3.53
5.10
5.35
4.35
2.48
0.31
-1.56
-2.66
-2.78
-1.99
-0.60
1.03
2.66
4.23
5.90
7.83
10.12
12.64
15.18
17.52
19.65
21.81
24.37
27.75
32.08
37.29
43.03
48.93
54.71
60.32
65.92
71.65
77.55
83.27
88.22
91.68
93.12
92.52
90.32
87.35
84.30
81.57
79.05
76.45
73.51
70.17
66.72
63.51
61.11
60.06
60.95
64.18
69.68
76.66
83.48
88.11
88.61
83.94
74.29
61.08
46.44
32.52
20.88
11.92
4.97
-1.43
-8.80
-18.16
-29.64
-42.55
-55.94
-69.08
-81.82
-94.24
-106.39
-117.73
-127.23
-133.74
-136.43
-135.28
-131.03
-124.96
-118.37
-112.29
-107.31
-103.56
-101.01
-99.54
-99.10
-99.54
-100.58
-101.59
-101.65
-99.74
-95.10
-87.57
-77.70
-66.72
-56.07
-46.99
-40.12
-35.46
-32.48
-30.41
-28.61
-26.65
-24.43
-22.01
-19.50
-16.95
-14.41
-11.98
-9.98
-8.80
-8.77
-9.91
-11.89
-14.06
-15.80
-16.75
-17.01
-16.97
-17.06
-17.43
-17.77
-17.46
-15.86
-12.68
-8.23
-3.32
0.89
3.41
3.64
1.63
-2.08
-6.63
-11.19
-15.17
-18.25
-20.42
-21.86
-23.04
-24.59
-27.29
-31.70
-37.85
-45.08
-52.06
-57.30
-59.56
-58.29
-53.57
-45.94
-36.01
-24.29
-11.17
2.97
17.57
31.95
45.32
57.05
66.79
74.55
80.68
85.56
89.44
92.19
93.58
93.52
92.47
91.63
92.61
96.98
105.57
118.21
133.69
150.21
165.72
178.32
186.63
189.95
188.56
183.77
177.60
172.00
168.10
165.68
163.19
158.47
149.44
134.81
114.22
87.98
56.78
21.73
-15.33
-51.53
-83.01
-105.82
-117.00
-115.78
-103.83
-84.75
-62.86
-41.89
-24.52
-12.42
-6.88
-9.25
-20.87
-42.31
-72.35
-107.54
-142.50
-171.25
-188.72
-192.39
-182.94
-163.96
-140.71
-118.37
-100.58
-88.52
-81.17
-76.31
-71.73
-66.25
-59.89
-53.46
-47.73
-42.96
-38.74
-34.47
-29.86
-25.19
-21.28
-18.86
-18.14
-18.57
-19.07
-18.51
-16.32
-12.76
-8.84
-5.85
-4.73
-5.61
-7.83
-10.27
-11.99
-12.61
-12.43
-12.17
-12.57
-13.97
-16.26
-18.90
-21.16
-22.40
-22.23
-20.71
-18.27
-15.60
-13.31
-11.66
-10.43
-9.07
-7.04
-4.18
-0.88
2.10
4.00
4.50
3.89
2.90
2.41
3.01
4.82
7.46
10.23
12.45
13.67
13.87
13.46
13.21
13.90
16.10
19.87
24.66
29.43
32.92
34.02
32.09
27.20
20.12
12.26
5.39
1.14
0.53
3.43
8.53
13.70
16.69
16.03
11.56
4.52
-3.13
-9.49
-13.46
-14.90
-14.44
-12.91
-10.88
-8.53
-5.80
-2.71
0.48
3.22
4.88
5.07
3.82
1.63
-0.76
-2.56
-3.31
-2.90
-1.67
-0.25
0.65
0.40
-1.34
-4.48
-8.56
-12.85
-16.57
-19.14
-20.41
-20.67
-20.53
-20.65
-21.45
-22.93
-24.68
-26.17
-26.94
-26.90
-26.26
-25.48
-25.15
-25.85
-28.21
-32.83
-40.03
-49.37
-59.38
-67.63
-71.40
-68.75
-59.34
-44.57
-26.96
-9.00
7.75
22.93
36.93
50.06
62.01
71.87
78.72
82.23
82.91
81.81
79.91
77.73
75.28
72.36
69.00
65.60
62.78
61.03
60.29
59.98
59.08
56.55
51.46
43.28
31.86
17.73
2.15
-12.99
-25.61
-34.06
-37.73
-37.18
-33.78
-29.23
-24.82
-21.30
-18.87
-17.47
-16.95
-17.04
-17.41
-17.54
-16.99
-15.49
-13.16
-10.47
-8.14
-6.92
-7.35
-9.63
-13.40
-17.80
-21.61
-23.57
-22.87
-19.45
-14.02
-7.80
-2.01
2.57
5.82
8.19
10.47
13.54
18.18
24.93
33.96
44.96
57.24
70.02
82.76
95.40
108.25
121.49
134.76
147.05
157.02
163.55
166.02
163.96
156.49
142.08
119.11
87.05
47.44
4.02
-38.49
-76.06
-106.69
-130.35
-147.94
-159.93
-165.89
-165.18
-158.20
-147.18
-135.67
-126.98
-122.59
-121.39
-120.46
-116.56
-107.78
-94.13
-77.07
-58.34
-38.83
-18.11
5.16
32.28
63.62
97.99
132.77
164.55
190.02
206.79
213.71
210.72
198.61
178.67
152.55
122.33
90.33
58.86
29.74
3.92
-18.33
-37.10
-52.25
-63.24
-69.40
-70.52
-67.58
-63.00
-60.16
-62.27
-70.98
-85.53
-102.92
-119.17
-131.10
-137.61
-139.69
-139.21
-137.39
-134.12
-128.53
-120.34
-111.11
-104.14
-102.90
-108.81
-119.69
-130.26
-134.36
-127.79
-110.01
-84.06
-54.70
-26.09
-0.07
24.16
49.19
77.84
111.65
149.97
190.13
228.24
260.45
284.00
297.77
301.90
297.06
283.59
261.07
228.51
185.42
133.03
74.92
16.80
-34.92
-74.86
-100.31
-111.83
-112.71
-107.46
-100.09
-92.95
-86.62
-80.76
-75.15
-70.40
-67.77
-68.33
-72.10
-77.65
-82.67
-84.90
-83.17
-77.79
-70.36
-62.89
-56.86
-52.78
-50.08
-47.86
-45.40
-42.89
-41.41
-42.66
-48.29
-59.17
-74.80
-92.93
-109.82
-120.92
-122.14
-111.04
-87.55
-54.04
-14.46
26.72
65.50
98.83
124.93
143.28
154.77
161.51
166.27
171.65
179.01
187.95
196.45
201.79
201.50
194.00
178.82
156.25
127.34
93.85
58.52
24.74
-4.24
-26.46
-42.21
-53.90
-65.15
-78.99
-96.45
-116.09
-134.56
-148.20
-154.52
-153.06
-145.17
-133.32
-119.89
-106.60
-94.31
-83.14
-72.86
-62.94
-52.77
-41.55
-28.61
-13.59
3.27
20.97
38.02
52.73
63.71
70.10
71.66
68.68
61.83
52.10
40.57
28.43
16.51
5.28
-5.29
-15.45
-25.37
-34.83
-43.09
-49.30
-52.78
-53.60
-52.47
-50.64
-49.42
-49.63
-51.49
-54.44
-57.52
-59.45
-59.08
-55.65
-48.94
-39.46
-28.19
-16.43
-5.30
4.46
12.72
19.75
26.01
31.87
37.32
42.11
45.77
47.97
48.62
47.95
46.45
44.67
43.13
42.13
41.86
42.24
43.05
43.79
43.68
41.81
37.34
30.05
20.57
10.46
1.76
-3.76
-5.19
-2.97
1.48
6.20
9.51
10.39
8.73
5.14
0.66
-3.58
-6.79
-8.73
-9.93
-11.41
-14.31
-19.34
-26.40
-34.62
-42.68
-49.38
-54.10
-56.98
-58.80
-60.52
-62.84
-65.84
-68.91
-71.05
-71.32
-69.30
-65.29
-60.09
-54.53
-49.03
-43.52
-37.58
-30.93
-23.73
-16.63
-10.58
-6.41
-4.54
-4.76
-6.32
-8.16
-9.19
-8.71
-6.57
-3.17
0.66
4.01
6.11
6.52
5.26
2.83
0.10
-1.87
-2.20
-0.57
2.64
6.48
9.93
12.40
13.97
15.22
16.80
19.13
22.23
26.03
30.49
35.63
41.34
47.12
52.07
55.14
55.55
53.11
48.33
42.18
35.80
30.24
26.28
24.34
24.51
26.64
30.41
35.60
42.23
50.46
60.22
70.62
79.79
85.10
84.11
75.69
60.67
41.76
22.61
6.80
-3.13
-6.03
-2.36
5.90
15.44
22.10
21.97
12.66
-5.44
-28.96
-52.52
-70.58
-79.42
-78.30
-69.29
-56.11
-42.65
-31.76
-24.88
-22.26
-23.30
-26.85
-31.39
-35.04
-35.84
-32.27
-23.98
-12.10
0.87
11.81
18.16
18.85
14.53
7.13
-1.18
-8.64
-14.38
-18.28
-20.73
-22.35
-23.79
-25.53
-27.68
-29.87
-31.38
-31.39
-29.44
-25.62
-20.55
-15.07
-10.03
-6.16
-4.04
-4.05
-6.26
-10.19
-14.75
-18.52
-20.30
-19.66
-17.14
-13.92
-11.19
-9.58
-8.89
-8.28
-6.88
-4.18
-0.22
4.56
9.65
14.74
19.82
25.07
30.75
37.08
44.23
52.40
61.80
72.36
83.55
94.14
102.37
106.57
105.90
101.06
94.33
88.74
86.74
88.85
93.12
95.79
93.06
82.89
66.24
46.68
28.99
17.20
13.09
15.90
22.94
30.76
36.18
36.84
31.38
19.57
2.41
-17.76
-37.23
-51.60
-56.85
-50.69
-33.65
-9.33
16.30
36.37
44.87
38.20
16.09
-18.37
-59.27
-99.21
-130.95
-149.03
-150.98
-137.66
-112.70
-81.36
-49.08
-20.45
1.43
15.13
20.78
19.84
14.70
7.99
1.91
-2.21
-4.06
-4.09
-3.15
-2.27
-2.37
-4.11
-7.67
-12.46
-17.18
-20.09
-19.78
-15.81
-9.05
-1.44
4.69
7.40
5.89
0.61
-6.90
-14.52
-20.18
-22.41
-20.67
-15.38
-7.67
1.07
9.45
16.27
20.60
21.80
19.58
14.07
5.97
-3.56
-13.11
-21.38
-27.46
-30.96
-32.00
-31.05
-28.73
-25.67
-22.36
-19.11
-16.07
-13.33
-10.97
-9.18
-8.19
-8.24
-9.34
-11.28
-13.57
-15.58
-16.80
-17.00
-16.34
-15.29
-14.48
-14.38
-15.20
-16.79
-18.70
-20.37
-21.22
-20.84
-19.04
-15.85
-11.57
-6.67
-1.74
2.65
5.99
7.99
8.61
8.08
6.87
5.56
4.63
4.38
4.77
5.52
6.24
6.66
6.66
6.33
5.80
5.15
4.33
3.25
1.86
0.24
-1.41
-2.79
-3.71
-4.10
-4.03
-3.70
-3.30
-2.99
-2.75
-2.50
-2.08
-1.39
-0.45
0.68
1.86
3.03
4.24
5.60
7.23
9.10
11.07
12.88
14.28
15.17
15.59
15.69
15.63
15.49
15.27
14.92
14.41
13.83
13.27
12.79
12.34
11.74
10.75
9.24
7.22
4.87
2.45
0.22
-1.69
-3.29
-4.63
-5.81
-6.85
-7.78
-8.67
-9.65
-10.92
-12.62
-14.72
-16.97
-18.94
-20.12
-20.13
-18.80
-16.22
-12.72
-8.65
-4.32
0.10
4.49
8.73
12.60
15.81
18.16
19.64
20.40
20.79
21.07
21.37
21.60
21.62
21.33
20.75
20.04
19.33
18.65
17.86
16.71
15.06
12.86
10.33
7.77
5.52
3.76
2.52
1.62
0.81
-0.15
-1.40
-2.91
-4.53
-6.09
-7.41
-8.35
-8.82
-8.84
-8.38
-7.55
-6.40
-5.01
-3.41
-1.64
0.28
2.27
4.23
6.00
7.45
8.48
9.08
9.33
9.36
9.37
9.56
10.04
10.78
11.58
12.16
12.31
11.98
11.31
10.56
9.96
9.63
9.50
9.40
9.14
8.60
7.74
6.53
5.01
3.23
1.31
-0.65
-2.58
-4.55
-6.80
-9.62
-13.25
-17.72
-22.76
-27.82
-32.13
-34.94
-35.68
-34.21
-30.84
-26.32
-21.59
-17.49
-14.54
-12.86
-12.24
-12.33
-12.82
-13.45
-14.02
-14.32
-14.19
-13.58
-12.64
-11.67
-10.93
-10.53
-10.28
-9.87
-8.99
-7.60
-5.90
-4.23
-2.89
-2.02
-1.54
-1.33
-1.23
-1.17
-1.11
-1.03
-0.89
-0.67
-0.41
-0.25
-0.45
-1.25
-2.76
-4.82
-6.97
-8.62
-9.20
-8.46
-6.56
-4.03
-1.48
0.56
1.93
2.88
3.87
5.39
7.65
10.47
13.26
15.34
16.12
15.50
13.98
12.48
12.00
13.09
15.52
18.24
19.74
18.72
14.76
8.78
2.86
-0.28
1.59
9.38
21.98
36.17
47.42
51.22
44.71
27.90
4.18
-20.26
-38.10
-43.15
-32.54
-7.83
25.23
58.54
84.15
96.68
94.69
80.66
59.73
37.78
19.62
7.76
2.13
0.63
0.32
-1.40
-5.79
-12.43
-19.56
-25.03
-27.38
-26.50
-23.53
-20.21
-18.03
-17.60
-18.68
-20.70
-23.18
-26.05
-29.36
-32.93
-36.13
-38.10
-38.29
-36.86
-34.79
-33.46
-34.00
-36.72
-41.03
-45.71
-49.39
-51.07
-50.37
-47.57
-43.49
-39.19
-35.60
-33.18
-31.77
-30.72
-29.20
-26.61
-22.70
-17.58
-11.50
-4.73
2.48
9.79
16.69
22.60
27.02
29.71
30.79
30.58
29.46
27.75
25.64
23.33
21.04
19.08
17.70
17.04
17.00
17.28
17.53
17.43
16.88
16.05
15.28
14.90
15.11
15.86
16.90
17.89
18.53
18.60
17.94
16.44
14.03
10.71
6.70
2.39
-1.67
-4.96
-7.08
-7.93
-7.70
-6.75
-5.56
-4.58
-4.17
-4.39
-4.94
-5.05
-3.80
-0.45
4.99
11.63
17.98
22.65
25.03
25.43
24.79
23.88
22.82
21.24
19.12
17.48
18.37
23.92
35.05
50.67
68.04
84.09
96.75
105.32
109.85
109.92
104.16
90.89
69.57
41.90
11.74
-16.20
-38.40
-53.67
-63.16
-69.01
-72.93
-75.34
-75.69
-73.37
-68.64
-62.91
-57.92
-54.80
-53.37
-52.15
-49.26
-43.53
-35.29
-26.53
-20.05
-18.24
-22.01
-30.42
-41.16
-51.73
-60.21
-65.74
-68.16
-67.45
-63.39
-55.69
-44.48
-30.75
-16.46
-3.93
5.02
9.73
10.88
9.94
8.45
7.39
6.92
6.69
6.16
5.08
3.52
1.82
0.35
-0.69
-1.40
-1.99
-2.72
-3.67
-4.70
-5.50
-5.76
-5.31
-4.19
-2.64
-0.95
0.60
1.88
2.87
3.68
4.46
5.29
6.24
7.25
8.22
9.04
9.65
10.03
10.20
10.15
9.81
9.11
8.08
6.85
5.67
4.80
4.40
4.45
4.81
5.26
5.62
5.76
5.69
5.46
5.14
4.76
4.37
3.95
3.48
2.91
2.23
1.40
0.48
-0.47
-1.34
-2.05
-2.51
-2.66
-2.47
-1.93
-1.07
0.00
1.17
2.24
3.06
3.59
3.88
4.10
4.44
5.04
5.88
6.82
7.65
8.14
8.17
7.75
7.04
6.23
5.54
5.11
4.98
5.05
5.20
5.28
5.18
4.87
4.37
3.71
2.90
1.94
0.86
-0.33
-1.53
-2.67
-3.69
-4.60
-5.40
-6.10
-6.63
-6.84
-6.58
-5.74
-4.37
-2.66
-0.88
0.68
1.86
2.63
3.09
3.40
3.74
4.23
4.89
5.67
6.42
6.95
7.09
6.72
5.91
4.90
3.99
3.41
3.18
3.07
2.70
1.73
0.05
-2.09
-4.21
-5.72
-6.18
-5.42
-3.68
-1.61
-0.19
-0.49
-3.37
-9.07
-16.92
-25.27
-31.80
-34.21
-31.04
-22.20
-8.98
6.34
21.26
33.76
42.72
47.87
49.51
48.19
44.55
39.23
32.91
26.27
19.83
13.91
8.55
3.66
-0.84
-4.90
-8.35
-11.02
-12.86
-14.04
-14.89
-15.86
-17.26
-19.27
-21.88
-25.03
-28.66
-32.78
-37.36
-42.15
-46.48
-49.27
-49.23
-45.35
-37.47
-26.52
-14.40
-3.21
5.69
12.34
18.16
25.26
35.42
49.16
65.68
83.29
100.14
114.58
125.20
130.62
129.60
121.50
106.95
88.10
68.20
50.53
37.03
27.64
20.49
12.96
2.87
-10.64
-27.01
-44.72
-61.89
-76.78
-88.12
-95.26
-98.31
-98.11
-95.99
-93.36
-91.40
-90.66
-91.19
-92.54
-93.78
-93.22
-88.39
-76.37
-54.85
-23.30
16.33
59.98
102.90
141.47
174.26
201.82
225.40
245.40
260.52
268.19
265.76
251.86
227.05
193.45
153.86
110.84
66.30
21.63
-21.64
-61.33
-94.53
-118.20
-130.27
-130.54
-121.07
-105.83
-89.49
-75.98
-67.25
-63.06
-61.51
-60.27
-57.65
-53.09
-47.00
-40.15
-33.01
-25.65
-18.05
-10.62
-4.42
-0.88
-1.05
-4.92
-11.12
-17.41
-21.60
-22.44
-20.05
-15.71
-11.19
-7.95
-6.67
-7.10
-8.45
-9.77
-10.43
-10.23
-9.30
-7.90
-6.21
-4.25
-1.93
0.76
3.61
6.37
8.87
11.27
13.83
16.69
19.53
21.49
21.67
19.62
15.77
11.25
7.28
4.46
2.40
0.07
-3.52
-8.57
-14.26
-19.18
-22.10
-22.57
-21.08
-18.64
-16.17
-14.10
-12.35
-10.63
-8.85
-7.21
-6.08
-5.62
-5.59
-5.40
-4.43
-2.40
0.43
3.34
5.39
5.79
4.03
0.06
-5.71
-12.38
-18.63
-22.96
-24.20
-21.98
-17.04
-11.02
-5.91
-3.20
-3.30
-5.42
-8.03
-9.59
-9.25
-7.07
-3.85
-0.58
2.07
3.97
5.45
6.90
8.45
9.83
10.56
10.20
8.72
6.55
4.41
3.04
2.90
4.01
6.07
8.56
10.97
12.70
13.15
11.71
7.95
1.91
-5.79
-13.92
-21.02
-25.72
-27.28
-25.77
-22.01
-17.26
-12.78
-9.50
-7.75
-7.40
-7.94
-8.79
-9.45
-9.54
-8.77
-6.96
-4.12
-0.56
2.99
5.61
6.43
4.95
1.23
-4.22
-10.63
-17.33
-23.69
-29.22
-33.45
-35.96
-36.49
-35.13
-32.26
-28.42
-24.20
-20.14
-16.84
-14.82
-14.24
-14.44
-13.66
-9.38
0.68
17.36
39.26
62.84
83.54
97.31
101.94
97.43
85.54
68.86
49.88
30.55
12.28
-3.77
-16.55
-25.08
-28.64
-27.06
-21.01
-11.83
-1.28
8.96
17.74
24.47
28.90
30.75
29.53
24.66
15.84
3.49
-11.19
-26.36
-40.06
-50.63
-57.06
-59.13
-57.39
-53.07
-47.72
-42.92
-39.75
-38.54
-38.80
-39.55
-39.81
-39.04
-37.28
-34.98
-32.71
-30.78
-29.16
-27.57
-25.73
-23.39
-20.39
-16.52
-11.40
-4.69
3.73
13.47
23.64
33.03
40.53
45.49
47.75
47.54
45.13
40.61
34.13
26.25
18.24
11.96
9.16
10.62
15.55
21.78
26.62
27.98
25.18
18.93
10.64
1.55
-7.76
-17.29
-26.97
-36.30
-44.15
-49.31
-51.02
-49.43
-45.49
-40.52
-35.58
-31.17
-27.14
-22.97
-18.16
-12.60
-6.58
-0.76
4.16
7.70
9.76
10.64
10.90
11.17
11.96
13.54
15.81
18.27
20.16
20.71
19.39
16.29
12.09
7.86
4.66
3.08
3.07
3.95
4.84
5.03
4.27
2.81
1.21
0.08
-0.22
0.26
1.13
1.84
1.96
1.40
0.50
-0.20
-0.13
0.98
3.03
5.56
7.97
9.66
10.14
9.18
7.04
4.62
3.38
4.95
10.36
19.48
30.68
41.36
48.85
51.53
49.32
43.58
36.22
28.81
21.89
15.13
7.82
-0.40
-9.16
-17.50
-24.34
-29.04
-31.69
-33.02
-33.92
-34.90
-35.86
-36.21
-35.32
-33.00
-29.72
-26.33
-23.65
-21.92
-20.69
-19.03
-16.07
-11.49
-5.74
0.08
4.67
7.08
7.01
4.92
1.70
-1.63
-4.31
-5.95
-6.47
-5.95
-4.58
-2.59
-0.33
1.82
3.64
5.31
7.37
10.43
14.74
19.69
23.86
25.46
23.18
16.92
7.97
-1.38
-8.82
-12.84
-13.33
-11.37
-8.56
-6.28
-5.13
-4.89
-4.84
-4.27
-2.82
-0.62
1.98
4.64
7.17
9.51
11.62
13.33
14.35
14.47
13.59
11.91
9.80
7.69
5.99
4.87
4.31
4.09
3.89
3.45
2.67
1.66
0.63
-0.13
-0.51
-0.56
-0.49
-0.57
-0.97
-1.72
-2.68
-3.56
-3.92
-3.34
-1.50
1.62
5.66
9.92
13.52
15.78
16.33
15.26
12.96
9.97
6.82
3.87
1.34
-0.72
-2.43
-4.05
-5.85
-8.01
-10.47
-12.91
-14.94
-16.24
-16.85
-17.15
-17.81
-19.49
-22.50
-26.67
-31.38
-35.86
-39.44
-41.86
-43.20
-43.77
-43.84
-43.50
-42.76
-41.71
-40.70
-40.11
-40.07
-40.06
-38.92
-35.25
-28.06
-17.36
-4.32
9.19
21.32
30.88
37.66
42.20
45.25
47.30
48.26
47.63
44.81
39.55
32.17
23.58
15.05
7.82
2.74
0.01
-0.71
-0.09
1.18
2.63
4.05
5.39
6.60
7.54
8.01
7.88
7.20
6.20
5.26
4.71
4.70
5.16
5.82
6.39
6.67
6.64
6.42
6.20
6.13
6.31
6.64
6.92
6.87
6.31
5.20
3.72
2.23
1.08
0.52
0.51
0.86
1.27
1.53
1.60
1.56
1.53
1.60
1.84
2.29
2.98
3.97
5.24
6.66
8.02
9.08
9.68
9.80
9.53
9.05
8.51
7.96
7.38
6.66
5.71
4.46
2.91
1.20
-0.48
-1.89
-2.83
-3.21
-3.09
-2.68
-2.22
-1.94
-1.97
-2.30
-2.85
-3.49
-4.01
-4.24
-3.99
-3.18
-1.84
-0.15
1.56
2.99
3.91
4.29
4.25
4.03
3.82
3.71
3.69
3.66
3.57
3.41
3.30
3.35
3.64
4.14
4.74
5.27
5.62
5.79
5.84
5.86
5.90
5.92
5.86
5.63
5.23
4.68
4.04
3.34
2.59
1.81
1.03
0.30
-0.40
-1.13
-2.00
-3.12
-4.48
-5.95
-7.26
-8.12
-8.30
-7.69
-6.34
-4.44
-2.24
-0.01
1.99
3.60
4.73
5.40
5.67
5.62
5.32
4.83
4.19
3.48
2.76
2.10
1.60
1.29
1.17
1.23
1.40
1.55
1.47
0.93
-0.32
-2.39
-5.19
-8.40
-11.56
-14.16
-15.87
-16.58
-16.46
-15.86
-15.20
-14.77
-14.61
-14.49
-14.02
-12.79
-10.63
-7.63
-4.11
-0.52
2.80
5.68
8.04
9.83
10.96
11.28
10.69
9.27
7.34
5.35
3.76
2.89
2.78
3.31
4.21
5.26
6.28
7.19
7.96
8.55
8.90
8.96
8.68
8.09
7.27
6.32
5.31
4.27
3.13
1.81
0.28
-1.42
-3.15
-4.79
-6.22
-7.41
-8.28
-8.76
-8.70
-7.97
-6.54
-4.55
-2.26
0.04
2.11
3.85
5.22
6.23
6.82
6.92
6.51
5.65
4.53
3.46
2.70
2.42
2.58
3.00
3.41
3.62
3.55
3.24
2.81
2.37
2.00
1.71
1.51
1.41
1.44
1.63
1.98
2.46
2.96
3.24
3.03
2.03
0.07
-2.82
-6.25
-9.60
-12.14
-13.28
-12.75
-10.68
-7.56
-4.08
-0.96
1.26
2.26
1.95
0.52
-1.67
-4.11
-6.27
-7.69
-8.15
-7.67
-6.48
-4.90
-3.17
-1.37
0.57
2.77
5.23
7.79
10.15
11.99
13.05
13.21
12.48
10.92
8.65
5.79
2.58
-0.66
-3.53
-5.67
-6.88
-7.23
-7.04
-6.69
-6.51
-6.55
-6.67
-6.55
-5.92
-4.72
-3.09
-1.33
0.25
1.49
2.38
3.02
3.57
4.12
4.68
5.23
5.69
6.04
6.26
6.36
6.31
6.12
5.78
5.32
4.78
4.18
3.53
2.79
1.94
0.98
-0.02
-0.97
-1.75
-2.32
-2.69
-2.95
-3.22
-3.62
-4.22
-5.01
-5.94
-6.90
-7.76
-8.45
-8.96
-9.36
-9.72
-10.05
-10.24
-10.08
-9.30
-7.70
-5.21
-1.93
1.90
5.98
9.98
13.67
16.89
19.63
21.96
23.99
25.81
27.38
28.53
28.92
28.19
26.07
22.51
17.86
12.73
7.91
4.09
1.62
0.43
0.08
0.00
-0.30
-1.01
-1.93
-2.65
-2.74
-1.90
-0.19
2.08
4.44
6.45
7.78
8.29
7.98
6.89
5.12
2.88
0.49
-1.66
-3.11
-3.57
-3.01
-1.67
0.00
1.54
2.63
3.24
3.54
3.76
4.02
4.28
4.30
3.80
2.67
1.05
-0.72
-2.25
-3.23
-3.60
-3.49
-3.12
-2.70
-2.35
-2.09
-1.93
-1.91
-2.03
-2.31
-2.68
-3.02
-3.27
-3.41
-3.52
-3.67
-3.93
-4.24
-4.52
-4.65
-4.54
-4.11
-3.34
-2.27
-0.98
0.39
1.64
2.59
3.12
3.29
3.25
3.18
3.18
3.25
3.20
2.87
2.11
0.99
-0.29
-1.46
-2.26
-2.61
-2.56
-2.32
-2.11
-2.09
-2.28
-2.64
-3.03
-3.38
-3.66
-3.89
-4.11
-4.32
-4.46
-4.54
-4.55
-4.63
-4.90
-5.52
-6.46
-7.60
-8.67
-9.39
-9.57
-9.17
-8.27
-6.99
-5.46
-3.79
-2.09
-0.51
0.80
1.74
2.34
2.68
2.93
3.20
3.48
3.65
3.61
3.28
2.70
2.00
1.31
0.70
0.15
-0.40
-1.05
-1.82
-2.68
-3.52
-4.22
-4.70
-4.94
-5.01
-5.03
-5.09
-5.23
-5.41
-5.58
-5.63
-5.50
-5.14
-4.50
-3.58
-2.38
-1.01
0.39
1.61
2.50
3.00
3.17
3.17
3.18
3.24
3.31
3.20
2.72
1.75
0.34
-1.27
-2.82
-4.04
-4.80
-5.14
-5.18
-5.09
-4.98
-4.88
-4.79
-4.72
-4.69
-4.75
-4.91
-5.12
-5.32
-5.43
-5.46
-5.57
-6.00
-6.98
-8.55
-10.52
-12.42
-13.72
-14.04
-13.26
-11.61
-9.51
-7.40
-5.59
-4.21
-3.19
-2.34
-1.45
-0.36
0.92
2.25
3.38
4.12
4.42
4.48
4.69
5.45
6.97
9.16
11.68
14.05
15.89
17.00
17.48
17.67
18.14
19.58
22.60
27.44
33.72
40.29
45.43
47.33
44.76
37.54
26.69
14.13
2.00
-8.01
-15.13
-19.51
-21.92
-23.24
-24.06
-24.56
-24.66
-24.33
-23.73
-23.30
-23.42
-24.25
-25.54
-26.73
-27.20
-26.62
-25.08
-23.02
-20.97
-19.31
-18.07
-17.04
-15.87
-14.33
-12.40
-10.33
-8.46
-7.10
-6.35
-6.06
-5.93
-5.62
-4.93
-3.88
-2.63
-1.43
-0.46
0.21
0.63
0.87
1.05
1.18
1.26
1.27
1.19
1.05
0.92
0.88
0.99
1.31
1.80
2.38
2.97
3.48
3.89
4.20
4.49
4.81
5.20
5.64
6.06
6.37
6.47
6.30
5.86
5.25
4.62
4.15
3.92
3.93
4.07
4.18
4.15
3.92
3.57
3.18
2.87
2.62
2.35
1.89
1.14
0.10
-1.11
-2.29
-3.33
-4.15
-4.75
-5.11
-5.18
-4.88
-4.21
-3.32
-2.45
-1.86
-1.70
-1.93
-2.37
-2.80
-3.09
-3.19
-3.12
-2.90
-2.51
-1.93
-1.18
-0.35
0.44
1.06
1.41
1.49
1.44
1.45
1.80
2.69
4.14
5.98
7.82
9.20
9.73
9.28
7.97
6.23
4.54
3.28
2.63
2.47
2.51
2.40
1.91
1.01
-0.12
-1.25
-2.16
-2.80
-3.19
-3.38
-3.30
-2.79
-1.65
0.19
2.52
4.94
6.96
8.18
8.53
8.27
7.92
8.02
8.93
10.73
13.19
15.89
18.33
20.11
20.89
20.50
19.09
17.18
15.76
16.00
18.79
24.14
30.96
37.21
40.67
39.88
34.67
26.24
16.49
7.15
-0.83
-7.38
-12.97
-18.07
-22.81
-26.98
-30.29
-32.65
-34.25
-35.41
-36.43
-37.32
-37.84
-37.60
-36.35
-34.08
-31.14
-28.02
-25.21
-22.93
-21.10
-19.34
-17.19
-14.33
-10.70
-6.49
-2.09
2.15
6.00
9.37
12.27
14.75
16.81
18.50
19.88
21.04
22.02
22.81
23.42
23.88
24.37
25.15
26.47
28.36
30.54
32.47
33.51
33.23
31.62
29.14
26.58
24.84
24.55
25.78
27.96
29.96
30.43
28.23
22.82
14.49
4.22
-6.55
-16.50
-24.67
-30.74
-34.86
-37.51
-39.18
-40.23
-40.85
-41.09
-40.92
-40.31
-39.18
-37.46
-35.08
-31.96
-28.03
-23.29
-17.78
-11.76
-5.60
0.23
5.24
9.16
11.91
13.62
14.47
14.56
13.86
12.26
9.69
6.28
2.39
-1.54
-5.07
-8.00
-10.34
-12.30
-14.12
-15.98
-17.89
-19.72
-21.18
-21.98
-21.85
-20.64
-18.39
-15.31
-11.75
-8.07
-4.52
-1.21
1.87
4.77
7.48
9.87
11.76
12.98
13.47
13.26
12.42
11.00
9.02
6.54
3.77
1.03
-1.29
-2.89
-3.68
-3.83
-3.62
-3.34
-3.11
-2.87
-2.47
-1.75
-0.73
0.44
1.52
2.39
3.07
3.76
4.73
6.08
7.74
9.37
10.60
11.17
10.97
10.16
8.92
7.43
5.80
4.07
2.30
0.63
-0.76
-1.77
-2.38
-2.74
-2.99
-3.24
-3.48
-3.55
-3.29
-2.60
-1.57
-0.42
0.54
1.12
1.30
1.23
1.19
1.38
1.83
2.39
2.81
2.90
2.61
2.07
1.51
1.13
1.00
1.06
1.16
1.15
0.94
0.55
0.08
-0.34
-0.63
-0.81
-0.91
-1.03
-1.22
-1.50
-1.87
-2.31
-2.86
-3.48
-4.12
-4.64
-4.83
-4.53
-3.71
-2.48
-1.06
0.26
1.35
2.17
2.79
3.30
3.70
3.94
3.93
3.61
3.05
2.40
1.79
1.33
1.01
0.74
0.39
-0.10
-0.74
-1.44
-2.05
-2.42
-2.45
-2.12
-1.51
-0.79
-0.17
0.21
0.31
0.28
0.26
0.41
0.72
1.07
1.31
1.32
1.14
0.84
0.45
-0.05
-0.75
-1.59
-2.29
-2.41
-1.60
0.17
2.47
4.54
5.65
5.39
3.81
1.39
-1.23
-3.49
-5.02
-5.70
-5.53
-4.66
-3.35
-1.97
-0.89
-0.36
-0.36
-0.58
-0.52
0.32
2.21
5.05
8.42
11.72
14.37
16.03
16.68
16.75
16.99
18.39
21.71
27.15
34.00
40.67
45.17
45.80
41.88
33.95
23.56
12.54
2.37
-6.24
-13.29
-19.14
-24.15
-28.41
-31.86
-34.36
-35.94
-36.70
-36.85
-36.51
-35.74
-34.50
-32.74
-30.47
-27.75
-24.70
-21.48
-18.22
-15.06
-12.05
-9.14
-6.21
-3.12
0.22
3.75
7.23
10.26
12.47
13.67
13.92
13.53
12.93
12.54
12.56
13.00
13.72
14.58
15.53
16.67
18.22
20.32
23.01
26.12
29.32
32.22
34.47
35.88
36.25
35.31
32.57
27.43
19.35
8.39
-4.71
-18.47
-31.12
-41.12
-47.54
-50.25
-49.71
-46.64
-41.71
-35.54
-28.69
-21.70
-15.20
-9.72
-5.60
-3.05
-2.13
-2.79
-4.80
-7.74
-10.95
-13.72
-15.49
-16.11
-15.81
-14.95
-13.80
-12.34
-10.26
-7.24
-3.17
1.70
6.78
11.37
14.88
16.96
17.56
16.82
15.03
12.50
9.53
6.39
3.25
0.29
-2.35
-4.51
-6.06
-6.98
-7.40
-7.61
-7.90
-8.47
-9.33
-10.31
-11.15
-11.65
-11.78
-11.65
-11.52
-11.68
-12.41
-13.81
-15.81
-18.11
-20.26
-21.86
-22.67
-22.74
-22.39
-22.05
-22.14
-22.84
-24.06
-25.45
-26.49
-26.58
-25.25
-22.33
-18.15
-13.59
-10.00
-8.83
-11.18
-17.30
-26.44
-37.02
-47.24
-55.69
-61.75
-65.62
-68.00
-69.60
-70.82
-71.63
-71.82
-71.31
-70.31
-69.26
-68.65
-68.68
-69.00
-68.82
-66.97
-62.22
-53.63
-40.69
-23.50
-2.74
20.41
44.60
68.44
90.76
110.67
127.51
140.71
149.57
153.32
151.34
143.64
131.17
115.76
99.56
84.42
71.47
61.14
53.54
48.69
46.64
47.00
48.74
50.17
49.49
45.63
38.73
30.15
21.81
15.31
11.40
9.80
9.59
9.45
8.19
4.95
-0.58
-7.98
-16.18
-23.70
-29.05
-31.14
-29.61
-24.77
-17.46
-8.75
0.28
8.62
15.45
20.19
22.61
22.90
21.75
20.03
18.62
18.02
18.21
18.71
18.82
18.05
16.28
13.86
11.40
9.55
8.76
9.16
10.58
12.56
14.49
15.72
15.71
14.21
11.34
7.51
3.21
-1.15
-5.39
-9.45
-13.23
-16.53
-19.12
-20.86
-21.90
-22.71
-23.79
-25.43
-27.50
-29.47
-30.64
-30.40
-28.48
-24.97
-20.34
-15.24
-10.35
-6.13
-2.71
0.12
2.73
5.31
7.76
9.74
10.92
11.29
11.26
11.57
12.84
15.25
18.41
21.51
23.70
24.39
23.31
20.46
15.96
9.98
2.78
-5.25
-13.67
-22.02
-29.94
-37.18
-43.45
-48.37
-51.46
-52.27
-50.58
-46.45
-40.24
-32.50
-23.81
-14.76
-5.95
1.97
8.34
12.65
14.73
14.80
13.39
11.12
8.48
5.67
2.76
-0.27
-3.34
-6.24
-8.72
-10.52
-11.53
-11.86
-11.83
-11.90
-12.43
-13.43
-14.41
-14.55
-13.00
-9.33
-3.87
2.42
8.27
12.53
14.61
14.55
12.88
10.37
7.91
6.27
6.07
7.61
10.85
15.27
19.92
23.65
25.39
24.56
21.23
16.19
10.64
5.75
2.20
0.04
-1.26
-2.39
-3.80
-5.45
-6.93
-7.72
-7.59
-6.62
-5.21
-3.71
-2.27
-0.72
1.23
3.83
7.02
10.48
13.78
16.52
18.54
19.77
20.16
19.51
17.49
13.87
8.74
2.65
-3.51
-8.77
-12.51
-14.63
-15.53
-15.87
-16.27
-17.15
-18.57
-20.36
-22.19
-23.67
-24.48
-24.33
-23.09
-20.76
-17.46
-13.49
-9.30
-5.46
-2.57
-1.07
-1.04
-2.08
-3.39
-4.01
-3.22
-0.82
2.82
6.94
10.72
13.63
15.48
16.35
16.39
15.65
14.06
11.56
8.23
4.36
0.48
-2.81
-5.00
-5.80
-5.18
-3.39
-0.86
1.98
4.71
7.11
9.16
11.03
12.93
15.02
17.26
19.44
21.25
22.45
22.90
22.53
21.31
19.19
16.12
12.24
7.88
3.56
-0.21
-3.16
-5.33
-7.08
-8.83
-10.90
-13.30
-15.79
-18.08
-19.93
-21.29
-22.26
-22.99
-23.60
-24.11
-24.45
-24.48
-24.07
-23.11
-21.52
-19.33
-16.66
-13.70
-10.69
-7.68
-4.55
-0.95
3.52
9.07
15.49
22.16
28.17
32.60
34.94
35.14
33.57
30.86
27.56
24.10
20.72
17.61
14.93
12.85
11.42
10.53
9.94
9.32
8.41
7.13
5.51
3.70
1.82
-0.02
-1.77
-3.34
-4.59
-5.48
-6.12
-6.86
-8.14
-10.30
-13.34
-16.92
-20.42
-23.29
-25.25
-26.32
-26.74
-26.68
-26.23
-25.34
-23.99
-22.30
-20.55
-19.02
-17.91
-17.23
-16.79
-16.36
-15.70
-14.72
-13.31
-11.41
-8.83
-5.40
-1.06
3.94
9.01
13.40
16.46
17.99
18.38
18.41
18.96
20.44
22.68
25.01
26.59
26.83
25.62
23.29
20.41
17.46
14.61
11.75
8.66
5.21
1.56
-1.87
-4.56
-6.08
-6.27
-5.33
-3.69
-1.94
-0.60
0.02
-0.15
-0.87
-1.70
-2.09
-1.48
0.49
3.76
7.80
11.59
13.92
13.80
10.87
5.62
-0.65
-6.22
-9.54
-9.68
-6.64
-1.25
5.08
10.83
14.73
16.08
14.80
11.40
6.65
1.34
-4.04
-9.34
-14.69
-20.23
-25.77
-30.60
-33.42
-32.82
-27.78
-18.32
-5.68
7.93
20.20
29.51
35.41
38.52
39.89
40.28
39.86
38.38
35.66
32.02
28.23
25.12
23.07
21.76
20.47
18.45
15.47
11.90
8.49
6.02
4.90
5.04
5.89
6.72
6.75
5.39
2.29
-2.56
-8.81
-15.79
-22.56
-28.20
-32.02
-33.67
-33.30
-31.35
-28.54
-25.62
-23.35
-22.33
-22.90
-25.07
-28.46
-32.46
-36.32
-39.45
-41.52
-42.52
-42.70
-42.44
-42.07
-41.72
-41.16
-39.79
-36.85
-31.67
-24.07
-14.51
-4.04
6.07
14.70
21.13
25.16
26.95
26.92
25.67
23.91
22.36
21.53
21.49
21.70
21.20
18.89
14.07
6.78
-2.00
-10.45
-16.40
-17.91
-13.98
-5.00
7.35
20.62
32.55
41.84
48.43
53.21
57.31
61.50
65.94
70.38
74.41
77.64
79.46
78.91
74.62
65.26
50.19
30.00
6.54
-17.45
-39.10
-56.01
-66.62
-70.41
-67.87
-60.30
-49.65
-37.99
-27.13
-18.16
-11.39
-6.58
-3.35
-1.43
-0.69
-0.96
-1.79
-2.52
-2.49
-1.36
0.61
2.70
3.91
3.35
0.50
-4.64
-11.59
-19.44
-27.07
-33.30
-37.14
-37.94
-35.63
-30.76
-24.39
-17.83
-12.32
-8.62
-6.87
-6.57
-6.95
-7.29
-7.22
-6.77
-6.21
-5.85
-5.85
-6.39
-7.68
-10.04
-13.75
-18.80
-24.79
-30.80
-35.69
-38.36
-38.17
-35.05
-29.53
-22.47
-14.81
-7.34
-0.59
5.17
9.81
13.23
15.26
15.72
14.52
11.78
7.95
3.72
-0.16
-3.12
-4.90
-5.52
-5.21
-4.25
-2.99
-1.97
-1.87
-3.39
-6.72
-11.21
-15.33
-17.16
-15.21
-9.15
0.00
10.32
19.86
27.44
32.89
36.66
39.22
40.65
40.66
39.01
35.93
32.16
28.65
26.02
24.18
22.38
19.58
14.98
8.41
0.30
-8.55
-17.32
-25.26
-31.69
-35.79
-36.72
-33.91
-27.45
-18.36
-8.34
0.77
7.67
11.93
13.94
14.41
13.84
12.29
9.57
5.60
0.77
-4.02
-7.69
-9.48
-9.30
-7.83
-6.24
-5.66
-6.71
-9.22
-12.31
-14.82
-15.79
-14.85
-12.21
-8.45
-4.16
0.24
4.53
8.55
12.00
14.46
15.50
14.87
12.64
9.14
4.94
0.55
-3.57
-7.11
-9.86
-11.70
-12.61
-12.64
-11.96
-10.77
-9.32
-7.86
-6.69
-6.08
-6.23
-7.20
-8.80
-10.51
-11.66
-11.58
-9.98
-7.19
-4.13
-1.97
-1.70
-3.60
-7.12
-11.14
-14.40
-16.03
-15.71
-13.69
-10.49
-6.74
-2.93
0.49
3.17
4.90
5.63
5.62
5.32
5.26
5.82
7.14
9.19
11.77
14.74
17.95
21.29
24.58
27.54
29.90
31.52
32.51
33.30
34.47
36.49
39.49
43.14
46.65
48.95
49.02
46.13
40.02
31.03
20.09
8.63
-1.65
-9.17
-12.92
-12.72
-9.46
-4.82
-0.84
0.75
-0.89
-5.43
-11.48
-17.14
-20.71
-21.39
-19.48
-16.09
-12.63
-10.12
-8.87
-8.59
-8.73
-8.88
-8.91
-8.95
-9.12
-9.42
-9.72
-9.84
-9.64
-8.88
-7.17
-3.86
1.72
9.91
20.28
31.50
41.60
48.51
50.68
47.61
39.91
29.05
16.88
5.14
-4.96
-12.83
-18.45
-22.14
-24.29
-25.17
-24.89
-23.42
-20.80
-17.29
-13.46
-10.06
-7.84
-7.24
-8.29
-10.56
-13.38
-16.10
-18.28
-19.86
-20.92
-21.52
-21.62
-21.11
-19.96
-18.42
-16.92
-15.83
-15.20
-14.59
-13.27
-10.58
-6.29
-0.79
5.09
10.40
14.47
17.06
18.32
18.54
17.92
16.42
13.81
9.85
4.43
-2.29
-9.85
-17.59
-24.78
-30.82
-35.29
-37.95
-38.73
-37.68
-34.96
-30.87
-25.80
-20.17
-14.30
-8.33
-2.24
3.93
10.02
15.55
19.92
22.57
23.25
22.13
19.66
16.47
13.07
9.84
7.07
5.07
4.09
4.27
5.44
7.11
8.50
8.89
7.77
5.04
0.93
-4.13
-9.67
-15.11
-19.75
-22.77
-23.31
-20.82
-15.34
-7.70
0.63
7.97
12.98
15.06
14.50
12.27
9.55
7.27
5.81
5.00
4.43
3.68
2.64
1.44
0.27
-0.83
-2.10
-3.93
-6.64
-10.19
-14.18
-18.00
-21.13
-23.32
-24.63
-25.28
-25.36
-24.78
-23.26
-20.64
-16.93
-12.39
-7.29
-1.72
4.46
11.42
19.11
26.98
34.07
39.31
42.02
42.16
40.24
37.05
33.24
29.20
25.05
20.88
16.85
13.24
10.36
8.41
7.34
6.86
6.42
5.33
2.97
-0.96
-6.33
-12.49
-18.48
-23.40
-26.71
-28.36
-28.71
-28.19
-27.00
-24.98
-21.72
-16.80
-10.06
-1.80
7.22
15.88
23.02
27.72
29.52
28.53
25.32
20.66
15.24
9.52
3.66
-2.37
-8.58
-14.75
-20.34
-24.66
-27.04
-27.16
-25.20
-21.78
-17.73
-13.80
-10.39
-7.48
-4.72
-1.65
2.19
6.98
12.65
18.73
24.41
28.67
30.63
29.79
26.35
21.10
15.14
9.43
4.52
0.53
-2.71
-5.36
-7.38
-8.58
-8.80
-8.01
-6.41
-4.34
-2.23
-0.53
0.37
0.16
-1.28
-3.77
-6.81
-9.79
-12.18
-13.73
-14.51
-14.71
-14.43
-13.58
-11.87
-9.14
-5.44
-1.20
3.00
6.67
9.58
11.81
13.52
14.76
15.32
14.84
12.95
9.61
5.13
0.14
-4.69
-8.89
-12.28
-14.94
-16.99
-18.54
-19.50
-19.76
-19.19
-17.83
-15.86
-13.60
-11.33
-9.20
-7.24
-5.45
-3.83
-2.55
-1.76
-1.51
-1.53
-1.27
-0.08
2.41
6.07
10.19
13.84
16.27
17.19
16.89
15.89
14.64
13.30
11.78
9.95
7.87
5.90
4.49
4.03
4.63
6.11
8.12
10.35
12.55
14.57
16.33
17.74
18.69
19.08
18.86
18.05
16.79
15.24
13.56
11.88
10.26
8.76
7.48
6.64
6.54
7.37
9.05
11.13
12.97
13.99
13.98
13.30
12.67
12.95
14.73
18.15
22.88
28.32
33.73
38.44
41.91
43.70
43.51
41.17
36.84
31.01
24.55
18.56
14.14
12.09
12.74
15.92
21.04
27.34
34.02
40.32
45.63
49.51
51.81
52.65
52.46
51.73
50.82
49.76
48.28
46.03
42.74
38.50
33.56
28.25
22.62
16.43
9.29
0.92
-8.48
-18.26
-27.42
-35.12
-40.89
-44.81
-47.26
-48.59
-48.90
-47.90
-45.18
-40.44
-33.74
-25.52
-16.50
-7.46
0.96
8.30
14.34
19.02
22.38
24.50
25.59
26.03
26.42
27.37
29.14
31.24
32.31
30.54
24.49
13.97
0.33
-13.95
-26.24
-34.80
-39.17
-39.84
-37.42
-31.98
-23.16
-10.80
4.31
20.25
34.51
45.07
51.28
53.98
55.00
56.12
58.46
62.29
67.33
73.15
79.40
85.71
91.46
95.64
96.89
93.79
85.15
70.41
49.91
25.10
-1.62
-27.39
-49.63
-66.85
-78.81
-86.38
-90.76
-92.86
-92.95
-90.85
-86.39
-79.71
-71.40
-62.18
-52.60
-42.86
-32.89
-22.52
-11.69
-0.55
10.57
21.20
30.81
38.99
45.49
50.34
53.71
55.80
56.58
55.68
52.48
46.39
37.13
24.97
10.79
-4.22
-18.82
-32.01
-43.21
-52.17
-58.85
-63.30
-65.52
-65.55
-63.59
-60.04
-55.56
-50.89
-46.75
-43.60
-41.59
-40.61
-40.38
-40.60
-41.01
-41.41
-41.61
-41.42
-40.75
-39.56
-37.97
-36.16
-34.38
-32.80
-31.49
-30.43
-29.50
-28.54
-27.35
-25.59
-22.82
-18.47
-12.14
-3.87
5.59
14.81
22.01
25.67
25.16
21.08
15.11
9.39
5.76
5.13
7.34
11.38
16.01
20.19
23.35
25.35
26.27
26.27
25.41
23.71
21.12
17.52
12.71
6.44
-1.34
-10.33
-19.62
-27.88
-33.68
-36.03
-34.69
-30.32
-24.25
-18.02
-13.03
-10.18
-9.85
-11.92
-15.95
-21.21
-26.91
-32.26
-36.60
-39.57
-41.04
-41.19
-40.38
-39.02
-37.54
-36.26
-35.33
-34.74
-34.38
-34.09
-33.74
-33.28
-32.65
-31.85
-30.89
-29.80
-28.64
-27.50
-26.47
-25.62
-24.96
-24.43
-23.98
-23.55
-23.15
-22.78
-22.46
-22.15
-21.77
-21.22
-20.42
-19.33
-17.97
-16.37
-14.56
-12.55
-10.27
-7.72
-4.94
-2.06
0.65
2.96
4.66
5.68
6.06
5.93
5.40
4.60
3.65
2.66
1.74
0.99
0.44
0.05
-0.28
-0.64
-1.09
-1.63
-2.26
-2.96
-3.71
-4.49
-5.22
-5.86
-6.33
-6.60
-6.70
-6.67
-6.58
-6.45
-6.35
-6.30
-6.34
-6.48
-6.62
-6.56
-6.10
-5.09
-3.57
-1.78
-0.06
1.22
1.91
2.06
1.88
1.65
1.52
1.49
1.49
1.41
1.25
1.10
1.07
1.22
1.56
1.99
2.44
2.86
3.24
3.61
4.05
4.61
5.37
6.40
7.76
9.45
11.45
13.71
16.15
18.73
21.40
24.17
27.02
29.97
33.03
36.14
39.20
42.06
44.68
47.18
50.01
53.82
59.24
66.59
75.59
85.24
94.01
100.29
102.87
101.44
96.62
89.72
82.22
75.25
69.24
63.92
58.49
52.03
43.70
32.94
19.52
3.65
-13.96
-32.19
-49.67
-65.17
-77.90
-87.65
-94.62
-99.17
-101.59
-102.09
-100.96
-98.67
-95.80
-92.88
-90.14
-87.44
-84.50
-81.10
-77.30
-73.37
-69.68
-66.44
-63.63
-61.12
-58.75
-56.47
-54.35
-52.50
-50.94
-49.64
-48.45
-47.22
-45.78
-44.01
-41.82
-39.27
-36.44
-33.49
-30.46
-27.23
-23.53
-19.05
-13.72
-7.76
-1.78
3.55
7.68
10.42
11.99
12.79
13.17
13.32
13.22
12.71
11.75
10.47
9.12
8.07
7.58
7.85
8.89
10.63
12.83
15.20
17.41
19.17
20.23
20.32
19.25
16.89
13.28
8.70
3.63
-1.34
-5.70
-9.15
-11.74
-13.72
-15.42
-17.02
-18.51
-19.68
-20.33
-20.44
-20.19
-19.89
-19.78
-19.90
-20.17
-20.40
-20.48
-20.42
-20.31
-20.12
-19.71
-18.82
-17.22
-14.90
-12.11
-9.26
-6.73
-4.64
-2.83
-0.97
1.26
3.98
7.07
10.25
13.19
15.72
17.75
19.33
20.59
21.70
22.80
23.97
25.28
26.63
27.87
28.77
29.11
28.67
27.27
24.82
21.32
17.02
12.38
8.04
4.63
2.64
2.26
3.28
5.19
7.35
9.18
10.25
10.36
9.53
7.85
5.46
2.47
-0.96
-4.59
-8.05
-10.93
-12.82
-13.52
-13.00
-11.44
-9.06
-6.04
-2.55
1.22
4.99
8.40
11.19
13.23
14.69
15.81
16.83
17.70
18.16
17.83
16.40
13.85
10.36
6.26
1.84
-2.73
-7.30
-11.68
-15.52
-18.44
-20.14
-20.56
-19.93
-18.78
-17.71
-17.31
-17.93
-19.64
-22.17
-24.97
-27.44
-29.07
-29.71
-29.47
-28.67
-27.62
-26.47
-25.36
-24.50
-24.24
-24.97
-26.79
-29.18
-31.06
-31.18
-28.68
-23.58
-16.83
-9.81
-3.75
0.83
4.15
6.91
9.71
12.83
16.09
19.11
21.60
23.46
24.88
26.06
27.19
28.24
29.07
29.49
29.33
28.56
27.26
25.65
23.96
22.35
20.82
19.23
17.43
15.32
12.98
10.51
8.01
5.43
2.67
-0.26
-3.10
-5.30
-6.36
-6.03
-4.65
-3.08
-2.36
-3.21
-5.74
-9.34
-12.91
-15.41
-16.16
-15.08
-12.64
-9.62
-6.77
-4.57
-3.02
-1.82
-0.63
0.56
1.28
0.62
-2.30
-7.77
-15.09
-22.61
-28.08
-29.49
-25.68
-16.74
-3.89
10.94
25.70
38.62
48.42
54.31
55.90
53.21
46.71
37.41
26.83
16.72
8.65
3.61
1.73
2.38
4.40
6.62
8.12
8.34
7.09
4.39
0.52
-4.02
-8.49
-12.10
-14.28
-14.96
-14.60
-14.02
-13.92
-14.53
-15.57
-16.52
-17.07
-17.39
-18.24
-20.48
-24.66
-30.65
-37.61
-44.23
-49.10
-51.17
-49.88
-45.33
-38.16
-29.49
-20.57
-12.48
-5.78
-0.43
4.01
8.10
12.11
15.87
18.91
20.76
21.31
20.96
20.57
21.15
23.60
28.27
34.73
41.67
47.18
49.32
46.83
39.77
29.53
18.48
8.96
2.51
-0.56
-1.10
-0.48
-0.01
-0.51
-2.22
-5.03
-8.69
-12.79
-16.79
-19.92
-21.32
-20.42
-17.25
-12.67
-8.24
-5.70
-6.34
-10.47
-17.23
-24.83
-31.15
-34.30
-33.21
-27.86
-19.29
-9.36
-0.16
6.46
9.48
8.87
5.47
0.55
-4.68
-9.46
-13.48
-16.69
-19.00
-20.12
-19.63
-17.14
-12.54
-6.18
1.10
8.08
13.46
16.24
16.06
13.46
9.74
6.60
5.62
7.78
13.18
21.13
30.25
38.88
45.32
48.31
47.31
42.79
36.16
29.33
24.10
21.43
21.14
22.07
22.59
21.25
17.25
10.60
1.94
-7.76
-17.42
-26.05
-32.74
-36.76
-37.65
-35.38
-30.47
-23.95
-17.14
-11.29
-7.22
-5.09
-4.46
-4.46
-4.24
-3.23
-1.35
0.99
3.11
4.32
4.17
2.56
-0.23
-3.63
-6.97
-9.58
-10.95
-10.78
-9.03
-5.92
-1.97
2.20
6.01
9.08
11.31
12.75
13.35
12.82
10.63
6.34
-0.00
-7.64
-15.10
-20.57
-22.43
-19.65
-12.08
-0.30
14.44
30.40
45.51
57.48
64.36
65.04
59.74
50.15
38.80
28.25
20.02
14.23
9.84
5.48
0.18
-6.16
-12.98
-19.45
-24.90
-28.95
-31.28
-31.51
-29.05
-23.35
-14.23
-2.27
11.05
23.53
32.71
36.65
34.53
27.07
16.27
4.73
-5.23
-12.37
-16.62
-18.72
-19.59
-19.75
-19.31
-18.12
-16.24
-14.01
-12.02
-10.74
-10.30
-10.28
-10.02
-8.78
-6.13
-2.16
2.65
7.50
11.69
14.79
16.87
18.38
19.99
22.40
26.09
31.19
37.50
44.41
50.98
55.95
57.96
55.89
49.32
38.78
25.82
12.63
1.42
-6.22
-9.66
-9.23
-5.86
-0.60
5.69
12.52
19.64
26.88
33.99
40.65
46.54
51.37
54.90
56.82
56.67
53.92
48.09
39.07
27.30
13.84
0.20
-12.06
-21.71
-28.21
-31.80
-33.40
-34.21
-35.31
-37.33
-40.27
-43.57
-46.39
-47.91
-47.69
-45.69
-42.33
-38.37
-34.66
-31.98
-30.72
-30.78
-31.53
-32.06
-31.54
-29.49
-25.96
-21.33
-16.01
-10.26
-4.20
1.98
7.85
12.82
16.49
18.97
20.91
23.15
26.20
29.84
33.14
34.91
34.26
31.07
25.93
19.86
13.81
8.43
4.06
0.88
-0.99
-1.50
-0.87
0.45
1.85
2.87
3.38
3.64
4.09
5.07
6.61
8.41
9.97
10.89
11.02
10.49
9.59
8.49
7.09
5.03
1.86
-2.64
-8.26
-14.25
-19.59
-23.30
-24.86
-24.29
-22.15
-19.29
-16.44
-14.21
-12.86
-12.43
-12.71
-13.25
-13.56
-13.13
-11.69
-9.20
-5.90
-2.13
1.71
5.23
8.06
9.84
10.32
9.51
7.82
5.99
4.98
5.62
8.33
13.03
19.12
25.76
31.98
37.00
40.22
41.33
40.20
36.95
32.02
26.13
20.21
15.12
11.32
8.67
6.47
3.87
0.22
-4.53
-9.83
-14.75
-18.38
-20.16
-19.98
-18.11
-14.96
-10.99
-6.61
-2.24
1.80
5.32
8.39
11.30
14.39
17.84
21.40
24.48
26.30
26.28
24.27
20.63
16.05
11.32
7.06
3.67
1.33
0.00
-0.58
-0.89
-1.63
-3.49
-6.96
-12.06
-18.31
-24.69
-29.93
-32.82
-32.50
-28.78
-22.09
-13.43
-3.98
5.20
13.44
20.55
26.67
32.13
37.15
41.73
45.58
48.23
49.06
47.55
43.45
36.96
28.72
19.72
11.08
3.74
-1.73
-5.17
-6.81
-7.15
-6.78
-6.19
-5.73
-5.53
-5.57
-5.76
-6.01
-6.31
-6.61
-6.85
-6.90
-6.59
-5.81
-4.56
-2.96
-1.22
0.39
1.64
2.36
2.43
1.89
0.87
-0.42
-1.78
-3.04
-4.16
-5.16
-6.11
-7.09
-8.25
-9.73
-11.63
-13.97
-16.58
-19.13
-21.18
-22.30
-22.25
-21.04
-18.91
-16.20
-13.18
-9.95
-6.44
-2.52
1.81
6.26
10.25
13.12
14.41
14.15
12.94
11.69
11.30
12.18
14.15
16.46
18.15
18.42
16.98
14.10
10.53
7.17
4.82
3.95
4.56
6.22
8.24
9.88
10.56
10.08
8.47
6.02
3.04
-0.18
-3.42
-6.41
-8.86
-10.53
-11.32
-11.44
-11.29
-11.35
-11.80
-12.39
-12.43
-11.12
-7.94
-2.93
3.21
9.38
14.44
17.57
18.45
17.20
14.27
10.13
5.29
0.12
-4.95
-9.53
-13.23
-15.77
-17.08
-17.25
-16.58
-15.34
-13.83
-12.31
-10.99
-10.04
-9.49
-9.21
-8.86
-8.05
-6.45
-4.02
-1.09
1.65
3.39
3.55
2.02
-0.66
-3.50
-5.42
-5.57
-3.61
0.28
5.57
11.61
17.77
23.49
28.29
31.74
33.54
33.57
32.05
29.40
26.23
23.06
20.24
17.75
15.32
12.50
8.88
4.37
-0.65
-5.38
-8.93
-10.65
-10.53
-9.19
-7.53
-6.39
-6.09
-6.40
-6.77
-6.66
-5.84
-4.31
-2.25
0.28
3.29
6.72
10.21
13.06
14.42
13.62
10.55
5.68
-0.03
-5.57
-10.15
-13.40
-15.34
-16.17
-16.22
-15.71
-14.88
-13.91
-13.02
-12.45
-12.42
-13.11
-14.51
-16.45
-18.59
-20.53
-21.92
-22.56
-22.41
-21.49
-19.78
-17.11
-13.27
-8.11
-1.70
5.71
13.95
23.02
33.05
43.94
55.01
64.84
71.78
74.53
72.94
68.07
61.71
55.62
50.94
48.16
47.53
49.52
54.84
63.86
76.07
89.74
102.44
111.97
117.19
118.23
115.96
111.26
104.39
95.17
83.54
70.23
56.81
45.13
36.39
30.59
26.68
23.29
19.66
15.83
12.29
9.11
5.48
-0.14
-9.28
-22.57
-39.39
-58.14
-77.00
-94.43
-109.56
-121.92
-131.19
-137.09
-139.43
-138.35
-134.32
-128.07
-120.37
-111.83
-102.91
-93.89
-84.97
-76.26
-67.91
-60.06
-52.91
-46.65
-41.37
-37.01
-33.39
-30.16
-26.84
-22.90
-17.96
-12.02
-5.68
-0.11
3.38
3.95
1.70
-2.26
-6.20
-8.58
-8.65
-6.69
-3.68
-0.70
1.54
2.94
3.80
4.48
5.17
5.79
6.15
6.10
5.65
4.96
4.18
3.42
2.55
1.39
-0.19
-2.03
-3.69
-4.55
-4.09
-2.06
1.39
5.83
10.66
15.28
19.16
21.90
23.28
23.27
22.20
20.64
19.30
18.74
19.14
20.18
21.20
21.44
20.35
17.74
13.78
8.87
3.47
-1.99
-7.22
-11.94
-15.89
-18.79
-20.43
-20.79
-20.14
-19.08
-18.37
-18.71
-20.31
-22.77
-25.05
-25.90
-24.28
-19.85
-13.07
-5.07
2.82
9.44
14.21
17.06
18.34
18.54
18.03
17.04
15.62
13.79
11.70
9.65
8.03
7.20
7.26
8.02
9.06
10.00
10.72
11.41
12.47
14.30
17.02
20.40
23.95
26.97
28.79
28.82
26.68
22.33
16.15
9.00
2.01
-3.69
-7.40
-9.02
-9.10
-8.53
-8.15
-8.49
-9.67
-11.56
-13.93
-16.57
-19.26
-21.69
-23.49
-24.27
-23.82
-22.22
-19.88
-17.41
-15.38
-14.22
-14.07
-14.80
-16.01
-17.03
-17.06
-15.36
-11.51
-5.61
1.64
9.15
15.74
20.55
23.22
23.90
23.01
21.01
18.22
14.75
10.71
6.21
1.51
-3.11
-7.42
-11.25
-14.59
-17.42
-19.60
-20.86
-20.90
-19.52
-16.80
-13.14
-9.05
-4.98
-1.16
2.47
6.11
9.92
13.88
17.79
21.23
23.73
24.91
24.50
22.49
19.15
15.00
10.71
7.01
4.40
3.12
3.04
3.80
4.90
5.82
6.07
5.28
3.27
0.07
-3.94
-8.18
-12.03
-14.92
-16.57
-16.91
-16.16
-14.68
-12.98
-11.56
-10.87
-11.03
-11.74
-12.30
-11.81
-9.52
-5.19
0.78
7.46
13.75
18.76
22.03
23.49
23.36
21.87
19.24
15.62
11.23
6.41
1.64
-2.51
-5.58
-7.26
-7.52
-6.56
-4.71
-2.37
0.05
2.15
3.69
4.58
5.00
5.30
5.82
6.71
7.86
8.99
9.76
9.94
9.47
8.36
6.64
4.23
1.18
-2.37
-6.00
-9.20
-11.50
-12.72
-13.03
-12.88
-12.84
-13.38
-14.66
-16.51
-18.45
-19.90
-20.38
-19.65
-17.80
-15.18
-12.24
-9.37
-6.80
-4.57
-2.62
-0.83
0.86
2.47
4.03
5.59
7.17
8.70
10.03
10.91
11.23
11.07
10.83
11.06
12.18
14.20
16.56
18.38
18.81
17.49
14.71
11.24
7.93
5.27
3.24
1.43
-0.54
-2.81
-5.14
-7.09
-8.33
-8.78
-8.70
-8.43
-8.21
-8.02
-7.61
-6.69
-5.07
-2.81
-0.22
2.29
4.39
6.00
7.33
8.74
10.54
12.78
15.16
17.16
18.14
17.70
15.65
12.17
7.64
2.57
-2.46
-6.88
-10.15
-11.96
-12.31
-11.58
-10.47
-9.66
-9.61
-10.33
-11.49
-12.64
-13.52
-14.13
-14.70
-15.51
-16.63
-17.93
-19.17
-20.11
-20.55
-20.34
-19.22
-16.88
-13.15
-8.08
-2.16
3.92
9.39
13.80
17.10
19.57
21.62
23.47
25.13
26.36
26.84
26.35
24.86
22.47
19.29
15.38
10.72
5.36
-0.49
-6.35
-11.60
-15.73
-18.53
-20.17
-21.10
-21.77
-22.38
-22.80
-22.68
-21.66
-19.70
-17.06
-14.31
-11.99
-10.43
-9.60
-9.17
-8.65
-7.61
-5.82
-3.24
-0.08
3.34
6.65
9.49
11.63
12.98
13.65
13.89
13.98
14.14
14.47
14.95
15.45
15.86
16.01
15.78
15.02
13.63
11.62
9.17
6.54
3.99
1.70
-0.27
-1.90
-3.17
-4.00
-4.36
-4.28
-3.97
-3.76
-3.96
-4.77
-6.13
-7.80
-9.43
-10.65
-11.25
-11.18
-10.60
-9.73
-8.82
-7.96
-7.07
-5.99
-4.52
-2.54
-0.01
3.02
6.47
10.20
13.99
17.57
20.63
22.99
24.64
25.71
26.44
26.98
27.36
27.46
27.14
26.28
24.79
22.56
19.54
15.78
11.47
7.01
2.90
-0.40
-2.65
-3.84
-4.17
-3.99
-3.64
-3.54
-4.04
-5.40
-7.63
-10.35
-12.87
-14.42
-14.50
-13.12
-10.90
-8.75
-7.52
-7.67
-9.13
-11.37
-13.50
-14.46
-13.05
-8.31
-0.00
10.89
22.06
30.44
33.33
29.58
20.14
7.71
-4.50
-14.04
-20.00
-22.82
-23.57
-23.13
-21.93
-20.13
-18.06
-16.44
-16.04
-17.24
-19.62
-21.93
-22.73
-21.05
-16.95
-11.57
-6.64
-3.67
-3.22
-4.68
-6.51
-7.06
-5.25
-1.09
4.43
9.85
13.91
15.99
16.20
15.15
13.55
11.92
10.44
9.05
7.65
6.20
4.82
3.69
2.98
2.70
2.75
2.92
3.02
2.91
2.55
1.90
0.88
-0.67
-2.93
-5.97
-9.68
-13.75
-17.75
-21.27
-24.04
-25.98
-27.09
-27.38
-26.80
-25.28
-22.90
-19.95
-17.04
-14.88
-14.11
-15.02
-17.46
-20.87
-24.50
-27.58
-29.48
-29.80
-28.37
-25.30
-20.90
-15.67
-10.27
-5.31
-1.25
1.71
3.71
5.06
6.20
7.52
9.31
11.69
14.65
17.98
21.36
24.39
26.69
28.07
28.59
28.56
28.39
28.35
28.39
28.14
27.16
25.18
22.32
19.03
15.83
12.97
10.31
7.36
3.61
-1.24
-7.11
-13.60
-20.21
-26.47
-32.01
-36.48
-39.47
-40.42
-38.82
-34.47
-27.78
-19.85
-12.31
-6.71
-3.98
-3.97
-5.49
-6.83
-6.48
-3.71
1.16
6.99
12.26
15.72
16.79
15.71
13.42
11.13
9.84
10.01
11.48
13.60
15.68
17.35
18.75
20.47
23.21
27.30
32.43
37.55
41.25
42.22
39.86
34.57
27.60
20.49
14.31
9.31
4.94
0.41
-4.66
-9.92
-14.46
-17.29
-17.99
-16.90
-14.92
-13.01
-11.75
-11.16
-10.88
-10.50
-9.89
-9.18
-8.58
-8.07
-7.31
-5.80
-3.21
0.33
4.16
7.31
8.99
8.77
6.69
3.07
-1.53
-6.48
-10.94
-14.01
-14.90
-13.30
-9.58
-4.69
0.18
4.20
7.04
8.85
9.88
10.15
9.39
7.20
3.45
-1.59
-7.22
-12.61
-17.13
-20.45
-22.59
-23.72
-24.03
-23.57
-22.27
-20.02
-16.75
-12.50
-7.38
-1.55
4.82
11.52
18.20
24.30
29.17
32.20
32.97
31.44
27.86
22.81
16.96
11.01
5.59
1.16
-1.92
-3.52
-3.56
-2.15
0.52
4.06
7.91
11.40
13.85
14.79
14.09
11.96
8.84
5.26
1.72
-1.43
-3.88
-5.48
-6.20
-6.20
-5.75
-5.23
-4.98
-5.24
-6.11
-7.50
-9.23
-11.03
-12.66
-13.91
-14.64
-14.75
-14.18
-12.93
-11.07
-8.79
-6.37
-4.14
-2.38
-1.24
-0.71
-0.63
-0.80
-1.01
-1.17
-1.25
-1.34
-1.55
-2.00
-2.76
-3.85
-5.20
-6.70
-8.18
-9.44
-10.31
-10.64
-10.37
-9.61
-8.62
-7.75
-7.30
-7.32
-7.57
-7.58
-6.86
-5.15
-2.50
0.75
4.18
7.45
10.39
12.94
15.01
16.47
17.16
17.02
16.22
15.08
14.02
13.32
13.00
12.82
12.44
11.56
10.08
8.15
6.10
4.35
3.27
2.99
3.41
4.23
5.04
5.48
5.38
4.76
3.82
2.80
1.92
1.32
1.06
1.13
1.43
1.76
1.79
1.14
-0.47
-3.10
-6.55
-10.35
-13.95
-16.82
-18.64
-19.26
-18.75
-17.28
-15.05
-12.26
-9.07
-5.68
-2.26
0.97
3.83
6.12
7.71
8.48
8.37
7.40
5.71
3.56
1.24
-1.00
-3.10
-5.17
-7.42
-9.95
-12.69
-15.32
-17.38
-18.40
-18.00
-15.99
-12.36
-7.38
-1.59
4.24
9.23
12.60
13.87
12.97
10.23
6.25
1.73
-2.69
-6.50
-9.47
-11.55
-12.88
-13.69
-14.13
-14.19
-13.61
-12.05
-9.23
-5.15
-0.08
5.44
10.79
15.43
19.04
21.50
22.85
23.25
22.80
21.66
19.95
17.85
15.61
13.53
11.85
10.68
9.92
9.25
8.25
6.58
4.12
1.09
-2.04
-4.71
-6.48
-7.22
-7.19
-6.97
-7.22
-8.46
-10.81
-13.92
-17.06
-19.39
-20.30
-19.59
-17.55
-14.81
-12.06
-9.80
-8.25
-7.33
-6.75
-6.16
-5.20
-3.64
-1.42
1.32
4.25
6.88
8.76
9.56
9.15
7.68
5.45
2.88
0.37
-1.74
-3.20
-3.86
-3.70
-2.93
-1.84
-0.83
-0.23
-0.17
-0.51
-0.90
-0.94
-0.36
0.89
2.62
4.49
6.18
7.45
8.17
8.30
7.92
7.17
6.19
5.20
4.31
3.55
2.83
1.99
0.94
-0.31
-1.59
-2.76
-3.71
-4.54
-5.46
-6.74
-8.49
-10.63
-12.82
-14.61
-15.67
-15.84
-15.28
-14.32
-13.34
-12.66
-12.38
-12.49
-12.80
-12.99
-12.64
-11.22
-8.27
-3.55
2.79
10.14
17.58
24.08
28.84
31.47
32.04
31.00
28.92
26.29
23.50
20.71
18.00
15.35
12.73
10.11
7.47
4.91
2.52
0.50
-0.98
-1.83
-2.18
-2.39
-2.93
-4.23
-6.45
-9.40
-12.62
-15.57
-17.85
-19.22
-19.65
-19.14
-17.72
-15.38
-12.26
-8.61
-4.84
-1.33
1.65
4.00
5.79
7.12
8.07
8.67
8.97
8.98
8.76
8.33
7.61
6.52
4.94
2.85
0.27
-2.60
-5.43
-7.85
-9.51
-10.24
-10.14
-9.53
-8.78
-8.22
-7.93
-7.77
-7.49
-6.88
-5.89
-4.64
-3.31
-2.07
-1.03
-0.12
0.75
1.75
2.99
4.54
6.28
7.98
9.26
9.80
9.40
8.12
6.18
3.94
1.70
-0.29
-1.94
-3.21
-4.10
-4.59
-4.71
-4.53
-4.22
-3.97
-3.93
-4.17
-4.56
-4.89
-4.96
-4.67
-4.07
-3.35
-2.70
-2.24
-1.91
-1.55
-0.94
0.03
1.31
2.74
4.05
5.01
5.52
5.65
5.55
5.36
5.15
4.86
4.38
3.59
2.47
1.17
-0.14
-1.20
-1.87
-2.10
-1.97
-1.62
-1.18
-0.76
-0.38
-0.05
0.21
0.33
0.26
0.02
-0.28
-0.49
-0.50
-0.29
0.05
0.33
0.47
0.46
0.40
0.41
0.50
0.61
0.61
0.41
0.04
-0.38
-0.74
-0.96
-1.09
-1.26
-1.59
-2.18
-2.98
-3.87
-4.67
-5.21
-5.47
-5.54
-5.64
-5.88
-6.31
-6.77
-6.98
-6.73
-5.90
-4.56
-2.88
-1.09
0.66
2.28
3.74
5.05
6.14
6.95
7.35
7.26
6.66
5.69
4.58
3.59
2.93
2.62
2.54
2.49
2.31
1.95
1.49
1.02
0.60
0.21
-0.22
-0.74
-1.37
-2.06
-2.67
-3.04
-3.04
-2.61
-1.82
-0.85
0.11
0.90
1.47
1.86
2.13
2.29
2.31
2.13
1.72
1.15
0.52
-0.04
-0.42
-0.62
-0.64
-0.55
-0.44
-0.39
-0.48
-0.72
-1.07
-1.44
-1.76
-1.98
-2.15
-2.29
-2.40
-2.41
-2.22
-1.81
-1.21
-0.56
-0.02
0.31
0.41
0.33
0.16
-0.05
-0.26
-0.45
-0.64
-0.85
-1.10
-1.43
-1.89
-2.48
-3.16
-3.87
-4.55
-5.14
-5.60
-5.89
-5.96
-5.85
-5.58
-5.21
-4.77
-4.23
-3.50
-2.52
-1.33
-0.07
1.07
1.92
2.48
2.80
3.01
3.17
3.26
3.19
2.88
2.31
1.48
0.36
-1.13
-3.04
-5.29
-7.50
-9.09
-9.46
-8.21
-5.48
-1.95
1.31
3.24
3.18
1.14
-2.18
-5.73
-8.45
-9.68
-9.27
-7.50
-4.90
-1.93
1.11
4.09
6.87
9.34
11.28
12.60
13.37
13.87
14.49
15.58
17.23
19.23
21.22
22.80
23.79
24.25
24.37
24.25
23.71
22.33
19.60
15.29
9.61
3.31
-2.64
-7.41
-10.63
-12.53
-13.77
-15.09
-16.98
-19.52
-22.32
-24.71
-25.92
-25.29
-22.40
-17.17
-9.96
-1.53
7.05
14.54
19.84
22.23
21.57
18.30
13.29
7.58
2.06
-2.65
-6.29
-8.85
-10.47
-11.23
-11.26
-10.67
-9.66
-8.50
-7.48
-6.79
-6.47
-6.41
-6.32
-5.92
-4.99
-3.50
-1.58
0.49
2.42
3.98
5.04
5.60
5.69
5.38
4.71
3.75
2.66
1.63
0.90
0.60
0.74
1.17
1.61
1.81
1.64
1.16
0.55
0.08
-0.06
0.23
0.90
1.82
2.77
3.48
3.67
3.06
1.53
-0.80
-3.54
-6.07
-7.79
-8.31
-7.62
-6.11
-4.40
-3.05
-2.37
-2.33
-2.69
-3.14
-3.44
-3.56
-3.58
-3.56
-3.48
-3.16
-2.41
-1.11
0.60
2.38
3.79
4.50
4.40
3.67
2.62
1.53
0.56
-0.21
-0.57
-0.11
1.76
5.45
10.90
17.37
23.55
28.05
29.86
28.78
25.40
20.86
16.45
13.22
11.87
12.68
15.56
20.00
25.08
29.47
31.73
30.72
26.00
17.92
7.54
-3.75
-14.63
-24.09
-31.50
-36.52
-38.93
-38.61
-35.54
-29.93
-22.30
-13.41
-4.18
4.45
11.72
17.14
20.51
21.94
21.77
20.44
18.43
16.17
14.05
12.45
11.81
12.62
15.30
20.02
26.55
34.16
41.77
48.18
52.37
53.54
51.21
45.14
35.45
22.64
7.70
-8.01
-23.05
-36.19
-46.64
-54.10
-58.64
-60.47
-59.92
-57.45
-53.64
-49.14
-44.54
-40.26
-36.42
-32.94
-29.62
-26.37
-23.17
-20.12
-17.29
-14.56
-11.67
-8.18
-3.77
1.64
7.72
13.91
19.51
24.01
27.11
28.68
28.56
26.51
22.28
15.86
7.75
-1.09
-9.41
-16.09
-20.49
-22.60
-22.93
-22.18
-21.03
-19.96
-19.20
-18.86
-18.95
-19.43
-20.27
-21.42
-22.79
-24.27
-25.66
-26.71
-27.12
-26.63
-25.06
-22.41
-18.81
-14.53
-9.93
-5.34
-1.08
2.69
5.91
8.71
11.24
13.63
15.90
17.94
19.55
20.52
20.76
20.27
19.21
17.79
16.23
14.72
13.32
12.00
10.65
9.10
7.23
4.99
2.42
-0.37
-3.26
-6.13
-8.84
-11.25
-13.24
-14.74
-15.69
-16.08
-15.94
-15.32
-14.33
-13.14
-11.92
-10.80
-9.78
-8.81
-7.81
-6.85
-6.21
-6.25
-7.31
-9.36
-11.94
-14.17
-14.97
-13.40
-8.94
-1.75
7.34
17.03
25.79
32.27
35.66
35.84
33.34
29.10
24.09
19.07
14.42
10.23
6.46
3.09
0.11
-2.47
-4.77
-6.97
-9.19
-11.39
-13.28
-14.40
-14.37
-13.12
-10.98
-8.59
-6.62
-5.47
-5.17
-5.36
-5.57
-5.34
-4.35
-2.35
0.85
5.32
10.97
17.34
23.57
28.67
31.79
32.58
31.30
28.64
25.34
21.89
18.44
14.88
11.18
7.54
4.41
2.31
1.56
2.04
3.31
4.71
5.70
6.07
5.95
5.71
5.70
6.17
7.09
8.30
9.51
10.50
11.12
11.26
10.91
10.00
8.50
6.41
3.87
1.13
-1.45
-3.53
-4.95
-5.73
-6.15
-6.52
-7.05
-7.78
-8.53
-9.08
-9.32
-9.27
-9.07
-8.87
-8.75
-8.77
-8.91
-9.20
-9.64
-10.14
-10.56
-10.65
-10.28
-9.45
-8.34
-7.27
-6.56
-6.36
-6.60
-7.06
-7.46
-7.59
-7.42
-7.06
-6.70
-6.49
-6.42
-6.34
-6.07
-5.45
-4.42
-2.98
-1.21
0.80
2.89
4.80
6.20
6.79
6.45
5.34
3.77
2.13
0.58
-0.93
-2.67
-4.82
-7.35
-9.95
-12.11
-13.39
-13.60
-12.89
-11.66
-10.34
-9.15
-8.06
-6.84
-5.23
-3.17
-0.91
1.11
2.48
3.01
2.85
2.40
2.01
1.90
1.97
1.99
1.73
1.17
0.43
-0.20
-0.49
-0.35
0.12
0.72
1.21
1.44
1.34
0.95
0.37
-0.28
-0.96
-1.61
-2.27
-2.90
-3.45
-3.82
-3.92
-3.73
-3.28
-2.68
-2.04
-1.41
-0.77
-0.10
0.62
1.34
1.94
2.35
2.49
2.39
2.10
1.75
1.42
1.18
1.05
0.96
0.82
0.51
-0.07
-0.95
-2.04
-3.19
-4.24
-5.00
-5.38
-5.32
-4.84
-4.05
-3.12
-2.23
-1.48
-0.82
-0.09
0.88
2.20
3.75
5.23
6.26
6.61
6.27
5.45
4.47
3.57
2.83
2.19
1.50
0.65
-0.40
-1.58
-2.85
-4.15
-5.45
-6.75
-7.97
-8.97
-9.54
-9.55
-8.95
-7.93
-6.80
-5.91
-5.42
-5.21
-4.86
-3.89
-2.03
0.62
3.48
5.81
6.96
6.65
5.09
2.81
0.47
-1.39
-2.43
-2.51
-1.63
0.07
2.33
4.74
6.81
8.04
8.10
6.91
4.70
1.90
-0.93
-3.30
-4.88
-5.60
-5.60
-5.26
-4.96
-5.00
-5.48
-6.27
-7.12
-7.80
-8.20
-8.37
-8.46
-8.65
-9.05
-9.67
-10.32
-10.71
-10.46
-9.21
-6.81
-3.42
0.46
4.13
6.96
8.60
9.11
8.92
8.57
8.53
9.04
10.12
11.63
13.30
14.83
15.85
16.02
15.14
13.23
10.54
7.51
4.63
2.26
0.57
-0.47
-1.01
-1.31
-1.59
-2.01
-2.64
-3.45
-4.31
-5.01
-5.37
-5.32
-4.92
-4.33
-3.74
-3.27
-2.83
-2.23
-1.20
0.45
2.65
5.11
7.38
8.96
9.57
9.12
7.77
5.81
3.57
1.35
-0.54
-1.77
-2.10
-1.36
0.40
2.94
5.83
8.64
10.99
12.67
13.60
13.83
13.43
12.49
11.14
9.50
7.74
6.09
4.80
4.06
3.95
4.38
5.08
5.72
5.98
5.73
4.99
3.90
2.66
1.44
0.34
-0.59
-1.35
-1.93
-2.41
-2.85
-3.29
-3.75
-4.16
-4.47
-4.66
-4.78
-4.97
-5.33
-5.88
-6.53
-7.15
-7.65
-8.01
-8.24
-8.34
-8.18
-7.55
-6.32
-4.50
-2.35
-0.23
1.49
2.65
3.31
3.64
3.81
3.88
3.77
3.37
2.62
1.62
0.54
-0.41
-1.10
-1.52
-1.78
-2.06
-2.53
-3.28
-4.22
-5.15
-5.78
-5.86
-5.23
-3.89
-1.97
0.32
2.69
4.86
6.64
7.91
8.70
9.20
9.63
10.16
10.83
11.53
12.08
12.31
12.13
11.53
10.54
9.12
7.21
4.74
1.76
-1.59
-5.05
-8.34
-11.18
-13.34
-14.58
-14.70
-13.59
-11.34
-8.30
-5.08
-2.37
-0.72
-0.41
-1.29
-2.93
-4.67
-5.94
-6.31
-5.63
-4.03
-1.84
0.46
2.38
3.48
3.49
2.42
0.51
-1.77
-3.93
-5.55
-6.39
-6.43
-5.82
-4.78
-3.55
-2.38
-1.52
-1.21
-1.59
-2.62
-4.04
-5.39
-6.13
-5.86
-4.44
-2.08
0.81
3.69
6.14
7.90
8.93
9.34
9.30
8.99
8.57
8.18
7.90
7.75
7.68
7.56
7.26
6.69
5.87
4.90
3.87
2.87
1.88
0.85
-0.28
-1.51
-2.79
-4.03
-5.09
-5.88
-6.29
-6.29
-5.90
-5.22
-4.36
-3.46
-2.56
-1.64
-0.64
0.45
1.58
2.61
3.37
3.77
3.86
3.80
3.74
3.77
3.82
3.72
3.31
2.49
1.32
-0.00
-1.24
-2.18
-2.67
-2.72
-2.41
-1.89
-1.28
-0.73
-0.32
-0.13
-0.21
-0.57
-1.14
-1.79
-2.34
-2.65
-2.65
-2.37
-1.92
-1.35
-0.61
0.35
1.57
2.94
4.23
5.18
5.66
5.73
5.62
5.53
5.52
5.51
5.30
4.74
3.84
2.80
1.87
1.20
0.83
0.63
0.46
0.20
-0.15
-0.60
-1.13
-1.74
-2.39
-2.99
-3.38
-3.41
-2.99
-2.16
-1.06
0.14
1.29
2.31
3.18
3.91
4.51
4.96
5.21
5.25
5.00
4.46
3.67
2.72
1.77
0.99
0.49
0.30
0.32
0.35
0.21
-0.24
-0.99
-1.93
-2.85
-3.57
-3.98
-4.09
-4.00
-3.81
-3.67
-3.61
-3.71
-3.97
-4.37
-4.83
-5.19
-5.25
-4.88
-4.08
-2.96
-1.76
-0.71
0.05
0.45
0.56
0.43
0.12
-0.38
-1.04
-1.83
-2.65
-3.35
-3.79
-3.88
-3.66
-3.29
-3.01
-2.98
-3.27
-3.80
-4.40
-4.96
-5.45
-5.85
-6.00
-5.46
-3.60
0.20
6.23
14.27
23.75
34.01
44.47
54.68
64.10
71.98
77.43
79.78
78.95
75.61
70.88
65.86
61.11
56.54
51.65
45.97
39.47
32.64
26.29
21.28
18.16
17.08
17.71
19.37
21.24
22.53
22.75
21.79
19.89
17.45
14.83
12.21
9.63
7.03
4.33
1.47
-1.50
-4.42
-6.95
-8.66
-9.17
-8.35
-6.46
-4.27
-2.87
-3.39
-6.63
-12.79
-21.35
-31.21
-41.04
-49.69
-56.52
-61.57
-65.37
-68.57
-71.52
-73.98
-75.17
-74.17
-70.36
-63.81
-55.32
-46.13
-37.47
-30.13
-24.36
-19.98
-16.72
-14.45
-13.27
-13.36
-14.75
-17.18
-20.07
-22.79
-24.81
-25.91
-26.13
-25.69
-24.85
-23.73
-22.40
-20.81
-19.02
-17.24
-15.82
-15.16
-15.45
-16.51
-17.74
-18.31
-17.53
-15.18
-11.55
-7.34
-3.25
0.28
3.15
5.51
7.42
8.83
9.58
9.58
8.93
7.90
6.80
5.83
5.03
4.41
3.99
3.91
4.35
5.41
6.98
8.83
10.57
11.88
12.51
12.39
11.54
10.10
8.22
6.12
4.07
2.31
1.06
0.43
0.40
0.90
1.74
2.77
3.77
4.54
4.87
4.63
3.81
2.55
1.13
-0.15
-1.01
-1.35
-1.18
-0.69
-0.20
-0.12
-0.86
-2.70
-5.66
-9.39
-13.33
-16.83
-19.42
-20.90
-21.32
-20.85
-19.62
-17.74
-15.25
-12.27
-8.99
-5.64
-2.46
0.41
2.85
4.76
6.04
6.62
6.50
5.85
4.90
3.89
3.02
2.32
1.73
1.16
0.53
-0.10
-0.66
-1.02
-1.14
-0.98
-0.49
0.41
1.84
3.82
6.21
8.65
10.67
11.82
11.92
11.10
9.78
8.42
7.38
6.75
6.37
5.93
5.12
3.75
1.86
-0.38
-2.67
-4.72
-6.26
-7.12
-7.25
-6.71
-5.69
-4.45
-3.30
-2.56
-2.52
-3.41
-5.33
-8.21
-11.74
-15.38
-18.47
-20.40
-20.81
-19.75
-17.62
-14.95
-12.17
-9.49
-6.84
-4.15
-1.49
0.87
2.59
3.47
3.64
3.59
3.94
5.20
7.52
10.63
14.00
17.07
19.48
21.25
22.63
24.00
25.65
27.55
29.36
30.63
30.99
30.39
29.06
27.36
25.56
23.67
21.52
18.95
16.01
12.97
10.08
7.41
4.70
1.50
-2.54
-7.44
-12.73
-17.67
-21.42
-23.35
-23.22
-21.16
-17.61
-13.16
-8.40
-3.76
0.40
3.82
6.28
7.60
7.72
6.77
5.13
3.31
1.78
0.75
0.16
-0.31
-0.92
-1.72
-2.44
-2.67
-2.12
-0.75
1.18
3.22
4.94
6.10
6.64
6.59
5.89
4.37
1.80
-1.89
-6.50
-11.53
-16.28
-20.09
-22.51
-23.40
-22.95
-21.53
-19.60
-17.64
-16.06
-15.18
-15.17
-16.04
-17.57
-19.40
-21.08
-22.24
-22.68
-22.48
-21.97
-21.61
-21.85
-22.88
-24.46
-25.91
-26.19
-24.27
-19.49
-11.88
-2.21
8.20
17.93
25.80
31.18
33.89
34.17
32.46
29.28
25.20
20.88
16.98
14.10
12.63
12.65
13.88
15.90
18.12
19.99
20.99
20.65
18.76
15.36
10.98
6.37
2.38
-0.46
-2.02
-2.58
-2.50
-1.86
-0.40
2.32
6.50
11.83
17.49
22.43
25.86
27.49
27.54
26.47
24.65
22.24
19.31
15.95
12.44
9.10
6.19
3.74
1.63
-0.34
-2.28
-4.25
-6.34
-8.72
-11.62
-15.11
-18.93
-22.52
-25.32
-27.02
-27.70
-27.59
-26.60
-24.01
-18.74
-9.84
2.78
18.04
34.01
48.62
60.45
69.14
75.30
80.03
84.56
89.98
97.39
107.84
122.04
139.76
159.31
177.49
190.43
194.99
189.97
176.66
158.32
138.83
121.30
107.20
96.28
87.30
78.87
70.11
60.75
50.85
40.35
28.72
14.91
-2.30
-23.64
-48.79
-75.94
-102.07
-123.74
-138.11
-143.68
-140.28
-128.68
-110.02
-85.74
-57.79
-28.98
-2.69
17.97
31.43
38.34
41.19
42.88
45.13
47.82
49.49
48.87
46.26
43.80
44.62
51.27
64.37
82.30
101.84
119.18
131.07
135.48
131.65
119.78
100.65
75.33
45.03
11.33
-23.44
-56.09
-82.93
-100.93
-108.75
-107.47
-100.09
-90.29
-80.80
-72.49
-64.55
-55.42
-44.19
-31.17
-17.90
-6.29
2.13
6.75
7.86
6.20
2.63
-2.17
-7.73
-13.70
-19.81
-25.79
-31.45
-36.71
-41.70
-46.58
-51.51
-56.43
-61.12
-65.26
-68.54
-70.81
-72.05
-72.40
-72.04
-71.21
-70.17
-69.10
-68.16
-67.43
-66.89
-66.48
-66.12
-65.74
-65.25
-64.57
-63.63
-62.42
-60.98
-59.36
-57.61
-55.72
-53.71
-51.62
-49.66
-48.08
-47.10
-46.74
-46.77
-46.73
-46.17
-44.73
-42.23
-38.74
-34.39
-29.34
-23.75
-17.82
-11.84
-6.20
-1.31
2.56
5.31
7.18
8.51
9.72
11.10
12.71
14.44
16.06
17.37
18.25
18.67
18.63
18.12
17.08
15.47
13.37
10.98
8.67
6.83
5.79
5.69
6.37
7.47
8.57
9.32
9.55
9.31
8.73
7.95
7.04
5.93
4.52
2.71
0.54
-1.88
-4.37
-6.76
-9.04
-11.25
-13.56
-16.08
-18.82
-21.64
-24.28
-26.49
-28.15
-29.31
-30.11
-30.77
-31.43
-32.15
-32.88
-33.52
-33.93
-33.94
-33.46
-32.37
-30.72
-28.59
-26.07
-23.31
-20.44
-17.62
-15.00
-12.76
-10.98
-9.70
-8.82
-8.24
-7.87
-7.61
-7.46
-7.38
-7.37
-7.41
-7.52
-7.74
-8.09
-8.60
-9.20
-9.88
-10.53
-11.18
-11.81
-12.49
-13.30
-14.29
-15.49
-16.81
-18.07
-19.02
-19.46
-19.25
-18.39
-17.02
-15.33
-13.55
-11.78
-10.13
-8.64
-7.41
-6.49
-5.97
-5.85
-6.03
-6.33
-6.50
-6.31
-5.66
-4.59
-3.34
-2.19
-1.42
-1.14
-1.32
-1.74
-2.21
-2.61
-2.98
-3.51
-4.35
-5.56
-6.99
-8.36
-9.39
-9.94
-10.03
-9.83
-9.54
-9.20
-8.79
-8.15
-7.14
-5.73
-4.04
-2.32
-0.79
0.37
1.21
1.85
2.50
3.32
4.36
5.58
6.83
7.98
8.85
9.37
9.47
9.19
8.62
7.86
7.04
6.21
5.37
4.39
3.20
1.74
0.02
-1.80
-3.53
-4.89
-5.67
-5.68
-4.94
-3.54
-1.76
0.11
1.87
3.42
4.85
6.27
7.79
9.38
10.89
12.13
12.92
13.19
12.98
12.44
11.76
11.09
10.57
10.20
9.96
9.75
9.48
9.07
8.52
7.84
7.06
6.19
5.19
4.01
2.57
0.88
-1.03
-3.08
-5.10
-6.96
-8.45
-9.44
-9.81
-9.56
-8.74
-7.50
-6.04
-4.51
-3.07
-1.73
-0.52
0.62
1.73
2.81
3.83
4.70
5.38
5.82
6.08
6.20
6.29
6.41
6.57
6.74
6.80
6.70
6.36
5.81
5.06
4.12
3.01
1.70
0.25
-1.32
-2.92
-4.50
-6.00
-7.45
-8.89
-10.35
-11.85
-13.30
-14.58
-15.49
-15.87
-15.59
-14.60
-13.05
-11.13
-9.14
-7.27
-5.62
-4.15
-2.76
-1.43
-0.22
0.69
1.15
1.11
0.72
0.27
0.05
0.25
0.78
1.42
1.82
1.76
1.15
0.11
-1.15
-2.42
-3.57
-4.60
-5.56
-6.60
-7.79
-9.17
-10.74
-12.47
-14.34
-16.26
-18.13
-19.70
-20.73
-20.88
-19.95
-17.93
-15.01
-11.60
-8.12
-4.95
-2.30
-0.20
1.49
2.91
4.17
5.35
6.43
7.36
8.14
8.79
9.38
9.90
10.28
10.27
9.57
7.88
5.16
1.54
-2.54
-6.50
-9.77
-11.75
-12.07
-10.56
-7.41
-3.22
0.98
3.96
4.62
2.34
-2.66
-9.43
-16.48
-22.27
-25.66
-26.16
-23.96
-19.77
-14.53
-9.11
-4.21
-0.21
2.73
4.63
5.67
6.07
6.16
6.23
6.53
7.12
7.88
8.56
8.85
8.60
7.81
6.69
5.49
4.46
3.68
3.15
2.76
2.38
1.92
1.29
0.46
-0.63
-2.09
-4.02
-6.51
-9.54
-12.96
-16.36
-19.22
-21.00
-21.31
-20.04
-17.37
-13.68
-9.45
-5.16
-1.10
2.57
5.78
8.58
10.99
13.06
14.78
16.15
17.14
17.78
18.12
18.22
18.12
17.82
17.28
16.43
15.32
14.01
12.61
11.22
9.82
8.37
6.69
4.72
2.46
0.06
-2.31
-4.53
-6.61
-8.73
-11.06
-13.73
-16.59
-19.30
-21.37
-22.32
-21.86
-19.93
-16.75
-12.66
-8.16
-3.68
0.44
3.98
6.88
9.17
10.92
12.11
12.78
12.89
12.54
11.91
11.17
10.50
9.94
9.47
8.99
8.48
7.95
7.36
6.66
5.66
4.21
2.21
-0.27
-3.03
-5.80
-8.37
-10.70
-12.88
-15.20
-17.84
-20.88
-24.08
-26.97
-28.97
-29.57
-28.50
-25.82
-21.86
-17.06
-11.91
-6.78
-1.94
2.40
6.10
9.07
11.29
12.75
13.53
13.70
13.39
12.73
11.88
10.96
10.02
9.05
7.95
6.68
5.17
3.42
1.46
-0.78
-3.35
-6.37
-9.84
-13.61
-17.44
-20.98
-24.01
-26.42
-28.32
-29.85
-31.15
-32.18
-32.75
-32.58
-31.44
-29.30
-26.28
-22.66
-18.69
-14.59
-10.52
-6.59
-3.01
-0.03
2.04
3.01
2.83
1.68
-0.12
-2.23
-4.32
-6.19
-7.67
-8.63
-8.89
-8.35
-7.03
-5.10
-2.88
-0.70
1.21
2.78
4.11
5.41
6.85
8.55
10.52
12.67
14.90
17.00
18.79
20.00
20.51
20.40
20.09
20.31
21.88
25.43
31.10
38.39
46.36
53.98
60.53
65.76
69.88
73.21
75.95
78.03
79.20
79.23
78.12
76.07
73.42
70.51
67.55
64.63
61.73
58.79
55.71
52.36
48.60
44.25
39.28
33.69
27.64
21.34
15.00
8.74
2.62
-3.36
-9.22
-14.88
-20.24
-25.20
-29.72
-33.87
-37.78
-41.64
-45.61
-49.74
-53.97
-58.05
-61.58
-64.04
-64.93
-63.85
-60.71
-55.64
-49.05
-41.44
-33.28
-24.96
-16.73
-8.82
-1.45
5.08
10.54
14.75
17.72
19.63
20.77
21.48
21.98
22.39
22.67
22.74
22.55
22.16
21.67
21.20
20.79
20.33
19.60
18.31
16.26
13.39
9.85
5.99
2.15
-1.37
-4.43
-7.10
-9.63
-12.34
-15.58
-19.58
-24.37
-29.71
-35.06
-39.66
-42.69
-43.54
-41.94
-38.00
-32.19
-25.14
-17.52
-9.89
-2.72
3.61
8.82
12.72
15.25
16.50
16.72
16.17
15.16
13.90
12.54
11.19
9.97
8.99
8.34
8.06
8.08
8.16
7.99
7.24
5.70
3.35
0.42
-2.76
-5.79
-8.42
-10.61
-12.52
-14.49
-16.94
-20.24
-24.51
-29.61
-35.00
-39.84
-43.22
-44.35
-42.85
-38.85
-32.87
-25.64
-17.85
-9.99
-2.32
5.02
11.96
18.39
24.17
29.13
33.12
36.11
38.07
39.14
39.46
39.27
38.71
37.90
36.89
35.67
34.30
32.83
31.30
29.76
28.13
26.29
24.12
21.53
18.51
15.17
11.65
8.13
4.74
1.52
-1.58
-4.68
-7.98
-11.65
-15.76
-20.29
-24.97
-29.40
-33.00
-35.16
-35.39
-33.45
-29.41
-23.61
-16.58
-8.84
-0.86
7.00
14.51
21.37
27.35
32.19
35.76
38.12
39.53
40.35
40.93
41.51
42.07
42.53
42.72
42.58
42.11
41.37
40.40
39.11
37.41
35.17
32.41
29.22
25.80
22.35
18.97
15.71
12.53
9.43
6.39
3.48
0.71
-1.92
-4.45
-7.01
-9.71
-12.69
-16.08
-19.93
-24.18
-28.61
-32.84
-36.38
-38.73
-39.52
-38.62
-36.09
-32.18
-27.30
-21.86
-16.29
-10.94
-6.10
-1.91
1.58
4.41
6.65
8.40
9.76
10.84
11.75
12.59
13.46
14.41
15.44
16.55
17.65
18.65
19.40
19.76
19.64
19.04
18.10
16.94
15.71
14.38
12.88
11.05
8.76
6.01
2.92
-0.34
-3.67
-6.99
-10.33
-13.75
-17.29
-20.97
-24.78
-28.75
-32.82
-36.86
-40.52
-43.33
-44.87
-44.85
-43.31
-40.54
-37.01
-33.08
-28.97
-24.68
-20.17
-15.44
-10.61
-5.95
-1.66
2.11
5.41
8.34
11.02
13.49
15.70
17.61
19.13
20.31
21.21
21.92
22.43
22.65
22.43
21.65
20.29
18.42
16.24
13.91
11.52
9.09
6.56
3.97
1.31
-1.26
-3.69
-5.93
-8.06
-10.22
-12.59
-15.32
-18.52
-22.22
-26.31
-30.49
-34.25
-36.96
-38.06
-37.28
-34.74
-30.90
-26.39
-21.71
-17.09
-12.52
-7.82
-2.90
2.19
7.27
12.15
16.71
20.83
24.37
27.11
28.78
29.21
28.40
26.55
24.01
21.09
17.98
14.75
11.33
7.67
3.73
-0.54
-5.20
-10.32
-15.97
-22.12
-28.62
-35.18
-41.42
-46.93
-51.28
-54.16
-55.42
-55.18
-53.85
-52.05
-50.50
-49.70
-49.75
-50.28
-50.52
-49.54
-46.58
-41.33
-33.98
-25.11
-15.42
-5.55
4.07
13.23
21.80
29.68
36.69
42.69
47.56
51.28
53.96
55.75
56.82
57.28
57.25
56.82
56.12
55.29
54.43
53.59
52.72
51.70
50.34
48.48
45.91
42.53
38.31
33.36
27.95
22.45
17.22
12.50
8.33
4.56
0.95
-2.72
-6.62
-10.82
-15.35
-20.13
-24.95
-29.46
-33.11
-35.34
-35.67
-33.86
-30.00
-24.52
-18.04
-11.25
-4.74
1.06
5.91
9.74
12.57
14.53
15.76
16.48
16.90
17.22
17.58
17.95
18.23
18.23
17.77
16.83
15.50
13.97
12.44
10.97
9.49
7.81
5.71
3.08
-0.04
-3.46
-6.92
-10.15
-13.01
-15.54
-17.85
-20.18
-22.78
-25.85
-29.48
-33.55
-37.69
-41.29
-43.62
-44.01
-42.06
-37.83
-31.71
-24.40
-16.61
-8.89
-1.66
4.91
10.64
15.42
19.13
21.81
23.57
24.68
25.41
25.91
26.22
26.23
25.86
25.04
23.87
22.47
20.99
19.56
18.15
16.67
14.91
12.69
9.89
6.52
2.70
-1.35
-5.37
-9.21
-12.80
-16.22
-19.65
-23.31
-27.40
-32.00
-37.08
-42.30
-47.09
-50.67
-52.28
-51.36
-47.78
-41.92
-34.52
-26.45
-18.40
-10.82
-3.77
2.77
8.81
14.24
18.80
22.29
24.62
25.98
26.65
26.97
27.18
27.32
27.40
27.38
27.37
27.48
27.85
28.41
28.93
29.11
28.63
27.41
25.55
23.37
21.13
18.98
16.92
14.80
12.53
10.03
7.45
4.97
2.80
0.97
-0.62
-2.26
-4.33
-7.17
-11.00
-15.79
-21.26
-26.82
-31.69
-35.05
-36.23
-34.96
-31.42
-26.22
-20.12
-13.87
-7.93
-2.37
2.86
7.92
12.76
17.20
20.92
23.75
25.70
27.02
28.09
29.19
30.44
31.70
32.81
33.56
33.92
34.00
33.89
33.72
33.40
32.81
31.77
30.16
28.02
25.44
22.65
19.85
17.24
14.86
12.66
10.43
7.89
4.86
1.24
-2.87
-7.19
-11.33
-14.99
-17.95
-20.30
-22.36
-24.58
-27.43
-31.09
-35.40
-39.71
-43.15
-44.83
-44.16
-41.10
-35.98
-29.50
-22.30
-14.93
-7.74
-0.98
5.07
10.20
14.14
16.88
18.51
19.39
19.84
20.14
20.40
20.59
20.65
20.56
20.41
20.26
20.18
20.08
19.74
18.96
17.55
15.51
12.95
10.15
7.30
4.52
1.87
-0.68
-3.13
-5.45
-7.59
-9.61
-11.57
-13.68
-16.14
-19.11
-22.69
-26.80
-31.28
-35.69
-39.53
-42.20
-43.15
-42.10
-38.99
-34.14
-28.01
-21.19
-14.15
-7.31
-0.95
4.75
9.64
13.67
16.81
19.12
20.72
21.77
22.48
23.00
23.48
23.94
24.46
25.00
25.61
26.26
26.92
27.54
28.00
28.21
28.02
27.34
26.09
24.23
21.85
19.10
16.17
13.18
10.20
7.15
3.91
0.41
-3.30
-7.02
-10.52
-13.59
-16.18
-18.37
-20.40
-22.59
-25.26
-28.57
-32.49
-36.70
-40.58
-43.41
-44.52
-43.50
-40.41
-35.62
-29.82
-23.64
-17.60
-11.87
-6.51
-1.46
3.26
7.48
11.05
13.82
15.89
17.48
18.92
20.49
22.28
24.21
26.05
27.58
28.59
29.06
29.03
28.68
28.15
27.51
26.76
25.75
24.44
22.77
20.91
19.07
17.43
16.07
14.80
13.42
11.62
9.33
6.57
3.49
0.25
-3.08
-6.45
-9.92
-13.45
-17.06
-20.67
-24.35
-28.11
-31.97
-35.82
-39.31
-42.01
-43.37
-43.02
-40.81
-36.88
-31.60
-25.43
-18.83
-12.17
-5.78
0.09
5.24
9.54
12.97
15.59
17.51
18.81
19.58
19.94
20.04
20.12
20.31
20.71
21.22
21.74
22.11
22.30
22.32
22.17
21.79
21.01
19.68
17.77
15.46
13.07
10.94
9.21
7.72
6.22
4.35
2.03
-0.70
-3.56
-6.33
-8.91
-11.39
-13.96
-16.79
-19.94
-23.34
-26.89
-30.44
-33.81
-36.79
-38.99
-40.05
-39.54
-37.31
-33.41
-28.27
-22.43
-16.46
-10.82
-5.76
-1.46
2.03
4.67
6.51
7.69
8.38
8.88
9.34
9.89
10.52
11.20
11.90
12.60
13.29
13.90
14.37
14.57
14.45
14.01
13.28
12.34
11.24
10.05
8.75
7.36
5.82
4.17
2.42
0.66
-1.04
-2.64
-4.13
-5.67
-7.36
-9.40
-11.90
-15.00
-18.79
-23.30
-28.40
-33.68
-38.50
-42.04
-43.57
-42.72
-39.59
-34.78
-29.05
-23.13
-17.38
-11.88
-6.46
-1.00
4.43
9.54
13.90
17.22
19.40
20.67
21.36
21.86
22.45
23.15
23.92
24.59
25.09
25.36
25.45
25.39
25.18
24.79
24.12
23.12
21.71
19.94
17.91
15.78
13.70
11.75
9.92
8.05
6.02
3.68
1.09
-1.62
-4.22
-6.53
-8.54
-10.36
-12.24
-14.33
-16.77
-19.61
-22.82
-26.39
-30.14
-33.75
-36.68
-38.37
-38.34
-36.48
-33.07
-28.60
-23.63
-18.49
-13.32
-8.08
-2.77
2.47
7.39
11.66
15.08
17.53
19.11
20.00
20.49
20.83
21.23
21.75
22.32
22.80
23.09
23.17
23.09
22.98
22.90
22.76
22.41
21.63
20.34
18.58
16.58
14.58
12.77
11.20
9.78
8.36
6.78
5.00
3.05
1.01
-1.07
-3.18
-5.37
-7.72
-10.26
-13.02
-16.00
-19.23
-22.78
-26.63
-30.65
-34.49
-37.68
-39.69
-40.17
-39.02
-36.38
-32.58
-27.95
-22.81
-17.40
-12.01
-6.86
-2.18
1.92
5.41
8.34
10.74
12.60
13.91
14.67
15.02
15.21
15.50
16.08
16.89
17.73
18.28
18.34
17.82
16.82
15.58
14.31
13.19
12.24
11.44
10.63
9.70
8.53
7.07
5.32
3.26
0.94
-1.60
-4.29
-7.06
-9.84
-12.60
-15.41
-18.40
-21.73
-25.43
-29.33
-33.00
-35.85
-37.32
-37.04
-35.02
-31.46
-26.81
-21.48
-15.79
-9.97
-4.21
1.26
6.21
10.41
13.82
16.45
18.52
20.19
21.56
22.68
23.47
23.97
24.22
24.37
24.51
24.66
24.77
24.66
24.24
23.42
22.29
20.94
19.49
17.97
16.38
14.72
12.97
11.19
9.42
7.73
6.12
4.56
2.97
1.24
-0.70
-2.96
-5.51
-8.33
-11.40
-14.69
-18.21
-21.95
-25.89
-29.94
-33.95
-37.65
-40.70
-42.72
-43.40
-42.56
-40.23
-36.65
-32.14
-27.09
-21.77
-16.39
-11.08
-5.91
-0.97
3.69
8.05
12.17
16.10
19.86
23.36
26.41
28.80
30.35
31.04
30.95
30.32
29.34
28.21
26.96
25.55
23.89
21.89
19.59
17.05
14.48
12.08
10.07
8.61
7.75
7.41
7.29
7.08
6.41
5.08
3.08
0.60
-2.03
-4.60
-6.98
-9.32
-11.84
-14.85
-18.54
-22.94
-27.89
-33.00
-37.80
-41.69
-44.22
-45.05
-44.12
-41.59
-37.79
-33.20
-28.21
-23.28
-18.70
-14.69
-11.35
-8.64
-6.51
-4.81
-3.43
-2.18
-0.91
0.57
2.37
4.52
6.96
9.50
12.00
14.25
16.18
17.63
18.52
18.73
18.21
17.04
15.41
13.64
12.02
10.79
9.97
9.44
8.95
8.20
7.02
5.30
3.15
0.67
-1.99
-4.75
-7.57
-10.37
-13.11
-15.67
-18.00
-20.03
-21.72
-22.96
-23.61
-23.53
-22.62
-20.96
-18.68
-15.99
-13.00
-9.69
-6.01
-1.95
2.29
6.38
9.89
12.60
14.47
15.79
16.95
18.26
19.88
21.69
23.49
25.00
26.04
26.49
26.31
25.53
24.19
22.47
20.56
18.69
16.99
15.43
13.86
12.07
10.00
7.62
5.06
2.32
-0.65
-4.02
-7.95
-12.43
-17.26
-22.06
-26.49
-30.28
-33.37
-35.74
-37.34
-37.94
-37.26
-35.09
-31.41
-26.54
-20.98
-15.30
-9.92
-5.09
-0.87
2.82
5.96
8.60
10.68
12.25
13.42
14.36
15.30
16.35
17.58
18.92
20.31
21.64
22.89
23.99
24.86
25.38
25.40
24.92
24.01
22.91
21.87
21.05
20.47
19.93
19.18
17.97
16.20
13.87
11.14
8.16
5.09
2.03
-1.00
-3.96
-6.95
-10.03
-13.33
-16.89
-20.66
-24.44
-27.86
-30.47
-31.84
-31.73
-30.11
-27.20
-23.40
-19.12
-14.77
-10.53
-6.59
-2.99
0.19
2.86
4.93
6.33
7.04
7.16
6.89
6.45
6.12
6.09
6.41
7.06
7.86
8.70
9.46
10.12
10.64
11.00
11.20
11.19
11.02
10.70
10.31
9.86
9.37
8.81
8.14
7.30
6.16
4.63
2.60
0.07
-2.89
-6.07
-9.30
-12.52
-15.73
-18.98
-22.16
-24.99
-26.99
-27.71
-26.90
-24.58
-21.13
-17.00
-12.62
-8.21
-3.85
0.50
4.80
8.93
12.75
16.07
18.84
21.04
22.79
24.17
25.32
26.34
27.33
28.35
29.34
30.20
30.73
30.83
30.50
29.93
29.38
29.02
28.92
28.85
28.49
27.40
25.26
21.89
17.35
11.90
5.93
-0.10
-5.79
-10.88
-15.28
-19.10
-22.51
-25.70
-28.72
-31.48
-33.65
-34.82
-34.55
-32.59
-28.96
-23.95
-18.10
-11.96
-6.07
-0.70
3.98
8.00
11.42
14.24
16.50
18.10
18.98
19.02
18.19
16.54
14.27
11.72
9.28
7.37
6.25
6.04
6.63
7.82
9.32
10.89
12.38
13.70
14.89
15.92
16.76
17.29
17.28
16.57
15.00
12.55
9.28
5.41
1.09
-3.45
-8.08
-12.71
-17.21
-21.44
-25.12
-27.95
-29.59
-29.84
-28.64
-26.09
-22.46
-18.04
-13.15
-8.01
-2.85
2.20
6.99
11.37
15.22
18.37
20.73
22.17
22.67
22.26
21.13
19.50
17.63
15.80
14.15
12.75
11.55
10.49
9.43
8.29
6.99
5.46
3.75
1.91
0.14
-1.46
-2.76
-3.78
-4.62
-5.45
-6.43
-7.64
-9.14
-10.94
-13.13
-15.83
-19.23
-23.45
-28.46
-34.06
-39.74
-44.93
-48.95
-51.25
-51.53
-49.72
-46.05
-40.82
-34.50
-27.49
-20.24
-13.14
-6.57
-0.81
4.01
7.89
11.03
13.63
15.91
17.96
19.77
21.18
21.98
22.05
21.39
20.21
18.79
17.43
16.20
14.92
13.21
10.61
6.86
1.89
-3.98
-10.17
-15.92
-20.29
-22.48
-22.02
-19.19
-15.12
-11.68
-10.84
-13.90
-21.01
-31.03
-42.06
-52.16
-60.01
-65.01
-67.12
-66.46
-63.11
-57.20
-49.13
-39.76
-30.13
-21.21
-13.40
-6.55
-0.11
6.51
13.49
20.66
27.55
33.79
39.21
43.89
48.05
51.73
54.93
57.46
59.18
60.00
59.98
59.22
57.86
56.12
54.15
52.18
50.29
48.53
46.82
45.10
43.30
41.37
39.39
37.32
35.18
32.85
30.31
27.40
24.02
20.03
15.24
9.59
3.07
-4.11
-11.58
-18.78
-25.11
-30.09
-33.34
-34.82
-34.67
-33.27
-30.98
-28.19
-25.17
-22.08
-19.04
-16.07
-13.27
-10.60
-8.12
-5.80
-3.64
-1.68
0.02
1.32
2.21
2.66
2.87
3.05
3.40
4.00
4.71
5.31
5.50
5.14
4.16
2.77
1.20
-0.34
-1.69
-2.90
-4.02
-5.24
-6.61
-8.15
-9.75
-11.29
-12.69
-13.97
-15.33
-17.06
-19.51
-22.83
-26.96
-31.49
-35.76
-39.08
-40.84
-40.82
-39.02
-35.79
-31.55
-26.68
-21.51
-16.23
-11.01
-5.94
-1.22
3.00
6.52
9.15
10.80
11.43
11.24
10.47
9.51
8.62
7.99
7.70
7.66
7.86
8.18
8.60
9.03
9.41
9.66
9.68
9.43
8.80
7.75
6.20
4.24
1.96
-0.42
-2.70
-4.77
-6.62
-8.48
-10.52
-12.96
-15.78
-18.85
-21.78
-24.11
-25.42
-25.33
-23.78
-20.84
-16.82
-12.11
-7.06
