1513655739.00
64.000000
-0.00
-0.00
-0.00
-0.00
-0.00
-0.00
-0.00
-0.00
-0.00
-0.00
0.00
0.01
0.01
-0.00
-0.03
-0.05
-0.05
0.00
0.13
0.36
0.66
1.01
1.37
1.72
2.06
2.40
2.79
3.24
3.80
4.42
5.06
5.66
6.20
6.68
7.15
7.68
8.31
9.14
10.09
11.04
11.88
12.56
13.14
13.76
14.65
15.96
17.91
20.32
22.90
25.38
27.58
29.57
31.68
34.32
37.81
42.54
48.15
54.10
59.83
64.97
69.58
74.14
79.34
85.71
93.76
103.00
112.62
121.73
129.77
136.75
143.30
150.75
157.77
166.64
177.95
191.79
206.97
220.57
228.25
225.36
208.53
176.87
132.76
80.05
23.07
-34.94
-92.44
-149.16
-205.23
-260.37
-313.74
-363.87
-409.83
-450.91
-486.50
-515.74
-537.23
-549.22
-549.96
-538.37
-514.21
-478.67
-433.88
-382.45
-327.02
-269.84
-212.63
-156.66
-102.95
-52.37
-5.90
35.58
71.43
101.35
125.50
144.38
158.69
169.15
176.37
180.76
182.60
182.10
179.53
175.22
169.58
163.01
155.89
148.48
140.93
133.32
125.67
118.00
110.35
102.77
95.35
88.15
81.22
74.61
68.33
62.35
56.65
51.21
46.00
41.04
36.38
32.09
28.20
24.70
21.52
18.55
15.68
12.86
10.12
7.60
5.44
3.75
2.52
1.59
0.72
-0.34
-1.71
-3.32
-4.93
-6.24
-7.02
-7.26
-7.18
-7.17
-7.63
-8.75
-10.42
-12.28
-13.89
-14.88
-15.16
-14.90
-14.49
-14.36
-14.94
-16.61
-19.55
-23.44
-27.20
-29.11
-27.29
-20.59
-9.29
4.80
18.91
30.32
37.34
39.67
38.18
34.30
29.40
24.50
20.25
17.06
15.18
14.56
14.93
15.70
16.29
16.30
15.58
14.29
12.72
11.26
10.11
9.34
8.77
8.18
7.31
6.14
4.80
3.50
2.49
1.90
1.83
2.28
3.16
4.25
5.25
5.88
6.02
5.95
6.16
7.26
9.49
12.68
16.17
19.16
21.05
21.53
20.74
18.94
16.44
13.43
10.11
6.47
2.65
-1.09
-4.50
-7.35
-9.55
-11.11
-12.18
-13.03
-13.87
-14.84
-15.82
-16.62
-16.94
-16.64
-15.81
-14.70
-13.64
-12.86
-12.41
-12.12
-11.78
-11.22
-10.43
-9.53
-8.68
-8.06
-7.71
-7.59
-7.59
-7.62
-7.64
-7.62
-7.48
-6.99
-5.94
-4.11
-1.58
1.34
4.07
5.99
6.74
6.24
4.81
2.88
0.87
-0.92
-2.41
-3.54
-4.30
-4.58
-4.40
-3.83
-3.09
-2.42
-2.04
-2.07
-2.46
-3.10
-3.79
-4.42
-4.93
-5.33
-5.81
-6.44
-7.23
-8.07
-8.86
-9.48
-9.88
-10.14
-10.43
-10.96
-11.87
-13.21
-14.89
-16.71
-18.30
-19.22
-19.00
-17.28
-13.97
-9.36
-4.04
1.25
5.88
9.50
12.10
13.82
14.82
15.18
14.88
13.98
12.68
11.36
10.39
10.03
10.24
10.73
11.07
10.96
10.26
9.12
7.82
6.57
5.46
4.37
3.09
1.47
-0.48
-2.58
-4.57
-6.19
-7.33
-8.03
-8.45
-8.85
-9.51
-10.71
-12.62
-15.22
-18.20
-20.99
-22.82
-23.02
-21.17
-17.29
-11.85
-5.59
0.64
6.13
10.42
13.35
15.01
15.62
15.52
14.98
14.25
13.51
12.88
12.40
12.12
12.02
12.10
12.29
12.48
12.58
12.47
12.12
11.53
10.78
9.94
8.99
7.95
6.76
5.46
4.09
2.74
1.48
0.30
-0.87
-2.14
-3.58
-5.19
-6.86
-8.51
-10.10
-11.72
-13.52
-15.66
-18.11
-20.57
-22.53
-23.27
-22.19
-19.03
-14.04
-7.91
-1.55
4.18
8.77
12.11
14.40
15.96
17.09
17.98
18.74
19.49
20.36
21.47
22.86
24.41
25.88
26.95
27.41
27.14
26.18
24.68
22.84
20.85
18.81
16.75
14.57
12.19
9.56
6.77
3.97
1.33
-1.08
-3.39
-5.87
-8.86
-12.52
-16.84
-21.54
-26.21
-30.50
-34.17
-37.16
-39.54
-41.51
-43.26
-44.95
-46.60
-48.03
-48.85
-48.52
-46.48
-42.28
-35.84
-27.39
-17.59
-7.40
2.14
10.10
15.98
19.69
21.61
22.30
22.29
21.87
21.15
20.17
19.04
18.04
17.50
17.66
18.56
19.96
21.52
22.94
24.10
25.04
25.99
27.17
28.71
30.63
32.79
34.96
36.86
38.25
38.89
38.60
37.20
34.54
30.58
25.42
19.41
13.05
6.87
1.27
-3.65
-8.13
-12.60
-17.48
-22.94
-28.82
-34.69
-39.92
-43.88
-46.05
-46.08
-43.83
-39.41
-33.20
-25.80
-17.99
-10.54
-4.11
0.86
4.20
5.95
6.36
5.74
4.44
2.75
0.94
-0.71
-1.93
-2.44
-2.08
-0.89
0.86
2.71
4.12
4.73
4.40
3.25
1.55
-0.47
-2.68
-5.04
-7.56
-10.18
-12.82
-15.43
-18.05
-20.81
-23.92
-27.49
-31.52
-35.83
-40.16
-44.27
-47.98
-51.17
-53.74
-55.59
-56.65
-56.91
-56.45
-55.33
-53.56
-50.82
-46.57
-40.11
-30.94
-19.06
-5.13
9.59
23.65
35.73
45.07
51.51
55.39
57.28
57.78
57.37
56.37
55.00
53.41
51.73
50.02
48.32
46.62
44.88
43.04
41.03
38.86
36.59
34.32
32.20
30.32
28.67
27.07
25.30
23.12
20.42
17.23
13.76
10.31
7.14
4.44
2.28
0.60
-0.77
-2.07
-3.54
-5.40
-7.64
-10.03
-12.02
-12.95
-12.26
-9.75
-5.74
-0.91
3.88
7.99
11.15
13.52
15.41
17.04
18.43
19.35
19.59
19.10
18.11
17.05
16.35
16.21
16.54
17.05
17.39
17.34
16.89
16.22
15.56
15.04
14.61
14.07
13.20
11.83
10.02
7.99
6.06
4.51
3.40
2.63
1.88
0.88
-0.59
-2.61
-5.19
-8.25
-11.62
-14.95
-17.75
-19.42
-19.49
-17.82
-14.72
-10.85
-7.02
-3.84
-1.62
-0.27
0.38
0.58
0.37
-0.27
-1.33
-2.71
-4.10
-5.21
-5.74
-5.62
-4.96
-4.05
-3.24
-2.78
-2.81
-3.21
-3.77
-4.21
-4.38
-4.31
-4.17
-4.25
-4.76
-5.80
-7.26
-8.93
-10.50
-11.77
-12.63
-13.15
-13.57
-14.16
-15.24
-16.93
-19.14
-21.52
-23.54
-24.61
-24.24
-22.25
-18.76
-14.24
-9.24
-4.32
0.09
3.77
6.60
8.53
9.58
9.92
9.78
9.51
9.40
9.55
9.87
10.12
10.08
9.70
9.12
8.56
8.20
8.09
8.05
7.88
7.38
6.47
5.23
3.82
2.43
1.20
0.18
-0.71
-1.58
-2.54
-3.61
-4.71
-5.71
-6.50
-7.13
-7.67
-8.30
-9.12
-10.18
-11.46
-12.99
-14.81
-16.89
-19.02
-20.66
-21.07
-19.50
-15.55
-9.35
-1.63
6.47
13.85
19.72
23.89
26.64
28.56
30.20
31.85
33.48
34.82
35.61
35.70
35.20
34.40
33.60
33.05
32.84
33.04
33.71
35.03
37.22
40.45
44.82
50.18
56.23
62.59
68.85
74.67
79.79
83.95
86.83
88.13
87.47
84.67
79.71
72.95
64.99
56.69
48.91
42.29
36.99
32.60
28.36
23.32
16.75
8.40
-1.42
-11.88
-21.92
-30.47
-36.84
-40.80
-42.73
-43.42
-43.84
-44.85
-46.93
-50.13
-54.12
-58.42
-62.50
-65.97
-68.46
-69.61
-69.11
-66.70
-62.36
-56.30
-49.01
-41.05
-32.94
-25.05
-17.57
-10.65
-4.40
1.01
5.42
8.70
10.86
11.99
12.19
11.56
10.06
7.68
4.40
0.34
-4.27
-9.12
-13.91
-18.45
-22.65
-26.56
-30.28
-33.95
-37.71
-41.63
-45.79
-50.07
-54.21
-57.65
-59.69
-59.63
-57.05
-52.05
-45.27
-37.82
-30.80
-25.04
-20.73
-17.59
-15.07
-12.70
-10.35
-8.13
-6.27
-4.75
-3.29
-1.53
0.74
3.30
5.61
7.03
7.23
6.24
4.49
2.45
0.35
-1.85
-4.42
-7.52
-11.09
-14.75
-18.06
-20.64
-22.34
-23.26
-23.57
-23.44
-22.92
-22.07
-20.86
-19.43
-17.95
-16.70
-15.95
-15.83
-16.23
-16.69
-16.44
-14.59
-10.51
-4.09
4.09
12.97
21.46
28.76
34.67
39.43
43.41
46.77
49.28
50.55
50.23
48.41
45.57
42.52
40.01
38.46
37.82
37.62
37.26
36.22
34.35
31.83
29.10
26.59
24.50
22.76
20.97
18.72
15.74
12.08
8.06
4.16
0.73
-2.19
-4.89
-7.93
-11.82
-16.87
-23.09
-30.21
-37.80
-45.36
-52.39
-58.32
-62.63
-64.96
-65.32
-64.16
-62.26
-60.35
-58.75
-57.13
-54.75
-50.89
-45.40
-38.82
-32.25
-26.70
-22.71
-20.09
-18.23
-16.45
-14.44
-12.22
-10.01
-7.89
-5.68
-3.01
0.36
4.31
8.24
11.21
12.30
11.00
7.30
1.83
-4.41
-10.24
-14.71
-17.23
-17.81
-17.00
-15.69
-14.90
-15.33
-17.19
-20.11
-23.24
-25.56
-26.19
-24.70
-21.20
-16.24
-10.62
-5.14
-0.33
3.59
6.77
9.48
11.96
14.29
16.42
18.33
20.10
21.93
24.00
26.30
28.63
30.59
31.92
32.61
32.88
33.10
33.45
33.84
33.87
33.06
31.04
27.74
23.42
18.52
13.53
8.77
4.42
0.48
-3.13
-6.56
-9.95
-13.47
-17.24
-21.13
-24.75
-27.39
-28.26
-26.79
-22.91
-17.21
-10.78
-4.84
-0.27
2.56
3.90
4.23
4.08
3.74
3.24
2.53
1.57
0.46
-0.59
-1.38
-1.81
-1.97
-2.07
-2.38
-3.02
-3.99
-5.10
-6.12
-6.85
-7.25
-7.43
-7.54
-7.74
-8.07
-8.50
-8.91
-9.25
-9.57
-9.99
-10.70
-11.81
-13.26
-14.67
-15.43
-14.80
-12.19
-7.46
-0.99
6.31
13.40
19.40
23.89
26.90
28.75
29.72
29.89
29.21
27.61
25.26
22.55
19.97
17.83
16.10
14.48
12.55
10.05
7.00
3.73
0.62
-2.06
-4.26
-6.15
-7.96
-9.84
-11.78
-13.60
-15.05
-16.00
-16.46
-16.62
-16.88
-17.61
-19.15
-21.62
-24.96
-28.86
-32.71
-35.71
-36.90
-35.52
-31.26
-24.48
-16.19
-7.74
-0.36
5.16
8.71
10.64
11.46
11.58
11.12
10.10
8.60
6.85
5.28
4.28
4.12
4.72
5.77
6.80
7.39
7.31
6.54
5.29
3.82
2.38
1.04
-0.22
-1.49
-2.91
-4.52
-6.31
-8.21
-10.14
-11.99
-13.73
-15.35
-16.95
-18.70
-20.81
-23.48
-26.76
-30.58
-34.62
-38.37
-41.13
-42.18
-40.95
-37.21
-31.22
-23.70
-15.62
-7.93
-1.25
4.20
8.58
12.10
14.95
17.09
18.49
19.18
19.34
19.33
19.45
19.87
20.49
21.13
21.61
21.86
21.97
22.02
22.08
22.04
21.71
20.90
19.53
17.66
15.51
13.37
11.48
9.97
8.77
7.67
6.35
4.56
2.29
-0.29
-2.80
-4.93
-6.54
-7.79
-9.07
-10.86
-13.55
-17.19
-21.46
-25.64
-28.77
-29.93
-28.54
-24.53
-18.39
-11.01
-3.42
3.53
9.33
13.84
17.18
19.51
20.99
21.70
21.74
21.34
20.78
20.40
20.40
20.79
21.40
21.92
22.15
22.02
21.62
21.08
20.45
19.62
18.38
16.63
14.40
11.92
9.51
7.42
5.73
4.28
2.84
1.16
-0.84
-3.07
-5.33
-7.43
-9.24
-10.79
-12.28
-13.97
-16.17
-19.05
-22.64
-26.64
-30.47
-33.28
-34.18
-32.50
-28.04
-21.22
-12.93
-4.33
3.54
9.99
14.74
17.95
19.93
21.04
21.58
21.81
21.94
22.12
22.48
22.99
23.58
24.02
24.15
23.85
23.17
22.24
21.28
20.48
19.83
19.21
18.40
17.16
15.44
13.37
11.22
9.26
7.66
6.36
5.20
3.94
2.45
0.71
-1.22
-3.22
-5.23
-7.24
-9.27
-11.39
-13.75
-16.49
-19.75
-23.45
-27.15
-30.15
-31.55
-30.66
-27.20
-21.50
-14.41
-6.98
-0.17
5.46
9.79
13.02
15.46
17.37
18.87
19.92
20.53
20.75
20.74
20.73
20.92
21.38
22.05
22.71
23.14
23.22
22.98
22.59
22.20
21.88
21.53
20.89
19.73
17.88
15.43
12.68
10.06
7.95
6.51
5.66
5.07
4.36
3.21
1.55
-0.50
-2.62
-4.52
-6.07
-7.27
-8.32
-9.44
-10.86
-12.76
-15.27
-18.42
-22.05
-25.73
-28.72
-30.20
-29.42
-26.07
-20.42
-13.26
-5.62
1.49
7.43
11.97
15.28
17.69
19.53
20.99
22.12
22.89
23.37
23.73
24.24
25.13
26.50
28.20
29.91
31.32
32.24
32.72
33.00
33.36
34.01
34.93
35.96
36.84
37.34
37.34
36.89
36.14
35.27
34.39
33.46
32.29
30.57
28.01
24.42
19.77
14.23
8.05
1.56
-5.03
-11.58
-18.11
-24.77
-31.79
-39.31
-47.28
-55.23
-62.29
-67.31
-69.23
-67.40
-61.88
-53.40
-43.15
-32.42
-22.25
-13.26
-5.75
0.19
4.57
7.40
8.88
9.36
9.40
9.62
10.41
11.81
13.42
14.57
14.64
13.33
10.81
7.65
4.54
1.96
-0.03
-1.82
-4.04
-7.21
-11.46
-16.41
-21.24
-25.01
-26.99
-26.99
-25.35
-22.83
-20.30
-18.49
-17.83
-18.37
-19.86
-21.82
-23.62
-24.71
-24.75
-23.85
-22.47
-21.28
-20.74
-20.81
-20.88
-20.03
-17.52
-13.09
-7.11
-0.35
6.32
12.26
17.08
20.62
22.81
23.60
23.08
21.47
19.26
17.00
15.20
14.17
13.94
14.40
15.29
16.39
17.42
18.05
17.95
16.81
14.61
11.54
8.17
5.13
2.99
2.00
2.02
2.66
3.36
3.70
3.29
1.94
-0.52
-4.13
-8.78
-14.11
-19.63
-24.88
-29.56
-33.71
-37.47
-40.91
-43.83
-45.72
-46.00
-44.23
-40.46
-35.17
-29.15
-23.19
-17.85
-13.46
-10.05
-7.58
-5.93
-4.93
-4.29
-3.64
-2.68
-1.22
0.67
2.79
4.93
7.03
9.21
11.68
14.57
17.77
20.89
23.39
24.86
25.15
24.54
23.55
22.76
22.53
22.85
23.42
23.76
23.48
22.31
20.21
17.20
13.27
8.47
2.94
-2.87
-8.27
-12.50
-15.05
-15.90
-15.55
-14.87
-14.62
-15.26
-16.66
-18.33
-19.70
-20.44
-20.62
-20.57
-20.70
-21.16
-21.79
-22.23
-22.10
-21.19
-19.57
-17.59
-15.69
-14.40
-14.18
-15.34
-17.85
-21.32
-24.97
-27.93
-29.66
-30.16
-30.00
-29.90
-30.35
-31.32
-32.36
-32.94
-32.78
-31.96
-30.71
-29.14
-27.01
-23.92
-19.59
-14.14
-8.23
-2.74
1.52
4.08
4.95
4.43
2.97
0.96
-1.25
-3.37
-5.06
-5.91
-5.50
-3.52
0.03
4.76
9.85
14.39
17.60
19.16
19.21
18.20
16.66
14.89
13.02
10.98
8.75
6.33
3.89
1.56
-0.60
-2.57
-4.45
-6.29
-8.17
-10.16
-12.33
-14.76
-17.40
-20.05
-22.26
-23.49
-23.17
-20.97
-16.91
-11.37
-5.02
1.46
7.53
12.94
17.65
21.76
25.29
28.17
30.30
31.65
32.36
32.64
32.81
33.04
33.37
33.71
33.91
33.90
33.63
33.15
32.47
31.59
30.42
28.89
26.99
24.76
22.35
19.93
17.67
15.70
14.01
12.46
10.86
9.02
6.85
4.44
2.00
-0.22
-2.06
-3.52
-4.75
-6.01
-7.56
-9.60
-12.22
-15.40
-18.94
-22.42
-25.22
-26.62
-26.05
-23.33
-18.73
-12.92
-6.70
-0.77
4.50
8.99
12.79
15.98
18.63
20.70
22.17
23.04
23.42
23.43
23.24
23.04
22.97
23.13
23.51
24.00
24.46
24.70
24.66
24.30
23.69
22.86
21.82
20.57
19.14
17.61
16.16
15.01
14.28
13.89
13.62
13.11
12.10
10.52
8.55
6.47
4.54
2.83
1.21
-0.51
-2.48
-4.58
-6.58
-8.17
-9.21
-9.84
-10.43
-11.46
-13.31
-16.07
-19.40
-22.66
-25.02
-25.68
-24.21
-20.62
-15.41
-9.35
-3.28
2.18
6.73
10.35
13.19
15.40
17.08
18.25
18.92
19.14
19.04
18.76
18.47
18.31
18.35
18.60
18.97
19.29
19.39
19.14
18.51
17.60
16.58
15.61
14.77
14.03
13.30
12.47
11.54
10.54
9.54
8.62
7.76
6.91
6.05
5.19
4.38
3.59
2.76
1.78
0.56
-0.85
-2.28
-3.53
-4.51
-5.27
-6.00
-6.92
-8.15
-9.71
-11.51
-13.52
-15.72
-18.04
-20.20
-21.69
-21.88
-20.32
-16.96
-12.24
-6.98
-2.00
2.12
5.17
7.29
8.74
9.77
10.51
11.00
11.27
11.37
11.38
11.42
11.58
11.92
12.42
13.01
13.53
13.86
13.87
13.54
12.93
12.15
11.31
10.49
9.68
8.88
8.06
7.26
6.51
5.89
5.43
5.08
4.77
4.39
3.91
3.34
2.69
1.97
1.14
0.14
-1.10
-2.53
-4.10
-5.70
-7.22
-8.66
-10.02
-11.38
-12.82
-14.43
-16.27
-18.28
-20.27
-21.82
-22.46
-21.77
-19.57
-16.01
-11.56
-6.85
-2.48
1.14
3.86
5.78
7.08
7.99
8.65
9.13
9.41
9.49
9.42
9.31
9.27
9.44
9.84
10.36
10.81
10.98
10.82
10.39
9.88
9.43
9.05
8.66
8.07
7.22
6.14
5.00
3.93
3.02
2.22
1.45
0.66
-0.15
-0.88
-1.49
-1.96
-2.37
-2.84
-3.51
-4.46
-5.69
-7.14
-8.62
-9.98
-11.10
-12.00
-12.84
-13.83
-15.22
-17.04
-19.09
-20.88
-21.76
-21.18
-18.89
-15.08
-10.34
-5.45
-1.09
2.37
4.90
6.67
7.91
8.73
9.18
9.27
9.12
8.94
8.97
9.28
9.86
10.50
11.00
11.19
11.02
10.55
9.94
9.37
8.96
8.73
8.61
8.47
8.16
7.59
6.72
5.59
4.28
2.91
1.62
0.53
-0.26
-0.69
-0.80
-0.69
-0.56
-0.62
-1.06
-1.95
-3.26
-4.80
-6.36
-7.72
-8.74
-9.40
-9.77
-9.99
-10.27
-10.79
-11.76
-13.31
-15.38
-17.67
-19.64
-20.57
-19.89
-17.40
-13.35
-8.45
-3.54
0.68
3.89
6.12
7.65
8.73
9.47
9.85
9.83
9.50
9.02
8.60
8.34
8.22
8.14
7.99
7.78
7.62
7.62
7.78
7.99
8.02
7.71
7.01
6.04
4.99
3.99
3.12
2.39
1.77
1.27
0.85
0.47
0.05
-0.46
-1.06
-1.68
-2.24
-2.72
-3.18
-3.75
-4.54
-5.56
-6.67
-7.67
-8.45
-9.03
-9.56
-10.25
-11.26
-12.65
-14.35
-16.20
-17.90
-19.07
-19.27
-18.15
-15.58
-11.77
-7.24
-2.66
1.35
4.43
6.49
7.67
8.19
8.22
7.86
7.21
6.39
5.58
4.97
4.67
4.72
5.06
5.58
6.15
6.66
6.98
7.03
6.81
6.32
5.67
4.96
4.25
3.57
2.88
2.16
1.39
0.63
-0.05
-0.61
-1.08
-1.60
-2.33
-3.36
-4.65
-6.02
-7.27
-8.21
-8.83
-9.22
-9.57
-10.02
-10.72
-11.75
-13.15
-14.90
-16.80
-18.51
-19.50
-19.32
-17.64
-14.55
-10.52
-6.24
-2.47
0.30
1.91
2.54
2.59
2.40
2.18
1.88
1.33
0.34
-1.06
-2.65
-4.05
-4.91
-5.14
-4.90
-4.61
-4.71
-5.51
-6.93
-8.65
-10.19
-11.19
-11.54
-11.37
-11.05
-10.93
-11.31
-12.35
-14.03
-16.12
-17.97
-18.41
-15.87
-8.79
3.75
21.52
43.01
65.89
87.69
106.59
121.70
133.06
141.14
146.53
149.79
151.50
152.38
153.14
154.22
155.31
155.33
152.66
145.91
134.60
119.62
102.95
86.99
73.60
63.46
55.90
49.39
42.15
32.95
21.55
8.70
-4.26
-15.97
-25.61
-33.19
-39.44
-45.42
-51.84
-58.84
-65.88
-72.18
-77.28
-81.32
-84.89
-88.57
-92.58
-96.45
-99.38
-100.69
-100.13
-98.03
-94.92
-91.22
-86.89
-81.45
-74.28
-65.01
-53.79
-41.24
-28.37
-16.19
-5.57
2.92
9.00
12.68
14.24
14.20
13.34
12.58
12.82
14.72
18.61
24.35
31.41
38.99
46.19
52.31
56.86
59.63
60.55
59.51
56.24
50.20
40.85
27.87
11.60
-6.72
-25.12
-41.25
-53.21
-60.03
-62.15
-61.19
-59.54
-59.46
-62.38
-68.57
-76.98
-85.82
-93.11
-97.48
-98.39
-96.22
-91.86
-86.29
-80.31
-74.46
-69.22
-65.09
-62.54
-61.77
-62.44
-63.71
-64.41
-63.55
-60.64
-55.85
-49.77
-43.05
-36.05
-28.80
-21.16
-12.98
-4.45
4.10
12.19
19.58
26.29
32.58
38.75
44.86
50.76
56.09
60.64
64.44
67.76
70.90
73.87
76.29
77.45
76.76
73.94
69.33
63.68
57.94
52.91
49.06
46.64
45.56
45.53
45.99
46.09
44.89
41.57
35.71
27.29
16.70
4.45
-9.02
-23.42
-38.56
-54.16
-69.70
-84.27
-96.75
-106.03
-111.35
-112.45
-109.71
-103.93
-96.12
-87.28
-78.20
-69.53
-61.80
-55.42
-50.63
-47.36
-45.16
-43.31
-41.04
-37.87
-33.75
-29.07
-24.48
-20.59
-17.74
-15.90
-14.77
-13.99
-13.36
-12.91
-12.84
-13.31
-14.26
-15.38
-16.21
-16.39
-15.86
-14.89
-13.95
-13.56
-13.97
-15.15
-16.71
-18.14
-18.91
-18.59
-16.96
-14.04
-10.06
-5.47
-0.81
3.44
7.00
9.86
12.23
14.38
16.43
18.29
19.66
20.26
19.99
19.04
17.81
16.74
16.09
15.87
15.81
15.57
14.90
13.75
12.31
10.83
9.47
8.19
6.78
5.02
2.83
0.36
-2.07
-4.11
-5.56
-6.51
-7.25
-8.17
-9.59
-11.64
-14.28
-17.32
-20.49
-23.46
-25.86
-27.28
-27.38
-25.93
-22.95
-18.68
-13.57
-8.13
-2.82
2.06
6.40
10.19
13.48
16.26
18.51
20.20
21.35
22.07
22.45
22.64
22.71
22.68
22.49
22.08
21.42
20.54
19.57
18.64
17.84
17.17
16.50
15.65
14.46
12.86
10.92
8.87
6.91
5.23
3.85
2.67
1.54
0.27
-1.18
-2.81
-4.50
-6.15
-7.72
-9.23
-10.77
-12.42
-14.25
-16.29
-18.58
-21.06
-23.56
-25.76
-27.17
-27.28
-25.70
-22.41
-17.70
-12.21
-6.63
-1.53
2.81
6.43
9.49
12.21
14.64
16.74
18.40
19.53
20.20
20.55
20.80
21.07
21.39
21.68
21.87
21.88
21.71
21.36
20.88
20.29
19.64
18.92
18.13
17.18
16.01
14.56
12.87
11.04
9.27
7.74
6.56
5.73
5.11
4.53
3.82
2.85
1.56
-0.03
-1.84
-3.74
-5.55
-7.15
-8.51
-9.76
-11.08
-12.70
-14.76
-17.17
-19.66
-21.69
-22.70
-22.24
-20.09
-16.45
-11.79
-6.78
-2.04
2.01
5.27
7.84
9.96
11.81
13.45
14.78
15.64
15.95
15.80
15.43
15.15
15.21
15.69
16.38
16.98
17.15
16.74
15.85
14.74
13.71
12.87
12.21
11.55
10.73
9.68
8.42
7.11
5.89
4.92
4.28
3.91
3.69
3.43
2.95
2.19
1.18
0.02
-1.18
-2.37
-3.54
-4.72
-5.91
-7.13
-8.43
-9.89
-11.59
-13.53
-15.57
-17.35
-18.39
-18.25
-16.67
-13.69
-9.67
-5.20
-0.92
2.68
5.41
7.37
8.84
10.09
11.17
11.93
12.15
11.77
10.95
10.09
9.58
9.63
10.17
10.88
11.45
11.72
11.78
11.87
12.15
12.58
12.91
12.77
11.92
10.40
8.51
6.66
5.23
4.30
3.73
3.16
2.30
1.03
-0.49
-1.95
-3.06
-3.73
-4.13
-4.61
-5.45
-6.81
-8.62
-10.72
-12.91
-15.06
-16.97
-18.35
-18.76
-17.74
-15.14
-11.18
-6.53
-2.01
1.67
4.24
5.81
6.72
7.27
7.61
7.70
7.45
6.90
6.21
5.62
5.38
5.56
6.13
6.88
7.57
7.98
7.95
7.50
6.75
5.89
5.11
4.53
4.14
3.87
3.60
3.23
2.68
1.85
0.71
-0.75
-2.42
-4.07
-5.42
-6.28
-6.63
-6.67
-6.70
-7.03
-7.87
-9.27
-11.12
-13.17
-15.04
-16.26
-16.38
-15.11
-12.44
-8.70
-4.49
-0.48
2.78
5.08
6.55
7.53
8.33
9.11
9.80
10.18
10.09
9.53
8.72
7.95
7.53
7.55
8.00
8.70
9.46
10.10
10.51
10.63
10.40
9.83
8.94
7.80
6.53
5.21
3.89
2.57
1.25
-0.10
-1.46
-2.77
-3.98
-5.01
-5.86
-6.54
-7.15
-7.74
-8.40
-9.17
-10.16
-11.44
-12.99
-14.62
-15.89
-16.25
-15.24
-12.68
-8.79
-4.10
0.65
4.80
7.90
9.80
10.62
10.64
10.19
9.53
8.85
8.20
7.65
7.20
6.94
6.94
7.21
7.68
8.20
8.60
8.80
8.83
8.78
8.73
8.71
8.62
8.32
7.72
6.84
5.77
4.71
3.80
3.14
2.68
2.32
1.93
1.41
0.73
-0.08
-0.99
-1.94
-2.95
-4.05
-5.28
-6.69
-8.31
-10.13
-12.08
-13.98
-15.50
-16.20
-15.67
-13.68
-10.40
-6.30
-2.09
1.56
4.28
6.07
7.16
7.89
8.42
8.70
8.62
8.11
7.34
6.60
6.21
6.35
6.96
7.85
8.72
9.34
9.58
9.40
8.91
8.20
7.44
6.72
6.08
5.50
4.92
4.27
3.58
2.91
2.28
1.68
0.98
0.08
-1.05
-2.25
-3.30
-3.99
-4.29
-4.37
-4.61
-5.36
-6.78
-8.79
-10.99
-12.91
-14.13
-14.39
-13.64
-12.00
-9.76
-7.23
-4.75
-2.60
-0.91
0.30
1.16
1.78
2.27
2.65
2.92
3.12
3.30
3.56
3.89
4.23
4.44
4.40
4.08
3.59
3.15
3.00
3.21
3.67
4.16
4.40
4.22
3.60
2.71
1.81
1.10
0.69
0.53
0.46
0.21
-0.46
-1.73
-3.67
-6.13
-8.71
-10.86
-12.00
-11.69
-9.83
-6.68
-2.79
1.13
4.53
7.03
8.64
9.58
10.26
11.05
12.17
13.64
15.32
17.02
18.65
20.24
21.89
23.68
25.58
27.36
28.84
29.95
30.88
32.01
33.66
35.98
38.74
41.50
43.79
45.35
46.23
46.69
46.95
47.09
46.99
46.36
45.06
43.07
40.56
37.73
34.76
31.83
29.08
26.82
25.34
24.92
25.54
26.85
28.24
28.99
28.70
27.26
25.00
22.37
19.73
17.18
14.54
11.58
8.13
4.29
0.33
-3.36
-6.51
-9.08
-11.20
-13.18
-15.25
-17.55
-20.04
-22.62
-25.16
-27.61
-30.02
-32.36
-34.52
-36.28
-37.38
-37.70
-37.36
-36.72
-36.24
-36.32
-37.06
-38.33
-39.78
-41.05
-41.91
-42.35
-42.56
-42.88
-43.68
-45.23
-47.56
-50.39
-53.10
-54.88
-54.99
-53.03
-49.17
-44.02
-38.43
-33.18
-28.69
-25.00
-21.90
-19.14
-16.54
-14.06
-11.72
-9.54
-7.46
-5.45
-3.49
-1.66
-0.04
1.27
2.24
2.92
3.45
3.99
4.66
5.54
6.61
7.75
8.80
9.61
10.10
10.22
10.01
9.48
8.71
7.76
6.74
5.78
4.97
4.36
3.91
3.55
3.12
2.53
1.73
0.79
-0.18
-1.03
-1.67
-2.13
-2.53
-3.07
-3.98
-5.34
-7.06
-8.81
-10.11
-10.42
-9.40
-6.98
-3.41
0.81
5.08
8.88
11.92
14.17
15.77
16.94
17.86
18.65
19.29
19.76
20.00
19.99
19.71
19.17
18.39
17.45
16.42
15.44
14.67
14.24
14.17
14.34
14.46
14.24
13.40
11.84
9.64
7.08
4.49
2.19
0.40
-0.86
-1.69
-2.36
-3.14
-4.20
-5.53
-6.94
-8.22
-9.18
-9.91
-10.60
-11.60
-13.10
-15.11
-17.41
-19.62
-21.33
-22.16
-21.85
-20.26
-17.42
-13.59
-9.22
-4.90
-1.13
1.72
3.58
4.55
4.88
4.78
4.41
3.90
3.33
2.86
2.64
2.79
3.30
4.04
4.77
5.20
5.14
4.52
3.47
2.21
1.00
-0.04
-0.90
-1.64
-2.30
-2.83
-3.07
-2.86
-2.20
-1.31
-0.60
-0.51
-1.28
-2.86
-4.91
-7.00
-8.75
-10.06
-11.09
-12.11
-13.46
-15.30
-17.60
-20.11
-22.41
-24.01
-24.45
-23.47
-21.07
-17.57
-13.47
-9.38
-5.79
-3.00
-1.10
0.09
0.82
1.37
1.91
2.51
3.05
3.42
3.53
3.44
3.32
3.37
3.73
4.38
5.21
6.06
6.79
7.36
7.77
8.07
8.27
8.40
8.39
8.22
7.87
7.32
6.63
5.87
5.16
4.57
4.13
3.79
3.44
2.97
2.28
1.38
0.34
-0.70
-1.59
-2.27
-2.75
-3.19
-3.74
-4.63
-5.96
-7.74
-9.74
-11.53
-12.55
-12.20
-10.13
-6.35
-1.39
3.98
8.93
12.88
15.64
17.36
18.39
19.00
19.33
19.36
19.05
18.43
17.63
16.87
16.26
15.86
15.54
15.14
14.58
13.86
13.11
12.46
12.04
11.84
11.82
11.88
11.91
11.85
11.58
10.97
9.93
8.40
6.48
4.36
2.25
0.28
-1.56
-3.44
-5.47
-7.68
-9.91
-11.88
-13.35
-14.27
-14.82
-15.32
-16.09
-17.33
-19.08
-21.25
-23.63
-25.94
-27.68
-28.27
-27.13
-23.92
-18.79
-12.41
-5.79
0.06
4.46
7.24
8.68
9.29
9.50
9.52
9.35
8.90
8.22
7.43
6.73
6.20
5.72
4.97
3.48
0.97
-2.61
-6.96
-11.58
-15.90
-19.48
-22.07
-23.62
-24.25
-24.12
-23.41
-22.22
-20.58
-18.47
-15.85
-12.81
-9.53
-6.29
-3.26
-0.47
2.29
5.36
8.93
12.91
16.80
19.91
21.48
21.04
18.47
13.97
8.06
1.41
-5.13
-10.69
-14.49
-16.06
-15.45
-13.24
-10.36
-7.77
-6.20
-5.86
-6.55
-7.79
-9.01
-9.78
-9.83
-9.14
-7.80
-6.01
-3.96
-1.84
0.14
1.76
2.67
2.57
1.17
-1.54
-5.35
-9.75
-14.13
-17.92
-20.72
-22.42
-23.11
-23.04
-22.56
-21.99
-21.53
-21.20
-20.91
-20.37
-19.37
-17.85
-16.01
-14.32
-13.33
-13.58
-15.25
-18.15
-21.57
-24.40
-25.24
-22.81
-16.45
-6.49
5.47
16.99
25.47
29.08
27.42
21.52
13.47
5.50
-0.57
-3.77
-3.91
-1.43
2.85
7.89
12.58
16.02
17.76
17.96
17.22
16.26
15.44
14.52
12.77
9.29
3.45
-4.77
-14.70
-25.10
-34.36
-40.84
-43.21
-40.83
-34.04
-24.09
-12.81
-2.03
6.99
13.79
18.66
22.15
24.73
26.53
27.53
27.71
27.20
26.28
25.12
23.80
22.25
20.54
18.93
17.84
17.70
18.71
20.81
23.59
26.47
28.82
30.11
30.03
28.52
25.83
22.33
18.43
14.27
9.73
4.51
-1.59
-8.44
-15.51
-21.96
-27.11
-30.55
-32.36
-32.96
-32.88
-32.64
-32.58
-32.89
-33.54
-34.31
-34.70
-33.98
-31.44
-26.73
-20.11
-12.48
-5.17
0.64
4.35
6.06
6.39
6.02
5.45
4.89
4.51
4.65
5.89
8.80
13.59
19.92
26.91
33.61
39.33
43.89
47.41
50.07
51.70
51.84
49.99
45.85
39.57
31.70
22.95
13.99
5.22
-3.10
-10.81
-17.73
-23.74
-28.80
-33.11
-36.98
-40.75
-44.57
-48.22
-51.24
-52.97
-52.85
-50.61
-46.47
-41.12
-35.48
-30.39
-26.27
-23.07
-20.27
-17.30
-13.75
-9.58
-5.04
-0.43
3.99
8.17
12.09
15.67
18.69
20.81
21.78
21.50
20.12
17.96
15.43
12.90
10.65
8.87
7.67
7.14
7.22
7.77
8.55
9.26
9.70
9.78
9.58
9.17
8.65
7.95
6.98
5.58
3.66
1.19
-1.76
-5.01
-8.30
-11.17
-13.13
-13.75
-12.73
-10.12
-6.22
-1.54
3.37
8.02
12.10
15.40
17.81
19.26
19.74
19.29
18.07
16.36
14.44
12.57
10.84
9.24
7.67
6.09
4.61
3.44
2.92
3.20
4.23
5.65
6.99
7.78
7.85
7.28
6.45
5.79
5.70
6.41
7.97
10.26
12.98
15.66
17.69
18.55
17.96
16.17
13.93
12.25
11.94
13.26
15.77
18.55
20.61
21.31
20.51
18.52
15.84
12.95
10.12
7.49
5.07
2.92
1.12
-0.23
-1.07
-1.42
-1.36
-1.11
-0.85
-0.70
-0.67
-0.57
-0.19
0.58
1.68
2.88
3.90
4.55
4.78
4.63
4.16
3.43
2.44
1.27
-0.01
-1.29
-2.49
-3.66
-4.84
-6.04
-7.13
-7.93
-8.34
-8.48
-8.75
-9.59
-11.34
-14.03
-17.28
-20.55
-23.25
-24.91
-25.21
-23.92
-20.96
-16.41
-10.66
-4.36
1.67
6.73
10.45
12.83
14.11
14.60
14.53
14.00
13.15
12.12
11.17
10.49
10.14
10.04
9.99
9.78
9.19
8.13
6.51
4.36
1.81
-0.97
-3.74
-6.40
-8.94
-11.47
-14.07
-16.72
-19.24
-21.40
-23.08
-24.34
-25.41
-26.54
-27.84
-29.17
-30.24
-30.68
-30.25
-28.99
-27.07
-24.89
-22.80
-21.09
-19.95
-19.41
-19.37
-19.55
-19.57
-18.92
-17.13
-13.90
-9.21
-3.38
2.96
9.06
14.28
18.20
20.80
22.31
23.09
23.46
23.61
23.62
23.55
23.49
23.60
24.07
24.96
26.18
27.51
28.71
29.68
30.46
31.22
32.00
32.72
33.20
33.27
32.93
32.37
31.84
31.51
31.31
30.97
30.22
28.87
26.93
24.56
21.92
19.07
15.94
12.44
8.50
4.07
-0.79
-6.05
-11.53
-16.95
-21.79
-25.45
-27.41
-27.49
-26.01
-23.69
-21.43
-19.97
-19.63
-20.25
-21.34
-22.38
-23.06
-23.40
-23.60
-23.87
-24.24
-24.50
-24.35
-23.51
-21.94
-19.80
-17.38
-14.91
-12.55
-10.35
-8.37
-6.68
-5.40
-4.66
-4.47
-4.71
-5.15
-5.50
-5.58
-5.35
-4.97
-4.66
-4.69
-5.21
-6.16
-7.31
-8.35
-9.04
-9.29
-9.24
-9.12
-9.21
-9.73
-10.80
-12.39
-14.26
-15.99
-16.96
-16.55
-14.39
-10.52
-5.46
-0.11
4.56
7.91
9.74
10.35
10.28
10.05
9.93
9.92
9.84
9.56
9.14
8.75
8.57
8.63
8.76
8.66
8.17
7.35
6.48
5.89
5.72
5.85
5.93
5.64
4.91
3.89
2.89
2.19
1.86
1.81
1.87
1.93
1.96
2.05
2.28
2.71
3.42
4.40
5.71
7.32
9.19
11.26
13.48
15.85
18.42
21.32
24.51
27.86
31.01
33.48
34.78
34.62
33.07
30.53
27.72
25.32
23.86
23.52
24.15
25.38
26.77
27.89
28.31
27.69
25.72
22.34
17.75
12.38
6.77
1.31
-3.82
-8.66
-13.25
-17.55
-21.34
-24.31
-26.25
-27.07
-27.01
-26.34
-25.43
-24.55
-23.95
-23.88
-24.58
-26.29
-28.98
-32.28
-35.42
-37.35
-37.06
-34.01
-28.36
-20.91
-13.02
-5.94
-0.63
2.59
3.92
3.85
3.01
1.91
1.00
0.61
1.05
2.48
4.84
7.91
11.21
14.37
17.14
19.56
21.84
24.23
26.84
29.59
32.28
34.66
36.59
37.97
38.67
38.53
37.42
35.28
32.24
28.67
24.92
21.31
18.03
15.07
12.26
9.28
5.71
1.09
-4.84
-11.92
-19.21
-25.19
-28.15
-26.89
-21.49
-13.31
-4.52
2.92
8.09
11.24
13.29
14.90
16.01
15.81
13.44
8.75
2.45
-4.07
-9.49
-13.04
-14.64
-14.45
-12.55
-8.78
-3.03
4.28
12.00
18.45
22.11
22.30
19.50
15.17
11.10
8.77
8.79
10.98
14.52
18.42
21.56
22.99
21.89
17.87
11.22
2.88
-5.69
-13.12
-18.56
-21.84
-23.19
-22.85
-20.97
-17.71
-13.60
-9.73
-7.47
-7.86
-10.97
-15.73
-20.29
-22.93
-22.76
-20.11
-16.29
-12.87
-11.08
-11.22
-12.84
-14.94
-16.52
-16.94
-16.14
-14.58
-12.98
-11.96
-11.74
-12.24
-13.16
-14.25
-15.44
-16.88
-18.72
-20.95
-23.39
-25.73
-27.72
-29.25
-30.31
-30.95
-31.19
-31.08
-30.69
-30.17
-29.63
-29.10
-28.53
-27.84
-27.09
-26.45
-26.06
-25.78
-25.14
-23.41
-20.01
-14.89
-8.60
-2.18
3.34
7.35
9.84
11.17
11.82
12.05
11.95
11.64
11.53
12.31
14.65
18.83
24.37
29.99
34.08
35.23
32.85
27.44
20.43
13.64
8.61
5.96
5.28
5.38
4.80
2.41
-2.20
-8.66
-15.87
-22.35
-26.65
-27.82
-25.75
-21.50
-17.11
-14.97
-16.92
-23.25
-32.37
-41.26
-46.74
-46.79
-41.35
-32.18
-21.94
-12.99
-6.57
-2.78
-1.00
-0.62
-1.35
-3.13
-5.79
-8.67
-10.82
-11.30
-9.73
-6.48
-2.56
0.77
2.57
2.46
0.78
-1.67
-4.01
-5.60
-6.27
-6.31
-6.27
-6.62
-7.63
-9.19
-11.00
-12.74
-14.31
-15.90
-17.90
-20.67
-24.23
-28.12
-31.48
-33.37
-33.10
-30.56
-26.18
-20.74
-15.08
-9.72
-4.92
-0.65
3.12
6.37
9.00
10.85
11.93
12.36
12.38
12.22
12.03
11.85
11.63
11.36
11.06
10.86
10.86
11.05
11.26
11.21
10.61
9.33
7.47
5.29
3.08
1.11
-0.51
-1.80
-2.91
-4.04
-5.47
-7.39
-9.96
-13.04
-16.22
-18.83
-20.08
-19.40
-16.61
-12.07
-6.54
-0.95
3.97
7.88
10.84
13.24
15.51
17.89
20.41
22.85
25.03
26.93
28.74
30.71
33.05
35.63
38.04
39.67
39.94
38.61
35.81
32.08
28.15
24.70
22.16
20.63
19.92
19.61
19.30
18.71
17.83
16.93
16.38
16.45
17.06
17.78
17.88
16.64
13.58
8.65
2.24
-5.03
-12.47
-19.46
-25.40
-29.69
-31.70
-30.97
-27.42
-21.49
-14.17
-6.67
-0.10
4.88
8.18
10.15
11.28
11.93
12.24
12.17
11.71
11.02
10.40
10.16
10.43
11.03
11.49
11.38
10.46
8.84
6.89
5.00
3.34
1.79
0.04
-2.24
-5.14
-8.48
-11.95
-15.29
-18.48
-21.67
-25.11
-28.86
-32.85
-36.81
-40.46
-43.67
-46.48
-49.16
-51.97
-55.14
-58.70
-62.44
-65.86
-68.26
-68.95
-67.40
-63.50
-57.51
-49.97
-41.43
-32.36
-23.21
-14.55
-7.31
-2.46
-0.65
-1.64
-4.03
-5.57
-3.90
2.53
14.06
29.87
48.57
68.38
87.40
103.56
114.89
120.13
119.23
113.54
105.27
96.51
88.31
80.44
71.92
61.94
50.57
38.80
27.93
18.82
11.59
5.84
1.08
-2.93
-6.39
-9.55
-12.74
-16.18
-19.75
-22.96
-25.17
-25.85
-24.74
-21.95
-17.83
-12.97
-8.20
-4.46
-2.65
-3.20
-5.83
-9.51
-12.81
-14.49
-13.88
-11.16
-7.11
-2.81
0.76
2.88
3.27
2.07
-0.23
-3.03
-5.93
-8.79
-11.79
-15.17
-18.93
-22.50
-24.62
-23.83
-19.22
-11.16
-1.53
6.85
11.42
11.13
6.91
1.25
-3.18
-4.69
-3.36
-0.56
1.86
2.56
1.18
-1.86
-5.70
-9.38
-11.98
-12.75
-11.21
-7.33
-1.57
5.39
12.71
19.57
25.11
28.45
28.71
25.35
18.51
9.00
-1.70
-12.01
-20.50
-26.15
-28.35
-26.76
-21.45
-12.99
-2.79
7.07
14.18
16.77
14.49
8.72
2.07
-2.92
-4.94
-4.50
-3.48
-3.87
-6.52
-10.59
-14.16
-15.42
-14.02
-11.20
-9.23
-10.05
-14.23
-20.82
-27.90
-33.61
-36.83
-37.38
-35.59
-31.85
-26.37
-19.15
-10.42
-0.73
8.82
17.06
22.97
26.07
26.43
24.36
20.39
14.90
8.39
1.48
-4.85
-9.33
-10.61
-7.58
0.14
12.15
27.06
42.99
57.90
70.12
78.67
83.26
84.29
82.35
78.20
72.39
65.35
57.50
49.15
40.73
32.60
25.23
18.94
13.86
9.66
5.43
-0.07
-8.11
-19.10
-32.26
-45.34
-55.43
-59.86
-57.29
-48.27
-34.94
-20.38
-7.42
2.08
7.53
9.40
8.62
6.25
3.14
0.23
-1.56
-1.11
2.50
9.70
20.13
32.50
45.06
56.05
64.46
70.12
73.67
75.81
76.73
75.95
72.55
66.05
56.79
46.20
36.23
28.56
23.89
21.72
20.91
20.20
18.93
17.00
14.61
11.77
8.01
2.67
-4.92
-14.86
-26.75
-39.71
-52.75
-64.96
-75.51
-83.75
-88.88
-90.23
-87.31
-80.24
-69.78
-57.15
-43.74
-30.56
-18.40
-7.61
1.43
8.46
13.27
15.97
17.09
17.35
17.51
17.82
18.24
18.31
17.68
16.33
14.53
12.72
11.05
9.46
7.61
5.20
1.99
-2.26
-7.67
-14.52
-22.81
-32.32
-42.30
-51.77
-59.70
-65.44
-68.92
-70.41
-70.39
-69.02
-66.12
-61.16
-53.67
-43.67
-31.79
-19.23
-7.34
2.74
10.55
16.19
20.20
23.14
25.31
26.85
27.86
28.73
30.05
32.45
36.23
40.94
45.68
49.18
50.53
49.34
45.97
41.21
35.97
30.95
26.41
22.31
18.35
14.27
9.88
5.26
0.71
-3.43
-6.86
-9.64
-12.08
-14.70
-17.86
-21.56
-25.39
-28.62
-30.67
-31.11
-30.11
-28.17
-26.12
-24.76
-24.56
-25.58
-27.37
-29.25
-30.48
-30.69
-29.79
-27.92
-25.29
-21.88
-17.66
-12.61
-7.10
-1.71
2.85
6.08
7.92
8.65
8.83
8.88
9.14
9.75
10.77
12.19
13.86
15.50
16.53
16.49
15.02
12.19
8.43
4.29
0.29
-3.43
-6.99
-10.75
-14.86
-19.25
-23.53
-27.15
-29.74
-31.14
-31.61
-31.51
-31.30
-31.38
-32.15
-34.10
-37.65
-42.96
-49.48
-56.01
-60.82
-62.41
-60.12
-54.51
-47.13
-39.82
-34.07
-30.46
-28.83
-28.62
-29.31
-30.75
-32.81
-35.37
-37.83
-39.36
-38.95
-36.01
-30.64
-23.68
-16.59
-10.57
-6.15
-2.67
1.33
7.42
16.40
27.70
39.87
51.04
60.06
66.71
71.69
75.85
79.59
82.62
84.02
82.98
79.06
72.72
65.01
57.28
50.75
45.95
42.84
40.81
39.27
37.84
36.61
35.91
35.86
36.22
36.09
34.50
30.68
24.60
16.98
9.02
2.00
-3.30
-6.56
-8.10
-8.47
-8.29
-8.02
-7.80
-7.59
-7.14
-6.28
-4.98
-3.56
-2.46
-2.11
-2.76
-4.20
-6.07
-7.83
-9.22
-10.26
-11.22
-12.45
-14.09
-16.10
-18.19
-20.14
-21.80
-23.23
-24.58
-26.02
-27.70
-29.68
-32.17
-35.26
-39.07
-43.43
-47.82
-51.46
-53.32
-52.61
-48.91
-42.45
-33.97
-24.54
-15.16
-6.56
0.91
7.23
12.43
16.58
19.62
21.56
22.54
22.87
23.00
23.24
23.73
24.32
24.73
24.70
24.20
23.47
22.89
22.93
23.86
25.72
28.22
30.85
33.04
34.22
34.01
32.11
28.53
23.31
16.85
9.73
2.80
-2.97
-6.89
-8.63
-8.48
-7.10
-5.46
-4.38
-4.38
-5.66
-8.08
-11.41
-15.34
-19.67
-24.16
-28.58
-32.69
-36.19
-38.94
-40.82
-41.96
-42.56
-42.97
-43.53
-44.46
-46.01
-48.33
-51.74
-56.46
-62.68
-70.16
-78.19
-85.59
-90.90
-92.92
-90.95
-85.08
-75.95
-64.53
-51.77
-38.40
-24.98
-11.80
0.86
12.86
24.10
34.48
43.88
51.96
58.36
62.62
64.49
63.89
60.99
56.04
49.30
41.12
31.90
22.30
12.98
4.74
-1.92
-6.83
-10.20
-12.59
-14.45
-16.18
-17.76
-19.09
-20.01
-20.53
-20.88
-21.25
-21.75
-22.08
-21.80
-20.41
-17.65
-13.58
-8.45
-2.70
3.41
9.69
16.17
22.92
30.12
37.93
46.41
55.58
65.12
74.63
83.34
90.49
95.35
97.37
96.38
92.45
86.15
78.28
69.95
62.20
55.75
50.89
47.21
44.09
40.68
36.60
31.86
27.01
22.80
19.72
17.94
17.07
16.55
15.66
13.77
10.26
4.52
-3.64
-13.92
-24.88
-34.31
-39.60
-38.92
-31.89
-19.93
-5.79
7.66
18.16
24.90
27.98
28.05
25.53
20.47
12.89
2.94
-8.55
-20.43
-31.27
-39.96
-45.81
-48.52
-48.23
-45.16
-39.71
-32.21
-23.07
-12.71
-1.68
9.18
18.83
25.97
29.61
29.27
25.52
19.79
14.06
10.16
9.21
11.47
16.36
23.12
31.02
39.66
48.74
57.77
66.00
72.21
75.29
74.35
69.23
60.35
48.59
35.05
20.65
6.32
-7.18
-19.04
-28.68
-35.79
-40.48
-43.20
-44.42
-44.49
-43.36
-40.87
-36.85
-31.34
-24.67
-17.18
-9.07
-0.17
9.84
21.38
34.67
49.72
66.33
83.85
100.96
115.17
123.08
121.20
107.53
82.97
51.71
20.12
-5.59
-21.72
-28.43
-29.04
-28.09
-29.07
-33.28
-40.09
-48.07
-56.12
-63.63
-70.15
-74.92
-77.04
-76.30
-73.75
-71.77
-72.94
-78.87
-89.20
-101.69
-113.22
-120.64
-121.69
-115.02
-100.51
-79.23
-53.78
-28.02
-6.19
8.30
14.22
12.67
6.63
-0.50
-6.17
-9.30
-10.45
-11.07
-13.11
-18.05
-26.30
-36.46
-45.42
-49.04
-43.61
-27.68
-2.87
25.89
51.83
68.30
71.10
60.04
39.28
16.39
-0.26
-4.16
6.79
29.61
57.40
82.09
97.62
101.63
95.74
83.60
69.04
54.51
40.87
28.10
16.02
5.04
-4.28
-11.29
-16.01
-18.92
-20.74
-21.93
-22.14
-20.63
-16.47
-9.52
-0.65
8.02
13.70
13.95
7.51
-4.67
-19.76
-33.57
-42.20
-43.37
-37.20
-26.03
-13.09
-1.28
8.11
15.31
21.51
27.84
34.56
41.12
46.26
48.83
47.93
43.34
35.43
25.32
14.66
5.16
-1.88
-6.21
-8.52
-10.16
-12.32
-15.56
-19.72
-24.14
-28.31
-32.01
-35.42
-38.66
-41.74
-44.46
-46.82
-49.42
-53.17
-58.79
-65.66
-71.65
-73.52
-68.45
-55.76
-37.43
-17.58
-0.29
12.11
19.91
25.04
29.44
33.78
37.01
37.58
34.29
27.18
17.18
5.58
-6.56
-18.28
-28.18
-34.40
-34.96
-29.13
-18.22
-5.66
4.26
8.40
5.92
-1.24
-9.91
-17.10
-21.58
-23.84
-25.13
-26.36
-27.11
-26.31
-23.01
-17.40
-10.90
-5.45
-2.56
-2.38
-3.97
-5.53
-5.43
-2.67
2.82
10.27
18.49
26.07
32.03
35.94
38.38
40.60
44.14
50.06
58.30
67.74
76.52
83.11
86.76
87.64
86.24
82.60
76.22
66.33
53.04
37.63
22.49
9.86
0.69
-5.87
-12.04
-19.87
-30.29
-42.44
-54.54
-64.85
-72.69
-78.62
-83.65
-88.61
-93.24
-96.45
-96.67
-92.74
-84.51
-72.84
-59.47
-46.10
-33.89
-22.93
-12.57
-2.14
8.30
17.68
24.78
29.30
33.11
39.86
53.61
76.37
106.40
138.22
164.40
178.73
178.39
164.80
142.22
115.52
88.52
63.24
40.69
21.50
6.56
-3.45
-8.51
-9.69
-9.02
-8.67
-10.50
-15.31
-23.08
-33.00
-43.81
-54.14
-62.70
-68.81
-72.37
-74.07
-74.77
-75.16
-75.35
-74.87
-73.21
-70.11
-66.05
-61.78
-58.11
-55.26
-52.90
-50.54
-47.83
-44.98
-42.30
-39.97
-37.53
-34.13
-28.93
-21.55
-12.45
-2.49
7.29
16.32
24.28
30.99
36.13
39.14
39.65
37.63
33.70
28.70
23.48
18.52
13.87
9.59
5.60
2.09
-0.85
-3.16
-5.04
-6.81
-8.60
-10.38
-11.62
-11.66
-9.64
-5.01
2.41
12.29
23.80
35.96
47.58
57.87
66.23
72.48
76.49
78.04
76.70
71.88
63.37
51.38
36.94
21.29
5.38
-10.64
-27.38
-45.49
-64.98
-84.55
-101.92
-114.37
-119.62
-116.34
-104.26
-84.30
-58.14
-28.22
2.65
31.29
54.48
69.51
74.85
71.00
60.63
48.35
39.15
36.58
41.12
49.79
57.67
60.20
55.66
45.60
33.75
23.69
17.07
13.45
11.35
9.83
9.04
9.84
12.56
16.29
19.10
19.07
15.61
9.66
3.20
-2.20
-6.17
-9.67
-14.26
-20.97
-29.83
-39.77
-49.37
-57.36
-63.06
-66.25
-66.96
-65.27
-61.19
-54.77
-46.05
-35.21
-22.56
-8.71
5.18
17.60
26.69
30.94
29.53
22.78
12.00
-0.74
-13.12
-22.97
-28.42
-28.13
-21.08
-6.75
14.82
42.68
74.65
107.32
136.18
156.50
164.13
156.57
133.61
97.55
52.95
5.47
-39.17
-76.72
-104.92
-123.81
-135.07
-141.10
-143.93
-144.24
-141.58
-134.84
-123.65
-109.08
-93.68
-80.58
-71.88
-67.68
-65.83
-63.27
-57.44
-47.74
-35.56
-23.28
-12.90
-4.79
2.00
8.99
16.87
25.10
32.10
36.31
37.37
36.32
35.55
37.41
43.28
52.81
64.15
74.91
83.13
88.25
90.87
92.40
93.97
95.90
97.67
98.13
96.31
91.66
84.42
75.21
64.90
54.12
43.11
31.86
20.07
7.76
-4.84
-17.00
-27.84
-36.46
-42.05
-44.19
-42.61
-37.50
-29.39
-19.40
-8.99
0.30
7.23
11.41
13.09
13.17
12.53
11.92
11.71
11.94
12.65
13.62
14.76
15.69
16.19
16.00
15.01
13.30
10.89
7.87
4.18
-0.13
-5.15
-10.83
-17.13
-23.96
-31.01
-37.93
-44.16
-49.37
-53.29
-56.02
-57.89
-59.24
-60.54
-62.12
-64.34
-67.32
-71.03
-75.16
-79.21
-82.81
-85.61
-87.53
-88.28
-87.47
-84.33
-78.12
-68.49
-55.68
-40.68
-24.69
-8.79
6.58
21.48
36.18
50.76
64.75
77.59
88.79
98.54
107.48
116.52
126.11
135.85
144.56
150.39
151.68
147.29
137.29
122.96
106.64
91.12
78.63
70.04
64.16
58.25
48.85
33.40
11.29
-15.78
-44.29
-70.22
-90.11
-102.26
-106.78
-105.38
-100.58
-94.70
-89.49
-85.73
-83.60
-82.81
-83.06
-84.00
-85.28
-86.56
-87.44
-87.63
-86.88
-85.03
-81.83
-77.12
-70.93
-63.48
-55.37
-47.15
-39.31
-32.08
-25.75
-20.76
-17.75
-17.15
-18.64
-21.00
-22.28
-20.67
-15.23
-6.34
4.52
15.56
25.32
33.21
39.32
44.10
47.92
50.94
53.30
55.13
56.74
58.30
59.67
60.21
59.01
55.30
48.88
40.57
31.92
24.86
21.04
21.30
25.45
32.24
39.69
45.34
47.12
43.76
35.45
23.70
10.75
-1.35
-11.62
-20.26
-28.27
-36.49
-45.24
-54.27
-63.24
-72.02
-80.44
-87.99
-93.38
-95.12
-92.25
-85.26
-76.17
-67.67
-61.99
-59.93
-61.06
-64.32
-68.81
-73.81
-78.25
-80.27
-77.47
-68.22
-52.85
-34.45
-17.86
-7.81
-6.75
-13.82
-25.49
-37.47
-46.92
-53.57
-59.38
-66.86
-77.33
-89.96
-101.95
-109.99
-111.70
-106.64
-96.41
-84.13
-73.52
-67.84
-69.03
-76.70
-87.73
-96.47
-96.21
-81.38
-50.04
-5.29
45.26
91.55
124.49
138.66
133.78
114.33
87.85
62.80
46.40
43.18
53.94
75.72
102.43
126.65
141.68
143.54
132.07
110.48
84.05
58.17
36.99
22.66
15.45
14.10
16.13
18.43
17.90
12.52
2.04
-11.63
-25.22
-35.39
-39.88
-38.11
-30.80
-19.37
-5.35
9.82
24.71
38.01
48.83
57.07
63.46
69.20
75.24
81.72
88.01
93.10
96.16
96.77
94.87
90.42
83.35
73.75
62.24
50.19
39.52
32.07
28.83
29.67
33.19
37.32
40.08
40.19
37.63
33.44
29.11
25.74
23.41
21.13
17.37
11.06
2.26
-7.61
-16.48
-22.47
-24.90
-24.41
-22.58
-21.12
-21.06
-22.59
-25.14
-27.79
-29.68
-30.31
-29.53
-27.55
-24.78
-21.60
-18.42
-15.50
-13.11
-11.54
-11.03
-11.71
-13.40
-15.62
-17.63
-18.89
-19.36
-19.75
-21.43
-25.76
-33.57
-44.59
-57.52
-70.41
-81.32
-88.88
-92.45
-91.91
-87.24
-78.37
-65.25
-48.25
-28.46
-7.65
12.09
29.06
42.32
51.83
58.10
61.73
62.95
61.47
56.75
48.43
36.75
22.78
8.22
-4.98
-15.14
-21.03
-21.85
-17.11
-6.59
9.52
30.19
53.53
76.88
97.47
113.25
123.28
127.92
128.22
125.41
120.43
113.84
106.05
97.50
88.78
80.35
72.30
64.18
55.22
44.67
32.36
18.92
5.64
-5.94
-14.65
-20.00
-22.27
-22.28
-20.99
-19.27
-17.69
-16.66
-16.38
-16.96
-18.37
-20.45
-22.99
-25.72
-28.44
-30.96
-33.17
-35.04
-36.62
-38.12
-39.68
-41.40
-43.08
-44.35
-44.70
-43.77
-41.47
-37.96
-33.68
-29.02
-24.33
-19.85
-15.84
-12.58
-10.34
-9.27
-9.27
-10.00
-11.01
-11.96
-12.77
-13.66
-14.97
-16.88
-19.29
-21.71
-23.52
-24.32
-24.21
-23.76
-23.75
-24.62
-25.93
-26.38
-24.15
-17.57
-5.59
11.98
34.35
59.71
85.02
106.14
118.43
118.10
103.79
77.59
44.93
12.81
-12.48
-27.46
-31.99
-28.45
-19.89
-8.54
4.65
19.40
34.99
49.60
60.63
65.66
63.58
55.20
42.86
29.20
16.11
3.96
-8.02
-20.83
-34.63
-48.21
-59.35
-65.82
-66.50
-61.56
-52.26
-39.92
-25.37
-8.79
9.75
29.36
48.13
63.36
72.70
75.02
70.88
62.08
50.82
38.95
27.61
17.45
8.91
2.46
-1.72
-3.88
-4.82
-5.61
-6.92
-8.65
-9.85
-9.27
-6.09
-0.44
6.60
13.55
19.05
22.36
23.19
21.64
17.89
12.32
5.71
-0.83
-6.08
-9.28
-10.44
-10.42
-10.40
-11.32
-13.48
-16.57
-20.15
-23.98
-28.27
-33.38
-39.61
-46.80
-54.40
-61.61
-67.53
-71.30
-72.20
-69.67
-63.48
-53.84
-41.52
-27.73
-14.01
-1.85
7.50
13.33
15.57
14.75
11.93
8.39
5.33
3.63
3.74
5.67
9.11
13.59
18.59
23.67
28.37
32.32
35.10
36.33
35.72
33.10
28.58
22.58
15.77
8.91
2.66
-2.61
-6.78
-9.97
-12.37
-14.16
-15.51
-16.58
-17.59
-18.78
-20.32
-22.19
-24.00
-25.05
-24.55
-21.89
-17.00
-10.36
-2.90
4.38
10.68
15.66
19.26
21.65
22.92
23.17
22.47
21.02
19.14
17.13
15.12
12.99
10.43
7.12
2.88
-2.15
-7.55
-12.64
-16.77
-19.42
-20.48
-20.22
-19.23
-18.26
-17.88
-18.47
-20.03
-22.40
-25.39
-28.85
-32.68
-36.64
-40.27
-42.92
-43.93
-42.91
-39.90
-35.36
-29.96
-24.40
-19.12
-14.33
-10.03
-6.22
-2.91
-0.23
1.74
3.11
4.14
5.29
6.93
9.22
11.95
14.63
16.56
17.15
16.14
13.65
10.20
6.44
2.95
0.02
-2.42
-4.65
-6.99
-9.61
-12.49
-15.51
-18.59
-21.79
-25.26
-29.24
-33.88
-39.28
-45.46
-52.37
-59.69
-66.67
-72.00
-73.92
-70.79
-61.68
-46.90
-27.94
-6.98
13.95
33.48
51.09
66.74
80.36
91.56
99.75
104.53
106.15
105.54
104.03
102.80
102.39
102.57
102.57
101.49
98.82
94.64
89.66
84.96
81.56
80.05
80.43
82.13
84.35
86.43
88.16
89.90
92.49
97.03
104.57
115.59
129.51
144.25
156.21
160.81
153.69
132.22
96.91
51.78
3.60
-40.17
-73.54
-93.68
-101.10
-98.64
-89.86
-77.75
-64.29
-50.99
-39.47
-31.66
-29.37
-33.40
-42.98
-55.90
-69.26
-80.54
-88.25
-91.99
-92.16
-89.48
-84.68
-78.36
-70.95
-62.64
-53.42
-43.15
-31.93
-20.35
-9.51
-0.75
4.93
7.25
6.79
4.55
1.50
-1.95
-5.85
-10.42
-15.64
-20.96
-25.56
-28.63
-29.84
-29.51
-28.44
-27.67
-28.09
-30.26
-34.26
-39.64
-45.57
-50.91
-54.48
-55.39
-53.29
-48.44
-41.70
-34.12
-26.71
-20.18
-14.83
-10.69
-7.61
-5.44
-4.06
-3.35
-3.17
-3.31
-3.50
-3.56
-3.44
-3.30
-3.41
-3.99
-5.07
-6.42
-7.61
-8.29
-8.36
-8.13
-8.24
-9.46
-12.36
-17.00
-22.84
-28.86
-33.79
-36.53
-36.46
-33.56
-28.33
-21.57
-14.08
-6.52
0.66
7.07
12.41
16.42
19.02
20.30
20.55
20.18
19.57
19.03
18.79
19.02
19.75
20.86
22.07
23.10
23.78
24.14
24.30
24.23
23.62
21.88
18.50
13.44
7.38
1.56
-2.63
-4.15
-2.68
1.31
6.87
12.85
18.15
21.87
23.45
22.61
19.57
14.88
9.41
4.08
-0.41
-3.67
-5.71
-6.75
-7.09
-6.97
-6.55
-5.95
-5.34
-4.92
-4.88
-5.33
-6.25
-7.52
-8.91
-10.29
-11.61
-12.85
-13.99
-14.87
-15.19
-14.62
-12.94
-10.20
-6.78
-3.25
-0.23
1.79
2.59
2.17
0.68
-1.70
-4.75
-8.22
-11.79
-15.06
-17.70
-19.51
-20.63
-21.36
-22.17
-23.45
-25.27
-27.33
-28.95
-29.35
-27.86
-24.42
-19.60
-14.64
-11.02
-9.89
-11.59
-15.40
-19.73
-22.64
-22.60
-19.00
-12.24
-3.47
6.07
15.53
24.78
34.12
43.98
54.44
65.13
75.30
84.08
90.90
95.50
97.96
98.47
97.04
93.44
87.15
77.68
64.86
49.15
31.59
13.70
-3.03
-17.47
-28.97
-37.32
-42.51
-44.67
-44.14
-41.53
-37.71
-33.55
-29.66
-26.12
-22.63
-18.85
-14.60
-10.07
-5.62
-1.47
2.38
6.14
10.01
13.93
17.55
20.32
21.76
21.56
19.77
16.75
13.08
9.41
6.29
3.95
2.37
1.35
0.67
0.32
0.45
1.29
2.96
5.37
8.24
11.26
14.11
16.39
17.65
17.31
14.92
10.38
4.13
-2.92
-9.78
-15.65
-20.26
-23.75
-26.55
-29.08
-31.72
-34.78
-38.61
-43.49
-49.39
-55.81
-61.68
-65.62
-66.45
-63.63
-57.57
-49.46
-40.83
-32.96
-26.52
-21.30
-16.50
-11.16
-4.60
3.10
11.09
17.88
21.83
21.68
17.07
8.71
-1.77
-12.24
-20.69
-25.75
-27.09
-25.44
-22.38
-19.79
-19.19
-21.19
-25.20
-29.62
-32.39
-31.78
-26.89
-17.88
-5.79
7.95
21.83
34.63
45.40
53.65
59.22
62.24
63.02
61.78
58.55
53.09
45.21
34.98
23.04
10.47
-1.44
-11.55
-19.16
-24.06
-26.48
-26.87
-25.80
-23.85
-21.54
-19.29
-17.33
-15.73
-14.38
-13.19
-12.06
-11.07
-10.36
-10.03
-10.16
-10.73
-11.62
-12.56
-13.23
-13.30
-12.64
-11.39
-10.00
-9.10
-9.17
-10.34
-12.23
-14.11
-15.23
-15.02
-13.32
-10.30
-6.37
-1.92
2.71
7.28
11.60
15.50
18.83
21.47
23.40
24.67
25.41
25.81
25.99
25.96
25.61
24.72
23.06
20.54
17.25
13.43
9.41
5.47
1.78
-1.59
-4.52
-6.83
-8.20
-8.36
-7.19
-4.89
-1.98
0.88
3.13
4.52
5.11
5.14
4.85
4.32
3.55
2.57
1.58
0.86
0.57
0.67
0.76
0.35
-0.94
-3.18
-6.01
-8.88
-11.15
-12.26
-11.88
-9.86
-6.27
-1.47
3.98
9.30
13.68
16.53
17.64
17.29
16.13
14.84
13.74
12.54
10.39
6.32
-0.10
-8.44
-17.38
-25.27
-30.75
-33.25
-33.03
-30.79
-27.19
-22.58
-17.07
-10.86
-4.40
1.58
6.33
9.50
11.20
11.98
12.48
13.17
14.23
15.50
16.67
17.55
18.09
18.47
18.96
19.85
21.31
23.41
26.04
28.86
31.28
32.43
31.45
27.76
21.51
13.63
5.63
-0.90
-4.93
-6.30
-5.74
-4.47
-3.70
-4.17
-6.05
-9.07
-12.75
-16.64
-20.34
-23.53
-25.87
-27.04
-26.80
-25.09
-22.13
-18.36
-14.38
-10.73
-7.80
-5.73
-4.46
-3.72
-3.28
-3.01
-3.02
-3.54
-4.76
-6.57
-8.56
-10.07
-10.50
-9.60
-7.54
-4.77
-1.86
0.76
2.91
4.55
5.77
6.65
7.30
7.84
8.38
8.96
9.49
9.82
9.80
9.45
8.91
8.39
8.03
7.89
7.94
8.15
8.59
9.40
10.73
12.57
14.66
16.46
17.31
16.67
14.31
10.49
5.84
1.22
-2.57
-4.96
-5.75
-5.12
-3.63
-2.01
-1.00
-1.09
-2.39
-4.56
-6.93
-8.78
-9.63
-9.43
-8.50
-7.37
-6.53
-6.20
-6.34
-6.75
-7.22
-7.70
-8.33
-9.29
-10.72
-12.53
-14.50
-16.36
-17.95
-19.18
-20.01
-20.31
-19.88
-18.49
-16.07
-12.75
-8.86
-4.80
-0.95
2.40
5.08
7.04
8.37
9.34
10.35
11.77
13.82
16.43
19.30
22.07
24.41
26.07
26.91
26.83
25.82
24.01
21.67
19.15
16.70
14.43
12.22
9.86
7.11
3.80
-0.17
-4.78
-9.80
-14.79
-19.01
-21.69
-22.25
-20.66
-17.44
-13.63
-10.31
-8.27
-7.65
-8.02
-8.65
-8.88
-8.49
-7.65
-6.80
-6.32
-6.28
-6.48
-6.62
-6.50
-6.23
-6.08
-6.24
-6.57
-6.58
-5.71
-3.77
-1.18
1.06
1.89
0.68
-2.38
-6.42
-10.34
-13.27
-14.95
-15.56
-15.42
-14.70
-13.28
-10.96
-7.64
-3.53
0.99
5.52
9.82
13.81
17.50
20.92
23.99
26.60
28.60
29.90
30.40
30.02
28.78
26.78
24.31
21.71
19.30
17.14
15.02
12.48
9.11
4.76
-0.27
-5.32
-9.66
-12.78
-14.59
-15.38
-15.68
-15.98
-16.62
-17.76
-19.38
-21.36
-23.36
-24.87
-25.25
-23.92
-20.64
-15.73
-10.07
-4.80
-0.91
1.06
1.26
0.23
-1.29
-2.65
-3.39
-3.19
-1.94
0.20
2.70
4.68
5.17
3.57
-0.00
-4.64
-9.00
-11.86
-12.64
-11.47
-8.97
-5.86
-2.63
0.41
3.05
4.99
5.95
5.86
4.95
3.77
2.96
2.93
3.83
5.50
7.75
10.39
13.33
16.50
19.71
22.66
24.98
26.33
26.49
25.48
23.48
20.81
17.76
14.46
10.89
6.91
2.50
-2.14
-6.49
-9.91
-11.87
-12.24
-11.39
-10.05
-9.05
-8.91
-9.79
-11.47
-13.48
-15.39
-16.89
-17.82
-18.17
-18.00
-17.46
-16.77
-16.24
-16.10
-16.42
-16.93
-17.15
-16.49
-14.55
-11.30
-7.07
-2.50
1.69
4.80
6.31
5.99
4.03
1.06
-1.93
-3.92
-4.16
-2.50
0.58
4.27
7.72
10.38
12.12
13.02
13.29
13.06
12.44
11.58
10.66
9.92
9.50
9.42
9.58
9.82
9.96
9.87
9.37
8.30
6.58
4.24
1.58
-0.93
-2.66
-3.19
-2.35
-0.45
1.84
3.70
4.42
3.76
1.96
-0.27
-2.11
-2.90
-2.38
-0.83
1.18
2.96
3.96
3.87
2.70
0.68
-1.81
-4.30
-6.36
-7.62
-7.98
-7.59
-6.87
-6.39
-6.60
-7.64
-9.22
-10.69
-11.33
-10.58
-8.31
-4.79
-0.62
3.43
6.47
7.73
6.58
2.87
-2.89
-9.47
-15.15
-18.37
-18.24
-14.87
-9.33
-3.06
2.69
7.24
10.40
12.32
13.09
12.79
11.50
9.49
7.23
5.23
3.79
2.89
2.30
1.66
0.72
-0.51
-1.91
-3.21
-4.23
-4.91
-5.33
-5.68
-6.10
-6.69
-7.31
-7.69
-7.46
-6.30
-4.11
-1.10
2.22
5.18
7.09
7.54
6.48
4.28
1.58
-1.00
-3.01
-4.34
-5.09
-5.47
-5.57
-5.41
-4.85
-3.80
-2.25
-0.20
2.24
4.99
7.87
10.65
13.09
15.01
16.42
17.44
18.24
18.88
19.27
19.21
18.59
17.43
15.82
13.89
11.63
8.99
5.95
2.68
-0.49
-3.23
-5.37
-7.12
-8.90
-11.20
-14.24
-17.94
-21.84
-25.36
-27.96
-29.23
-28.99
-27.25
-24.26
-20.49
-16.51
-12.95
-10.25
-8.65
-8.07
-8.20
-8.58
-8.76
-8.40
-7.34
-5.62
-3.47
-1.23
0.77
2.30
3.36
4.13
5.04
6.65
9.42
13.58
18.90
24.61
29.62
32.84
33.57
31.70
27.73
22.50
16.89
11.56
6.89
3.05
-0.01
-2.37
-4.29
-6.03
-7.89
-9.96
-12.15
-14.19
-15.73
-16.54
-16.49
-15.56
-13.73
-10.96
-7.21
-2.51
2.93
8.69
14.17
18.80
22.20
24.31
25.38
25.83
26.02
26.12
26.11
25.80
25.06
23.89
22.39
20.70
18.80
16.57
13.74
10.20
6.01
1.46
-3.09
-7.36
-11.26
-14.92
-18.48
-22.02
-25.33
-28.09
-29.94
-30.76
-30.74
-30.26
-29.67
-29.02
-28.02
-26.28
-23.55
-19.95
-15.93
-12.01
-8.45
-5.14
-1.77
1.86
5.54
8.69
10.63
10.95
9.73
7.53
5.06
2.82
0.95
-0.71
-2.37
-4.08
-5.58
-6.37
-6.02
-4.36
-1.63
1.64
4.88
7.65
9.85
11.58
13.03
14.31
15.53
16.81
18.41
20.50
22.94
25.08
25.77
23.83
18.48
9.83
-1.06
-12.48
-22.53
-29.68
-32.98
-32.16
-27.61
-20.21
-11.23
-2.02
6.19
12.62
17.05
19.79
21.32
22.15
22.55
22.57
22.12
21.12
19.53
17.41
14.88
12.10
9.17
6.16
3.01
-0.39
-4.19
-8.48
-13.23
-18.18
-22.82
-26.56
-28.84
-29.44
-28.61
-27.08
-25.81
-25.62
-26.78
-28.88
-30.93
-31.74
-30.43
-26.67
-20.82
-13.70
-6.32
0.41
5.87
9.83
12.36
13.72
14.23
14.20
13.81
13.19
12.48
11.81
11.33
11.17
11.31
11.61
11.85
11.77
11.19
10.04
8.42
6.56
4.76
3.30
2.28
1.53
0.57
-1.10
-3.85
-7.62
-11.95
-16.18
-19.68
-22.09
-23.36
-23.70
-23.37
-22.64
-21.75
-20.89
-20.22
-19.73
-19.24
-18.35
-16.69
-14.13
-10.82
-7.28
-4.09
-1.75
-0.45
-0.02
0.04
0.46
1.99
5.12
9.80
15.37
20.65
24.42
25.75
24.45
21.01
16.36
11.59
7.54
4.72
3.18
2.63
2.52
2.19
1.13
-0.84
-3.41
-5.93
-7.64
-8.00
-6.88
-4.57
-1.67
1.24
3.71
5.48
6.50
6.78
6.47
5.79
5.10
4.82
5.30
6.60
8.38
9.92
10.47
9.64
7.60
5.16
3.33
2.94
4.23
6.87
10.09
13.14
15.44
16.78
17.18
16.82
15.90
14.58
12.92
10.96
8.69
6.26
3.95
2.28
1.75
2.65
4.85
7.86
10.93
13.43
14.99
15.58
15.42
14.76
13.77
12.51
10.97
9.15
7.11
4.96
2.86
0.99
-0.48
-1.43
-1.84
-1.84
-1.65
-1.54
-1.70
-2.19
-2.92
-3.74
-4.52
-5.18
-5.77
-6.33
-6.84
-7.25
-7.49
-7.54
-7.50
-7.58
-7.97
-8.73
-9.72
-10.57
-10.85
-10.26
-8.72
-6.44
-3.81
-1.24
1.00
2.81
4.26
5.43
6.40
7.15
7.63
7.75
7.54
7.04
6.39
5.74
5.22
4.89
4.69
4.51
4.20
3.67
2.91
2.01
1.10
0.25
-0.52
-1.21
-1.86
-2.48
-3.08
-3.69
-4.36
-5.11
-5.92
-6.73
-7.41
-7.89
-8.20
-8.50
-8.98
-9.79
-10.92
-12.16
-13.18
-13.57
-13.08
-11.62
-9.37
-6.72
-4.09
-1.81
-0.02
1.39
2.60
3.78
4.92
5.85
6.31
6.17
5.48
4.54
3.71
3.30
3.42
4.01
4.93
6.04
7.33
8.84
10.65
12.82
15.34
18.14
21.12
24.24
27.48
30.91
34.61
38.61
42.83
47.09
51.12
54.68
57.60
59.84
61.39
62.31
62.65
62.48
61.92
61.12
60.24
59.41
58.68
57.98
57.07
55.62
53.25
49.64
44.62
38.21
30.64
22.25
13.50
4.94
-2.89
-9.46
-14.44
-17.89
-20.20
-22.13
-24.43
-27.58
-31.63
-36.18
-40.64
-44.42
-47.21
-48.96
-49.80
-49.97
-49.74
-49.34
-49.02
-48.95
-49.17
-49.60
-50.02
-50.15
-49.75
-48.63
-46.68
-43.93
-40.61
-37.14
-34.08
-31.91
-30.73
-30.17
-29.39
-27.53
-24.00
-18.86
-12.71
-6.49
-1.05
3.07
5.74
7.07
7.27
6.55
5.12
3.22
1.07
-1.15
-3.34
-5.56
-7.88
-10.34
-12.85
-15.20
-17.08
-18.20
-18.41
-17.70
-16.32
-14.63
-13.02
-11.72
-10.80
-10.13
-9.54
-8.96
-8.48
-8.28
-8.66
-9.85
-12.06
-15.35
-19.55
-24.17
-28.36
-31.08
-31.44
-29.09
-24.39
-18.35
-12.18
-6.94
-3.16
-0.82
0.35
0.73
0.64
0.33
0.09
0.22
0.94
2.26
3.89
5.46
6.64
7.34
7.78
8.31
9.29
10.88
13.09
15.83
18.84
21.87
24.53
26.43
27.28
27.04
25.98
24.62
23.49
22.80
22.29
21.26
18.93
14.85
9.25
3.00
-2.66
-6.68
-8.63
-8.85
-8.23
-7.70
-7.86
-8.72
-9.80
-10.48
-10.28
-9.06
-7.01
-4.50
-1.95
0.31
2.03
3.14
3.63
3.55
2.96
1.85
0.20
-2.00
-4.69
-7.61
-10.39
-12.67
-14.21
-15.04
-15.48
-15.96
-16.89
-18.45
-20.59
-23.06
-25.49
-27.58
-29.12
-30.00
-30.22
-29.82
-28.96
-27.82
-26.58
-25.30
-23.84
-21.89
-19.07
-15.09
-9.89
-3.66
3.25
10.44
17.59
24.46
30.90
36.80
42.12
46.87
51.09
54.83
57.97
60.26
61.38
61.07
59.28
56.21
52.21
47.63
42.76
37.73
32.61
27.47
22.36
17.37
12.51
7.74
3.01
-1.66
-6.18
-10.34
-13.94
-16.84
-19.06
-20.75
-22.21
-23.74
-25.51
-27.53
-29.60
-31.39
-32.65
-33.29
-33.46
-33.41
-33.29
-32.97
-32.14
-30.40
-27.57
-23.85
-19.76
-15.97
-13.04
-11.25
-10.68
-11.17
-12.54
-14.56
-16.98
-19.53
-21.92
-23.94
-25.42
-26.25
-26.39
-25.86
-24.78
-23.44
-22.18
-21.35
-21.13
-21.51
-22.35
-23.42
-24.49
-25.12
-24.57
-21.78
-15.71
-5.94
6.74
20.15
31.30
37.39
36.90
30.24
19.53
7.73
-2.45
-9.41
-12.87
-13.49
-12.33
-10.28
-7.92
-5.52
-3.30
-1.53
-0.57
-0.72
-2.04
-4.19
-6.53
-8.29
-8.99
-8.59
-7.53
-6.52
-6.14
-6.62
-7.75
-9.07
-10.08
-10.49
-10.21
-9.33
-7.99
-6.40
-4.76
-3.30
-2.25
-1.77
-1.89
-2.55
-3.61
-4.81
-5.86
-6.38
-6.00
-4.48
-1.81
1.72
5.50
8.85
11.16
12.14
11.87
10.74
9.26
7.84
6.73
5.92
5.28
4.66
4.01
3.43
3.07
3.05
3.34
3.79
4.13
4.15
3.82
3.24
2.61
2.03
1.49
0.84
-0.03
-1.16
-2.47
-3.90
-5.40
-6.97
-8.58
-10.00
-10.84
-10.67
-9.24
-6.64
-3.32
0.11
3.09
5.30
6.68
7.34
7.41
6.96
6.05
4.82
3.48
2.34
1.64
1.45
1.67
2.05
2.34
2.36
2.12
1.77
1.52
1.54
1.82
2.18
2.34
2.06
1.25
0.03
-1.32
-2.49
-3.29
-3.75
-4.08
-4.56
-5.45
-6.84
-8.68
-10.78
-12.82
-14.43
-15.17
-14.68
-12.79
-9.60
-5.50
-1.08
3.10
6.58
9.17
10.85
11.76
12.04
11.84
11.21
10.26
9.11
7.98
7.09
6.67
6.81
7.45
8.36
9.24
9.79
9.86
9.46
8.76
8.00
7.36
6.94
6.72
6.61
6.50
6.27
5.80
5.02
3.90
2.50
1.00
-0.39
-1.45
-2.09
-2.36
-2.50
-2.80
-3.57
-5.01
-7.11
-9.65
-12.20
-14.20
-15.14
-14.68
-12.76
-9.61
-5.70
-1.56
2.34
5.69
8.35
10.31
11.58
12.20
12.19
11.63
10.66
9.53
8.48
7.69
7.24
7.11
7.22
7.49
7.88
8.31
8.69
8.88
8.78
8.35
7.62
6.61
5.31
3.68
1.73
-0.41
-2.45
-4.04
-4.97
-5.26
-5.23
-5.30
-5.82
-6.99
-8.76
-10.91
-13.16
-15.13
-16.42
-16.61
-15.37
-12.66
-8.74
-4.11
0.57
4.75
8.05
10.34
11.67
12.21
12.15
11.73
11.17
10.69
10.42
10.44
10.69
11.09
11.52
11.90
12.18
12.31
12.28
12.08
11.70
11.16
10.50
9.80
9.06
8.29
7.40
6.27
4.86
3.22
1.51
-0.06
-1.35
-2.35
-3.19
-4.04
-5.04
-6.24
-7.64
-9.25
-11.16
-13.43
-15.93
-18.30
-19.92
-20.11
-18.51
-15.20
-10.72
-5.88
-1.39
2.38
5.42
7.92
10.04
11.79
13.03
13.66
13.73
13.45
13.10
12.85
12.69
12.52
12.22
11.78
11.29
10.89
10.71
10.77
10.99
11.22
11.31
11.09
10.49
9.51
8.27
6.98
5.85
5.01
4.48
4.12
3.79
3.34
2.71
1.93
0.98
-0.16
-1.49
-2.98
-4.53
-5.96
-7.09
-7.90
-8.52
-9.19
-10.20
-11.77
-13.93
-16.48
-18.98
-20.81
-21.41
-20.38
-17.66
-13.61
-8.88
-4.23
-0.26
2.68
4.65
5.96
6.94
7.83
8.68
9.36
9.76
9.86
9.83
9.87
10.19
10.76
11.37
11.71
11.54
10.87
9.89
8.94
8.25
7.93
7.87
7.91
7.89
7.72
7.38
6.84
6.09
5.15
4.05
2.92
1.87
0.96
0.16
-0.64
-1.57
-2.66
-3.83
-4.93
-5.83
-6.51
-7.06
-7.70
-8.65
-10.08
-11.98
-14.17
-16.29
-17.83
-18.33
-17.46
-15.16
-11.68
-7.49
-3.16
0.84
4.18
6.79
8.67
9.94
10.64
10.84
10.61
10.07
9.40
8.81
8.46
8.35
8.37
8.29
7.92
7.20
6.23
5.26
4.51
4.08
3.86
3.64
3.15
2.29
1.15
0.05
-0.70
-0.94
-0.78
-0.57
-0.74
-1.55
-2.98
-4.70
-6.27
-7.37
-7.90
-8.05
-8.16
-8.48
-9.16
-10.23
-11.65
-13.41
-15.41
-17.43
-18.97
-19.46
-18.38
-15.57
-11.30
-6.21
-1.09
3.40
6.90
9.35
10.86
11.63
11.86
11.70
11.32
10.88
10.49
10.22
10.04
9.87
9.67
9.39
9.05
8.62
8.07
7.39
6.55
5.58
4.56
3.59
2.72
1.98
1.34
0.77
0.28
-0.11
-0.45
-0.82
-1.38
-2.22
-3.36
-4.69
-6.05
-7.27
-8.29
-9.14
-9.91
-10.69
-11.58
-12.64
-13.93
-15.47
-17.18
-18.86
-20.11
-20.45
-19.50
-17.08
-13.39
-8.96
-4.43
-0.38
2.83
5.13
6.66
7.59
8.11
8.34
8.42
8.46
8.58
8.80
9.12
9.44
9.69
9.79
9.76
9.65
9.55
9.55
9.65
9.78
9.80
9.48
8.72
7.52
6.13
4.85
3.87
3.20
2.63
1.88
0.72
-0.82
-2.61
-4.39
-6.00
-7.34
-8.42
-9.25
-9.87
-10.32
-10.71
-11.30
-12.34
-14.06
-16.46
-19.24
-21.84
-23.53
-23.67
-21.89
-18.30
-13.39
-7.91
-2.63
1.90
5.37
7.79
9.29
10.03
10.15
9.81
9.15
8.38
7.72
7.37
7.47
7.99
8.83
9.79
10.70
11.43
11.94
12.21
12.24
12.05
11.57
10.78
9.68
8.34
6.91
5.58
4.53
3.84
3.49
3.28
2.96
2.31
1.18
-0.39
-2.25
-4.15
-5.87
-7.27
-8.36
-9.26
-10.14
-11.17
-12.44
-13.99
-15.82
-17.87
-20.04
-22.12
-23.74
-24.41
-23.69
-21.36
-17.61
-13.04
-8.43
-4.43
-1.34
0.97
2.85
4.58
6.23
7.65
8.63
9.13
9.32
9.56
10.09
10.97
12.01
12.93
13.51
13.69
13.54
13.19
12.79
12.40
12.07
11.80
11.54
11.20
10.63
9.73
8.46
6.94
5.33
3.80
2.44
1.18
-0.08
-1.44
-2.89
-4.38
-5.81
-7.14
-8.45
-9.85
-11.48
-13.40
-15.58
-17.94
-20.42
-22.87
-25.07
-26.62
-27.05
-25.95
-23.18
-18.96
-13.81
-8.40
-3.23
1.40
5.44
8.92
11.79
13.95
15.30
15.84
15.78
15.43
15.08
14.92
15.01
15.22
15.43
15.52
15.39
15.00
14.30
13.27
11.91
10.32
8.67
7.22
6.13
5.50
5.20
5.01
4.64
3.84
2.53
0.75
-1.33
-3.53
-5.63
-7.42
-8.81
-9.77
-10.48
-11.27
-12.48
-14.35
-16.95
-20.08
-23.27
-25.98
-27.58
-27.59
-25.82
-22.40
-17.76
-12.51
-7.24
-2.40
1.80
5.32
8.22
10.51
12.17
13.19
13.62
13.61
13.41
13.29
13.44
13.91
14.59
15.24
15.58
15.45
14.85
14.02
13.33
13.06
13.27
13.74
14.07
13.84
12.92
11.47
9.85
8.43
7.35
6.53
5.72
4.70
3.42
1.91
0.23
-1.62
-3.67
-5.92
-8.24
-10.39
-12.14
-13.42
-14.45
-15.65
-17.49
-20.18
-23.49
-26.76
-29.10
-29.70
-28.13
-24.48
-19.32
-13.47
-7.74
-2.68
1.47
4.74
7.28
9.27
10.84
12.11
13.12
13.94
14.62
15.19
15.72
16.22
16.68
17.06
17.29
17.37
17.34
17.27
17.22
17.15
16.95
16.49
15.68
14.55
13.23
11.86
10.57
9.42
8.39
7.43
6.51
5.59
4.64
3.64
2.55
1.34
-0.03
-1.58
-3.30
-5.15
-7.03
-8.82
-10.45
-11.90
-13.23
-14.56
-16.08
-17.98
-20.33
-23.06
-25.83
-28.05
-29.01
-28.13
-25.18
-20.44
-14.63
-8.66
-3.28
1.10
4.48
7.07
9.16
10.90
12.30
13.29
13.83
14.01
14.01
14.03
14.25
14.73
15.42
16.20
16.89
17.35
17.47
17.29
16.92
16.50
16.14
15.86
15.53
14.96
13.98
12.56
10.80
8.95
7.30
5.99
5.03
4.30
3.61
2.82
1.89
0.78
-0.51
-2.05
-3.89
-6.01
-8.29
-10.47
-12.35
-13.86
-15.05
-16.15
-17.40
-18.97
-20.92
-23.14
-25.30
-26.91
-27.36
-26.15
-23.03
-18.24
-12.43
-6.50
-1.27
2.86
5.90
8.14
9.90
11.34
12.37
12.83
12.71
12.22
11.77
11.76
12.34
13.38
14.48
15.21
15.34
14.85
13.97
13.01
12.17
11.53
11.07
10.69
10.28
9.78
9.18
8.50
7.73
6.85
5.81
4.57
3.09
1.44
-0.29
-1.95
-3.47
-4.85
-6.12
-7.33
-8.44
-9.44
-10.30
-11.10
-12.09
-13.55
-15.74
-18.68
-22.05
-25.18
-27.28
-27.62
-25.87
-22.25
-17.35
-12.02
-6.96
-2.54
1.24
4.54
7.50
10.01
11.81
12.68
12.59
11.79
10.76
9.94
9.64
9.88
10.47
11.13
11.62
11.84
11.79
11.58
11.30
10.97
10.56
10.01
9.24
8.21
6.93
5.48
3.99
2.60
1.48
0.67
0.09
-0.49
-1.32
-2.57
-4.19
-5.95
-7.55
-8.81
-9.74
-10.61
-11.73
-13.38
-15.63
-18.36
-21.22
-23.75
-25.41
-25.78
-24.57
-21.78
-17.70
-12.83
-7.78
-3.08
0.91
4.02
6.30
7.94
9.14
10.03
10.70
11.18
11.51
11.81
12.26
13.00
14.00
15.07
15.86
16.06
15.61
14.69
13.70
13.01
12.77
12.79
12.72
12.20
11.12
9.65
8.14
6.94
6.23
5.92
5.75
5.40
4.65
3.44
1.88
0.15
-1.54
-3.07
-4.43
-5.72
-7.06
-8.57
-10.30
-12.26
-14.45
-16.87
-19.51
-22.33
-25.09
-27.43
-28.78
-28.71
-26.90
-23.43
-18.69
-13.33
-8.04
-3.36
0.46
3.42
5.70
7.48
8.88
9.94
10.68
11.15
11.47
11.75
12.09
12.51
13.02
13.54
14.00
14.30
14.35
14.09
13.51
12.72
11.91
11.21
10.65
10.15
9.55
8.78
7.89
6.98
6.18
5.51
4.90
4.18
3.29
2.28
1.25
0.30
-0.51
-1.28
-2.11
-3.14
-4.39
-5.81
-7.26
-8.62
-9.84
-10.97
-12.24
-13.90
-16.16
-18.96
-21.88
-24.22
-25.18
-24.25
-21.36
-16.98
-11.93
-7.02
-2.81
0.52
3.06
5.04
6.66
8.02
9.15
9.99
10.48
10.61
10.46
10.18
9.97
10.03
10.42
11.07
11.81
12.46
12.91
13.19
13.42
13.67
13.88
13.86
13.35
12.18
10.36
8.15
5.97
4.25
3.26
3.00
3.18
3.41
3.29
2.57
1.25
-0.49
-2.33
-4.03
-5.39
-6.39
-7.16
-7.86
-8.70
-9.85
-11.42
-13.42
-15.79
-18.30
-20.61
-22.24
-22.65
-21.42
-18.40
-13.84
-8.40
-2.97
1.63
4.90
6.76
7.56
7.81
7.94
8.12
8.29
8.26
7.97
7.53
7.20
7.17
7.52
8.07
8.56
8.81
8.78
8.61
8.47
8.44
8.45
8.29
7.81
6.96
5.84
4.68
3.71
3.09
2.87
2.98
3.24
3.40
3.22
2.49
1.18
-0.59
-2.55
-4.42
-5.99
-7.22
-8.20
-9.11
-10.11
-11.38
-12.99
-15.00
-17.36
-19.79
-21.87
-23.04
-22.84
-21.10
-17.97
-13.98
-9.74
-5.82
-2.52
0.09
2.13
3.79
5.22
6.49
7.57
8.41
8.92
9.12
9.05
8.87
8.70
8.69
8.87
9.18
9.51
9.74
9.80
9.67
9.38
8.92
8.26
7.37
6.26
5.05
3.92
3.02
2.39
1.90
1.34
0.51
-0.66
-2.08
-3.54
-4.84
-5.85
-6.57
-7.09
-7.56
-8.15
-9.12
-10.66
-12.85
-15.52
-18.19
-20.21
-20.90
-19.92
-17.33
-13.64
-9.52
-5.57
-2.11
0.83
3.36
5.63
7.60
9.16
10.13
10.44
10.15
9.48
8.68
8.00
7.61
7.59
7.94
8.60
9.45
10.31
11.00
11.33
11.15
10.44
9.29
7.88
6.45
5.19
4.20
3.46
2.83
2.14
1.26
0.13
-1.24
-2.74
-4.27
-5.70
-6.97
-8.01
-8.82
-9.45
-10.00
-10.66
-11.64
-13.15
-15.27
-17.91
-20.71
-23.11
-24.49
-24.34
-22.52
-19.25
-15.06
-10.61
-6.42
-2.81
0.15
2.57
4.56
6.17
7.42
8.27
8.79
9.06
9.21
9.36
9.56
9.85
10.23
10.67
11.16
11.63
12.02
12.22
12.20
11.95
11.59
11.23
10.96
10.77
10.54
10.11
9.36
8.30
7.11
5.98
5.05
4.31
3.61
2.75
1.60
0.19
-1.33
-2.82
-4.21
-5.56
-6.97
-8.48
-10.06
-11.61
-13.10
-14.65
-16.46
-18.73
-21.40
-24.16
-26.38
-27.38
-26.61
-23.93
-19.67
-14.52
-9.34
-4.81
-1.26
1.36
3.40
5.21
6.97
8.59
9.86
10.61
10.89
10.94
11.08
11.50
12.13
12.77
13.13
13.07
12.61
11.98
11.39
11.02
10.88
10.81
10.62
10.18
9.44
8.48
7.46
6.49
5.65
4.93
4.22
3.50
2.74
1.98
1.23
0.41
-0.58
-1.81
-3.18
-4.47
-5.37
-5.76
-5.72
-5.49
-5.38
-5.56
-5.99
-6.56
-7.22
-8.05
-9.19
-10.65
-12.16
-13.19
-13.16
-11.69
-8.80
-4.91
-0.67
3.28
6.54
8.99
10.76
12.07
13.08
13.80
14.10
13.84
12.96
11.58
9.98
8.49
7.34
6.63
6.28
6.17
6.26
6.53
7.06
7.85
8.79
9.68
10.31
10.49
10.15
9.31
8.01
6.36
4.45
2.41
0.40
-1.43
-2.97
-4.16
-5.05
-5.73
-6.34
-6.94
-7.56
-8.20
-8.86
-9.63
-10.68
-12.24
-14.48
-17.42
-20.88
-24.52
-27.92
-30.74
-32.67
-33.48
-32.94
-30.89
-27.31
-22.48
-17.00
-11.63
-7.11
-3.75
-1.48
0.16
1.67
3.36
5.15
6.74
7.76
8.03
7.70
7.16
6.80
6.83
7.19
7.57
7.66
7.32
6.59
5.69
4.76
3.88
2.97
1.94
0.76
-0.44
-1.50
-2.31
-2.87
-3.35
-3.95
-4.78
-5.83
-6.99
-8.07
-8.92
-9.49
-9.86
-10.20
-10.72
-11.68
-13.22
-15.32
-17.69
-19.78
-20.96
-20.68
-18.76
-15.41
-11.20
-6.80
-2.73
0.73
3.54
5.81
7.65
9.12
10.20
10.90
11.27
11.39
11.35
11.25
11.15
11.05
10.94
10.77
10.47
10.04
9.52
9.04
8.72
8.61
8.64
8.63
8.45
8.04
7.48
6.98
6.64
6.49
6.37
6.06
5.37
4.27
2.88
1.39
0.01
-1.15
-2.09
-2.92
-3.82
-5.01
-6.68
-8.93
-11.62
-14.41
-16.78
-18.18
-18.22
-16.73
-13.87
-9.97
-5.51
-0.99
3.16
6.60
9.23
11.15
12.63
14.01
15.52
17.22
19.00
20.69
22.15
23.37
24.44
25.42
26.28
26.85
26.92
26.25
24.69
22.23
19.01
15.27
11.33
7.50
3.92
0.56
-2.80
-6.47
-10.68
-15.48
-20.75
-26.25
-31.76
-37.13
-42.24
-46.88
-50.74
-53.40
-54.46
-53.61
-50.77
-46.09
-39.96
-32.99
-25.96
-19.73
-15.04
-12.31
-11.32
-11.30
-11.05
-9.44
-5.86
-0.49
5.79
11.84
16.76
20.25
22.70
24.75
26.87
28.95
30.30
30.04
27.55
22.98
17.22
11.56
7.19
4.71
4.13
5.06
7.14
10.30
14.68
20.33
26.93
33.69
39.67
44.15
47.05
48.86
50.32
51.93
53.62
54.86
54.98
53.53
50.46
46.06
40.72
34.78
28.48
22.01
15.66
9.71
4.32
-0.52
-4.96
-9.21
-13.37
-17.36
-20.97
-23.96
-26.15
-27.40
-27.69
-27.09
-25.81
-24.16
-22.45
-20.90
-19.48
-17.98
-16.15
-13.84
-11.15
-8.37
-5.84
-3.88
-2.65
-2.14
-2.23
-2.69
-3.25
-3.61
-3.59
-3.16
-2.47
-1.73
-1.12
-0.69
-0.40
-0.15
0.08
0.20
0.14
-0.12
-0.41
-0.49
-0.13
0.72
1.91
3.10
3.88
3.92
3.11
1.52
-0.59
-2.89
-5.09
-6.99
-8.48
-9.54
-10.28
-10.86
-11.50
-12.43
-13.73
-15.31
-16.95
-18.33
-19.26
-19.77
-20.05
-20.36
-20.85
-21.47
-21.97
-22.09
-21.62
-20.48
-18.72
-16.42
-13.68
-10.63
-7.46
-4.51
-2.14
-0.68
-0.23
-0.61
-1.37
-2.01
-2.12
-1.55
-0.46
0.77
1.74
2.10
1.71
0.56
-1.24
-3.49
-5.88
-8.05
-9.50
-9.81
-8.72
-6.28
-2.86
0.92
4.46
7.34
9.48
11.05
12.30
13.45
14.49
15.29
15.69
15.58
15.04
14.31
13.69
13.44
13.67
14.31
15.14
15.80
16.00
15.58
14.58
13.23
11.79
10.47
9.38
8.48
7.65
6.79
5.80
4.71
3.60
2.49
1.41
0.32
-0.85
-2.15
-3.57
-5.10
-6.73
-8.47
-10.33
-12.22
-13.90
-14.98
-15.08
-13.92
-11.51
-8.13
-4.24
-0.33
3.19
6.07
8.14
9.40
9.97
10.07
10.01
10.04
10.31
10.78
11.27
11.60
11.65
11.46
11.13
10.80
10.50
10.22
9.90
9.49
8.99
8.38
7.60
6.56
5.19
3.54
1.77
0.14
-1.13
-2.03
-2.72
-3.51
-4.62
-6.12
-7.82
-9.46
-10.78
-11.69
-12.29
-12.85
-13.68
-15.05
-17.00
-19.35
-21.66
-23.38
-23.97
-23.15
-20.97
-17.80
-14.19
-10.75
-7.89
-5.81
-4.49
-3.77
-3.47
-3.44
-3.63
-4.03
-4.70
-5.60
-6.62
-7.64
-8.46
-9.03
-9.34
-9.56
-9.87
-10.48
-11.53
-12.99
-14.71
-16.42
-17.79
-18.57
-18.56
-17.73
-16.12
-13.85
-11.05
-7.87
-4.46
-1.03
2.18
4.96
7.26
9.12
10.74
12.34
14.05
15.83
17.51
18.86
19.69
19.96
19.80
19.48
19.28
19.46
20.13
21.22
22.53
23.81
24.83
25.46
25.68
25.51
24.99
24.17
23.07
21.77
20.36
18.98
17.75
16.76
16.01
15.41
14.83
14.08
12.99
11.49
9.63
7.62
5.67
3.96
2.47
1.06
-0.44
-2.15
-4.06
-6.10
-8.13
-10.12
-12.03
-13.87
-15.66
-17.32
-18.80
-20.02
-21.01
-21.88
-22.82
-24.08
-25.76
-27.84
-30.04
-31.87
-32.76
-32.26
-30.19
-26.77
-22.52
-18.10
-14.08
-10.80
-8.28
-6.34
-4.68
-3.04
-1.28
0.59
2.48
4.27
5.90
7.39
8.81
10.28
11.84
13.49
15.10
16.54
17.68
18.50
19.05
19.42
19.66
19.74
19.53
18.95
18.01
16.86
15.74
14.88
14.33
14.02
13.72
13.20
12.34
11.11
9.59
7.91
6.17
4.46
2.85
1.37
0.02
-1.32
-2.85
-4.76
-7.05
-9.48
-11.50
-12.50
-12.01
-10.01
-6.96
-3.71
-1.08
0.45
0.91
0.76
0.54
0.58
0.89
1.25
1.41
1.31
1.05
0.83
0.75
0.78
0.80
0.74
0.65
0.67
0.95
1.53
2.28
3.05
3.68
4.09
4.23
4.10
3.66
2.93
2.01
1.03
0.14
-0.60
-1.25
-1.89
-2.58
-3.32
-4.04
-4.68
-5.23
-5.73
-6.24
-6.75
-7.22
-7.62
-7.97
-8.36
-8.91
-9.72
-10.69
-11.55
-11.89
-11.27
-9.44
-6.41
-2.53
1.62
5.44
8.55
10.90
12.74
14.37
15.98
17.60
19.09
20.41
21.63
22.95
24.53
26.32
28.06
29.39
30.02
29.82
28.89
27.38
25.45
23.15
20.46
17.31
13.69
9.68
5.44
1.29
-2.46
-5.56
-7.90
-9.57
-10.85
-12.02
-13.28
-14.61
-15.77
-16.40
-16.23
-15.14
-13.23
-10.75
-8.08
-5.66
-3.94
-3.38
-4.34
-7.02
-11.31
-16.75
-22.62
-28.11
-32.54
-35.56
-37.17
-37.67
-37.43
-36.72
-35.60
-33.91
-31.41
-27.90
-23.34
-17.87
-11.71
-4.98
2.32
10.32
19.06
28.43
38.05
47.35
55.82
63.12
69.21
74.28
78.53
82.05
84.69
86.19
86.33
85.08
82.70
79.66
76.41
73.25
70.20
66.99
63.27
58.70
53.15
46.79
40.01
33.26
26.90
21.05
15.56
10.15
4.48
-1.65
-8.31
-15.40
-22.68
-29.77
-36.20
-41.51
-45.34
-47.66
-48.68
-48.83
-48.53
-47.98
-47.16
-45.98
-44.43
-42.72
-41.20
-40.17
-39.72
-39.62
-39.42
-38.65
-36.94
-34.15
-30.27
-25.42
-19.76
-13.53
-7.08
-0.94
4.27
7.98
9.84
9.86
8.50
6.41
4.28
2.67
1.85
1.83
2.43
3.25
3.74
3.26
1.33
-2.20
-6.89
-11.77
-15.63
-17.53
-17.17
-15.10
-12.32
-9.88
-8.44
-8.08
-8.43
-8.99
-9.37
-9.37
-8.87
-7.79
-6.02
-3.56
-0.62
2.31
4.66
5.98
6.18
5.56
4.60
3.76
3.20
2.72
1.94
0.51
-1.70
-4.48
-7.39
-9.91
-11.58
-12.18
-11.70
-10.34
-8.52
-6.68
-5.28
-4.60
-4.68
-5.40
-6.55
-7.99
-9.68
-11.65
-13.84
-16.02
-17.86
-19.04
-19.43
-19.13
-18.42
-17.59
-16.82
-16.13
-15.56
-15.14
-14.96
-15.08
-15.49
-16.00
-16.36
-16.33
-15.69
-14.36
-12.29
-9.53
-6.27
-2.88
0.20
2.58
4.13
5.00
5.62
6.44
7.72
9.38
11.17
12.72
13.75
14.10
13.68
12.40
10.22
7.21
3.72
0.27
-2.59
-4.53
-5.55
-6.00
-6.43
-7.24
-8.54
-10.20
-11.88
-13.30
-14.33
-15.00
-15.39
-15.52
-15.34
-14.81
-14.00
-13.11
-12.44
-12.15
-12.32
-12.84
-13.60
-14.55
-15.66
-16.84
-17.76
-17.90
-16.81
-14.35
-10.83
-6.94
-3.33
-0.38
2.01
4.20
6.48
8.77
10.69
11.78
11.80
10.93
9.65
8.48
7.76
7.53
7.62
7.74
7.71
7.45
6.99
6.47
6.07
5.90
5.97
6.15
6.19
5.87
5.10
3.97
2.77
1.80
1.25
1.14
1.39
1.87
2.50
3.12
3.53
3.38
2.34
0.34
-2.39
-5.33
-7.92
-9.85
-11.11
-11.91
-12.31
-12.11
-10.82
-8.03
-3.80
1.20
5.88
9.19
10.64
10.51
9.60
8.87
8.89
9.75
11.05
12.21
12.73
12.45
11.47
10.12
8.73
7.49
6.36
5.18
3.86
2.52
1.56
1.41
2.23
3.69
5.10
5.65
4.86
2.82
0.12
-2.53
-4.65
-6.19
-7.42
-8.71
-10.27
-12.12
-14.21
-16.48
-19.01
-21.81
-24.78
-27.71
-30.35
-32.61
-34.63
-36.71
-39.14
-42.08
-45.36
-48.58
-51.20
-52.63
-52.37
-50.11
-45.86
-39.98
-33.16
-26.21
-19.80
-14.24
-9.41
-4.86
-0.06
5.29
11.11
16.93
22.08
25.96
28.27
29.14
29.04
28.64
28.54
29.11
30.39
32.17
34.05
35.59
36.45
36.39
35.42
33.78
31.94
30.38
29.43
29.07
29.08
29.19
29.31
29.61
30.44
32.15
34.94
38.84
43.71
49.16
54.27
57.39
56.26
48.76
34.02
13.16
-10.81
-34.10
-53.70
-68.40
-78.78
-86.15
-91.30
-93.81
-92.41
-86.03
-74.76
-60.15
-44.50
-29.88
-17.39
-7.15
1.14
7.67
12.23
14.46
14.21
11.88
8.48
5.36
3.72
4.16
6.42
9.44
11.75
12.05
9.73
5.16
-0.54
-5.93
-9.85
-11.75
-11.84
-10.75
-9.30
-8.10
-7.51
-7.60
-8.23
-9.06
-9.59
-9.26
-7.57
-4.36
0.07
4.97
9.33
12.16
12.84
11.25
7.85
3.45
-0.94
-4.36
-6.06
-5.66
-3.07
1.48
7.53
14.46
21.60
28.33
34.23
39.15
43.16
46.59
49.73
52.84
55.96
59.05
61.99
64.64
66.81
68.03
67.62
64.75
58.88
50.18
39.59
28.58
18.59
10.55
4.65
0.64
-1.90
-3.25
-3.57
-3.12
-2.43
-2.25
-3.29
-5.90
-9.91
-14.71
-19.52
-23.67
-26.76
-28.64
-29.42
-29.36
-28.86
-28.37
-28.32
-28.90
-29.92
-30.81
-30.67
-28.68
-24.34
-17.73
-9.51
-0.65
7.90
15.51
22.03
27.61
32.40
36.31
38.95
39.73
38.15
34.04
27.70
19.92
11.74
4.15
-2.26
-7.42
-11.71
-15.61
-19.43
-23.13
-26.41
-29.03
-31.06
-32.92
-35.22
-38.33
-42.11
-45.86
-48.62
-49.63
-48.70
-46.34
-43.55
-41.36
-40.35
-40.46
-41.01
-41.16
-40.24
-38.23
-35.65
-33.37
-32.23
-32.64
-34.47
-37.01
-39.30
-40.34
-39.37
-36.01
-30.41
-23.17
-15.19
-7.50
-1.00
3.67
6.31
7.10
6.58
5.44
4.37
3.83
3.92
4.48
5.06
5.25
4.81
3.84
2.68
1.85
1.78
2.66
4.39
6.63
8.85
10.39
10.66
9.27
6.17
1.82
-2.94
-7.12
-9.91
-11.06
-10.96
-10.45
-10.45
-11.44
-13.36
-15.62
-17.55
-18.76
-19.46
-20.33
-22.19
-25.43
-29.71
-33.98
-36.89
-37.30
-34.82
-29.86
-23.39
-16.46
-9.82
-3.72
2.05
7.84
13.90
20.09
25.96
30.91
34.47
36.56
37.59
38.27
39.32
41.09
43.40
45.67
47.27
47.90
47.87
47.99
49.24
52.33
57.23
63.16
68.79
72.77
74.21
73.08
70.20
66.85
64.30
63.22
63.49
64.29
64.42
62.80
58.84
52.63
44.95
37.09
30.53
26.59
26.07
28.99
34.53
41.21
47.20
50.85
51.11
47.70
41.14
32.48
22.95
13.69
5.50
-1.19
-6.30
-9.94
-12.33
-13.82
-14.89
-16.13
-18.12
-21.24
-25.54
-30.70
-36.20
-41.61
-46.92
-52.64
-59.72
-69.19
-81.80
-97.60
-115.78
-134.60
-151.59
-163.96
-169.20
-165.64
-153.02
-132.69
-107.37
-80.49
-55.19
-33.47
-15.70
-0.98
12.10
24.46
36.00
45.71
52.38
55.53
55.78
54.67
53.87
54.34
55.91
57.64
58.43
57.58
55.06
51.14
46.03
39.67
31.91
22.73
12.55
2.21
-7.37
-15.56
-22.14
-27.25
-31.12
-33.88
-35.55
-36.21
-35.95
-34.91
-33.18
-30.76
-27.63
-23.99
-20.32
-17.34
-15.76
-15.94
-17.77
-20.59
-23.53
-25.73
-26.63
-26.15
-24.65
-22.70
-20.84
-19.38
-18.14
-16.63
-14.21
-10.46
-5.45
0.17
5.37
9.04
10.33
8.89
4.81
-1.49
-9.45
-18.36
-27.39
-35.51
-41.71
-45.25
-46.03
-44.65
-42.22
-39.83
-38.10
-36.89
-35.47
-33.00
-28.98
-23.47
-17.07
-10.45
-4.12
1.77
7.43
13.12
18.99
24.90
30.52
35.45
39.42
42.36
44.34
45.48
45.82
45.32
43.99
41.98
39.48
36.64
33.36
29.29
24.03
17.43
9.90
2.39
-3.85
-7.81
-9.14
-8.25
-6.21
-4.21
-3.16
-3.39
-4.68
-6.52
-8.42
-10.11
-11.48
-12.48
-12.92
-12.52
-11.05
-8.66
-6.10
-4.57
-5.34
-9.19
-16.04
-24.87
-34.12
-42.25
-48.10
-51.22
-51.70
-49.96
-46.56
-41.97
-36.51
-30.43
-23.92
-17.21
-10.62
-4.50
0.81
5.16
8.56
11.15
12.96
13.79
13.33
11.31
7.97
4.11
0.94
-0.34
0.89
4.45
9.40
14.51
18.79
21.88
24.00
25.71
27.45
29.28
30.94
32.04
32.39
32.13
31.68
31.45
31.66
32.23
32.84
33.18
33.12
32.72
32.14
31.52
30.87
30.08
29.08
27.80
26.27
24.52
22.55
20.40
18.09
15.80
13.72
12.06
10.91
10.22
9.75
9.25
8.50
7.44
6.15
4.94
4.24
4.59
6.40
9.82
14.53
19.79
24.57
27.95
29.41
28.97
27.03
24.14
20.69
16.88
12.79
8.56
4.56
1.29
-0.80
-1.58
-1.23
-0.25
0.81
1.56
1.85
1.71
1.22
0.29
-1.30
-3.81
-7.45
-12.17
-17.71
-23.71
-29.80
-35.68
-41.17
-46.09
-50.24
-53.41
-55.49
-56.52
-56.76
-56.61
-56.54
-56.88
-57.79
-59.06
-60.09
-59.88
-57.28
-51.35
-41.73
-28.93
-14.19
0.84
14.70
26.61
36.72
45.99
55.75
67.15
80.70
95.87
111.05
123.78
131.36
131.66
123.88
108.96
89.44
68.81
50.50
36.92
28.85
25.30
24.03
22.42
18.43
11.27
1.60
-8.91
-18.41
-25.59
-30.12
-32.53
-33.69
-34.27
-34.48
-34.19
-33.21
-31.67
-29.93
-28.56
-27.96
-28.27
-29.26
-30.36
-30.72
-29.34
-25.38
-18.43
-8.87
2.11
12.77
21.33
26.62
28.44
27.57
25.39
23.30
22.23
22.45
23.61
25.03
26.16
26.78
27.10
27.65
28.98
31.35
34.54
37.91
40.58
41.84
41.33
39.21
36.00
32.32
28.69
25.27
22.02
18.70
15.24
11.83
8.98
7.39
7.64
9.81
13.26
16.66
18.32
16.79
11.40
2.57
-8.32
-19.48
-29.37
-37.23
-43.15
-47.91
-52.39
-57.22
-62.49
-67.70
-72.02
-74.42
-73.91
-69.72
-61.52
-49.63
-35.12
-19.78
-5.72
5.13
11.58
13.62
12.37
9.64
7.27
6.59
8.01
11.16
15.32
19.78
24.17
28.45
32.61
36.53
39.71
41.47
41.12
38.27
32.92
25.50
16.73
7.48
-1.39
-9.16
-15.39
-20.04
-23.51
-26.56
-30.05
-34.52
-39.91
-45.46
-49.98
-52.36
-52.05
-49.38
-45.48
-41.71
-39.32
-38.82
-40.07
-42.26
-44.28
-45.01
-43.48
-39.24
-32.55
-24.48
-16.68
-10.81
-7.78
-7.20
-7.31
-5.67
-0.22
9.66
22.68
36.07
46.64
52.06
51.61
46.27
38.01
28.92
20.48
13.31
7.52
3.05
0.01
-1.41
-1.26
-0.11
0.94
0.71
-1.67
-6.33
-12.70
-19.86
-26.92
-33.32
-38.80
-43.13
-45.84
-46.03
-42.64
-34.90
-22.83
-7.58
8.66
23.19
33.55
38.31
37.43
32.19
24.67
16.99
10.75
6.68
4.76
4.48
5.18
6.20
6.94
6.86
5.51
2.79
-0.97
-4.83
-7.40
-7.20
-3.05
5.41
17.66
32.35
47.71
61.97
73.66
81.86
86.05
86.13
82.26
74.88
64.77
52.98
40.76
29.24
19.29
11.29
5.21
0.60
-3.13
-6.58
-10.11
-13.79
-17.26
-19.85
-20.84
-19.76
-16.66
-12.19
-7.38
-3.34
-0.87
-0.36
-1.70
-4.48
-8.20
-12.32
-16.37
-19.86
-22.28
-23.16
-22.15
-19.26
-14.85
-9.68
-4.67
-0.65
1.90
2.95
2.86
2.12
1.12
0.07
-0.89
-1.54
-1.42
0.07
3.38
8.50
14.84
21.32
26.90
30.89
33.24
34.39
34.97
35.41
35.76
35.71
34.74
32.38
28.22
21.97
13.52
3.02
-8.91
-21.20
-32.39
-41.08
-46.23
-47.49
-45.18
-40.03
-32.96
-24.75
-16.08
-7.53
0.30
6.78
11.41
13.97
14.67
13.98
12.54
10.91
9.46
8.29
7.38
6.71
6.19
5.78
5.39
4.94
4.32
3.51
2.49
1.32
0.06
-1.24
-2.49
-3.62
-4.56
-5.26
-5.72
-5.95
-6.04
-6.11
-6.32
-6.84
-7.82
-9.28
-11.08
-12.86
-14.14
-14.43
-13.41
-11.00
-7.44
-3.24
0.99
4.69
7.53
9.47
10.82
11.99
13.38
15.12
17.12
19.06
20.61
21.52
21.74
21.33
20.38
19.00
17.25
15.27
13.23
11.40
9.98
9.05
8.55
8.29
8.04
7.64
7.04
6.20
5.08
3.65
1.90
-0.11
-2.22
-4.26
-6.12
-7.84
-9.51
-11.23
-13.03
-14.91
-16.88
-18.99
-21.24
-23.48
-25.34
-26.31
-25.92
-24.02
-20.82
-16.90
-12.95
-9.48
-6.67
-4.34
-2.12
0.37
3.23
6.24
8.98
11.00
12.04
12.18
11.75
11.15
10.62
10.22
9.82
9.27
8.57
7.85
7.31
7.08
7.09
7.14
6.99
6.48
5.60
4.48
3.28
2.12
1.02
-0.10
-1.36
-2.85
-4.62
-6.60
-8.73
-10.96
-13.23
-15.45
-17.43
-18.79
-19.14
-18.14
-15.71
-12.12
-7.94
-3.82
-0.35
2.21
3.92
5.11
6.13
7.22
8.43
9.63
10.60
11.21
11.40
11.26
10.97
10.69
10.56
10.59
10.70
10.72
10.50
9.99
9.25
8.37
7.47
6.58
5.63
4.54
3.23
1.74
0.22
-1.19
-2.39
-3.41
-4.35
-5.37
-6.56
-7.96
-9.54
-11.30
-13.24
-15.41
-17.76
-20.07
-21.95
-22.86
-22.37
-20.32
-16.91
-12.69
-8.33
-4.35
-1.00
1.79
4.23
6.48
8.52
10.19
11.32
11.90
12.11
12.25
12.53
13.02
13.57
13.89
13.77
13.12
12.11
11.00
10.10
9.56
9.39
9.45
9.47
9.25
8.70
7.94
7.19
6.71
6.61
6.81
7.04
6.96
6.43
5.57
4.68
4.14
4.14
4.58
5.09
5.23
4.73
3.59
2.04
0.39
-1.14
-2.47
-3.56
-4.27
-4.34
-3.50
-1.61
1.08
4.10
6.85
8.97
10.39
11.32
12.01
12.56
12.75
12.16
10.41
7.33
3.12
-1.69
-6.45
-10.57
-13.68
-15.64
-16.48
-16.21
-14.67
-11.65
-6.96
-0.75
6.39
13.52
19.63
24.01
26.43
27.20
26.82
25.75
24.13
21.83
18.56
14.18
8.77
2.64
-3.78
-10.12
-16.12
-21.60
-26.34
-30.04
-32.40
-33.24
-32.56
-30.60
-27.72
-24.26
-20.56
-16.91
-13.64
-11.10
-9.49
-8.69
-8.27
-7.54
-5.93
-3.23
0.29
4.06
7.45
10.13
12.09
13.56
14.83
15.99
16.99
17.59
17.65
17.20
16.51
15.99
16.00
16.69
17.97
19.55
21.14
22.48
23.48
24.14
24.46
24.45
24.08
23.33
22.21
20.75
19.09
17.42
16.00
15.06
14.70
14.77
14.84
14.27
12.35
8.52
2.50
-5.53
-14.90
-24.57
-33.40
-40.57
-45.88
-49.87
-53.50
-57.70
-62.90
-68.81
-74.60
-79.18
-81.57
-81.03
-77.15
-69.87
-59.56
-47.11
-33.94
-21.76
-12.07
-5.82
-3.09
-3.22
-5.12
-7.53
-9.34
-9.53
-7.29
-2.18
5.70
15.47
25.60
34.19
39.56
40.74
37.68
31.22
22.71
13.65
5.35
-1.25
-5.65
-7.79
-8.02
-7.02
-5.56
-4.35
-3.81
-4.05
-4.91
-6.18
-7.64
-9.19
-10.77
-12.32
-13.77
-15.09
-16.33
-17.57
-18.88
-20.13
-20.94
-20.80
-19.28
-16.29
-12.14
-7.50
-3.12
0.47
3.06
4.78
5.90
6.69
7.29
7.71
7.91
7.87
7.65
7.37
7.20
7.22
7.45
7.84
8.27
8.69
9.07
9.39
9.68
9.95
10.23
10.54
10.93
11.29
11.37
10.77
9.16
6.40
2.73
-1.30
-5.01
-7.87
-9.67
-10.58
-10.93
-11.09
-11.28
-11.57
-11.98
-12.53
-13.16
-13.81
-14.22
-14.05
-12.98
-10.84
-7.78
-4.22
-0.70
2.28
4.51
6.02
7.02
7.73
8.30
8.70
8.86
8.72
8.34
7.83
7.34
6.94
6.60
6.23
5.76
5.18
4.64
4.32
4.34
4.65
5.04
5.20
4.91
4.16
3.15
2.17
1.44
1.02
0.78
0.57
0.23
-0.26
-0.90
-1.67
-2.55
-3.56
-4.65
-5.74
-6.74
-7.64
-8.51
-9.47
-10.58
-11.77
-12.79
-13.29
-12.94
-11.62
-9.44
-6.76
-4.02
-1.52
0.61
2.48
4.23
5.89
7.35
8.36
8.76
8.59
8.05
7.50
7.19
7.17
7.37
7.59
7.69
7.62
7.41
7.14
6.90
6.75
6.69
6.67
6.58
6.29
5.69
4.82
3.79
2.83
2.09
1.63
1.40
1.24
0.97
0.47
-0.29
-1.23
-2.20
-3.02
-3.59
-3.91
-4.04
-4.15
-4.42
-4.99
-5.95
-7.33
-9.08
-11.01
-12.80
-14.01
-14.18
-13.03
-10.64
-7.40
-3.92
-0.78
1.67
3.41
4.62
5.58
6.46
7.27
7.95
8.38
8.57
8.56
8.45
8.29
8.10
7.90
7.70
7.60
7.68
7.99
8.48
9.00
9.33
9.29
8.79
7.85
6.63
5.30
4.04
2.97
2.11
1.43
0.89
0.47
0.15
-0.09
-0.35
-0.75
-1.40
-2.32
-3.46
-4.65
-5.72
-6.56
-7.19
-7.74
-8.40
-9.32
-10.57
-12.05
-13.52
-14.60
-14.91
-14.15
-12.28
-9.50
-6.26
-3.04
-0.21
2.07
3.81
5.13
6.12
6.80
7.18
7.29
7.20
7.04
6.94
6.98
7.15
7.38
7.58
7.66
7.54
7.20
6.68
6.08
5.49
4.99
4.55
4.13
3.66
3.05
2.34
1.58
0.86
0.28
-0.13
-0.42
-0.64
-0.88
-1.24
-1.78
-2.52
-3.45
-4.51
-5.61
-6.69
-7.74
-8.76
-9.81
-10.89
-12.00
-13.02
-13.69
-13.78
-13.04
-11.47
-9.21
-6.60
-4.02
-1.73
0.16
1.72
3.07
4.33
5.46
6.40
7.06
7.43
7.55
7.47
7.30
7.07
6.86
6.71
6.67
6.72
6.78
6.74
6.49
6.01
5.38
4.75
4.26
3.96
3.78
3.62
3.35
2.93
2.43
1.93
1.51
1.19
0.90
0.54
0.03
-0.63
-1.40
-2.19
-2.95
-3.64
-4.27
-4.87
-5.52
-6.31
-7.31
-8.56
-10.01
-11.50
-12.77
-13.49
-13.37
-12.25
-10.15
-7.33
-4.19
-1.14
1.55
3.80
5.70
7.40
8.98
10.38
11.47
12.17
12.51
12.71
12.99
13.48
14.15
14.84
15.40
15.79
16.11
16.49
17.05
17.73
18.37
18.79
18.84
18.54
18.00
17.32
16.50
15.38
13.71
11.28
8.04
4.20
0.09
-3.98
-7.80
-11.42
-14.94
-18.46
-21.93
-25.16
-27.94
-30.12
-31.68
-32.71
-33.36
-33.72
-33.85
-33.79
-33.49
-32.89
-31.81
-30.02
-27.34
-23.71
-19.29
-14.42
-9.52
-4.99
-1.11
2.04
4.52
6.51
8.22
9.85
11.56
13.34
15.11
16.62
17.68
18.13
17.95
17.24
16.18
14.97
13.74
12.56
11.44
10.41
9.54
8.92
8.62
8.59
8.65
8.58
8.15
7.32
6.21
5.08
4.17
3.56
3.14
2.70
2.00
0.94
-0.43
-1.93
-3.35
-4.53
-5.39
-5.95
-6.34
-6.71
-7.22
-7.98
-9.04
-10.30
-11.63
-12.78
-13.49
-13.53
-12.71
-11.00
-8.51
-5.56
-2.54
0.14
2.23
3.66
4.54
5.12
5.57
5.97
6.28
6.44
6.41
6.31
6.26
6.37
6.63
6.87
6.91
6.68
6.26
5.89
5.74
5.85
6.06
6.10
5.78
5.05
4.01
2.85
1.77
0.88
0.21
-0.28
-0.69
-1.11
-1.68
-2.42
-3.27
-4.04
-4.51
-4.59
-4.39
-4.21
-4.36
-5.06
-6.29
-7.88
-9.57
-11.12
-12.34
-13.04
-13.02
-12.07
-10.15
-7.46
-4.45
-1.67
0.47
1.87
2.71
3.31
3.93
4.60
5.19
5.50
5.47
5.23
5.00
5.03
5.38
5.95
6.52
6.89
7.00
6.90
6.73
6.61
6.55
6.51
6.37
6.06
5.58
4.98
4.31
3.62
2.92
2.26
1.70
1.29
1.06
0.94
0.76
0.35
-0.34
-1.24
-2.19
-3.01
-3.62
-4.07
-4.49
-4.98
-5.55
-6.17
-6.83
-7.61
-8.68
-10.10
-11.73
-13.13
-13.76
-13.18
-11.32
-8.51
-5.36
-2.46
-0.19
1.37
2.37
3.03
3.50
3.86
4.14
4.38
4.63
4.92
5.26
5.58
5.84
6.01
6.11
6.17
6.22
6.25
6.20
6.05
5.85
5.63
5.48
5.42
5.40
5.35
5.20
4.95
4.63
4.25
3.79
3.20
2.44
1.55
0.64
-0.16
-0.75
-1.12
-1.39
-1.65
-2.02
-2.50
-3.06
-3.64
-4.19
-4.74
-5.29
-5.89
-6.50
-7.13
-7.79
-8.50
-9.30
-10.11
-10.74
-10.87
-10.23
-8.65
-6.25
-3.39
-0.57
1.74
3.33
4.20
4.56
4.66
4.70
4.76
4.86
4.99
5.13
5.26
5.38
5.46
5.51
5.53
5.55
5.61
5.74
5.85
5.85
5.64
5.19
4.58
3.95
3.42
3.04
2.76
2.44
2.01
1.47
0.95
0.59
0.49
0.63
0.88
1.06
1.02
0.68
0.07
-0.72
-1.56
-2.31
-2.89
-3.32
-3.70
-4.17
-4.86
-5.77
-6.81
-7.82
-8.66
-9.26
-9.58
-9.61
-9.22
-8.32
-6.85
-4.94
-2.83
-0.88
0.64
1.68
2.33
2.82
3.32
3.88
4.40
4.71
4.67
4.25
3.55
2.78
2.19
1.95
2.13
2.66
3.39
4.16
4.82
5.28
5.48
5.40
5.03
4.38
3.50
2.51
1.57
0.82
0.35
0.14
0.07
-0.06
-0.41
-1.06
-1.91
-2.72
-3.27
-3.43
-3.24
-2.90
-2.63
-2.66
-3.05
-3.81
-4.83
-6.01
-7.21
-8.34
-9.25
-9.78
-9.79
-9.18
-7.97
-6.27
-4.29
-2.27
-0.40
1.16
2.39
3.29
3.88
4.20
4.24
4.03
3.62
3.10
2.58
2.20
2.09
2.33
2.88
3.57
4.17
4.45
4.33
3.90
3.37
2.91
2.61
2.37
2.06
1.60
1.01
0.40
-0.11
-0.48
-0.74
-0.97
-1.18
-1.37
-1.52
-1.64
-1.79
-2.07
-2.54
-3.19
-3.97
-4.80
-5.62
-6.42
-7.26
-8.19
-9.19
-10.16
-10.90
-11.15
-10.73
-9.54
-7.69
-5.37
-2.89
-0.53
1.49
3.08
4.25
5.11
5.69
5.98
5.92
5.46
4.73
3.97
3.50
3.52
4.02
4.75
5.39
5.69
5.62
5.28
4.87
4.49
4.16
3.79
3.34
2.77
2.13
1.46
0.82
0.25
-0.23
-0.60
-0.90
-1.18
-1.47
-1.82
-2.20
-2.63
-3.08
-3.57
-4.11
-4.62
-5.04
-5.30
-5.40
-5.47
-5.74
-6.39
-7.53
-9.02
-10.58
-11.77
-12.21
-11.68
-10.21
-8.13
-5.85
-3.76
-2.08
-0.82
0.13
0.93
1.61
2.09
2.24
2.02
1.51
0.85
0.24
-0.27
-0.73
-1.25
-1.94
-2.80
-3.78
-4.78
-5.73
-6.64
-7.58
-8.63
-9.84
-11.23
-12.75
-14.37
-16.04
-17.78
-19.57
-21.42
-23.31
-25.24
-27.23
-29.28
-31.34
-33.30
-34.96
-36.08
-36.43
-35.81
-34.10
-31.23
-27.20
-22.08
-15.99
-9.12
-1.74
5.78
13.04
19.55
24.92
28.88
31.41
32.74
33.25
33.37
33.46
33.62
33.80
33.78
33.35
32.42
31.10
29.63
28.29
27.25
26.44
25.64
24.59
23.14
21.32
19.34
17.50
15.99
14.90
14.11
13.42
12.64
11.69
10.60
9.50
8.50
7.67
6.95
6.21
5.38
4.47
3.58
2.86
2.41
2.24
2.23
2.27
2.27
2.18
1.97
1.59
0.99
0.17
-0.78
-1.72
-2.54
-3.18
-3.71
-4.26
-4.95
-5.81
-6.81
-7.78
-8.54
-8.88
-8.64
-7.76
-6.33
-4.53
-2.63
-0.88
0.58
1.76
2.76
3.70
4.63
5.53
6.27
6.73
6.86
6.68
6.27
5.73
5.15
4.57
4.07
3.66
3.38
3.21
3.07
2.89
2.61
2.24
1.83
1.44
1.01
0.45
-0.32
-1.28
-2.27
-3.02
-3.31
-3.10
-2.54
-1.92
-1.51
-1.44
-1.68
-2.13
-2.70
-3.37
-4.16
-5.09
-6.06
-6.93
-7.58
-7.96
-8.16
-8.33
-8.61
-8.98
-9.30
-9.31
-8.79
-7.68
-6.04
-4.06
-1.99
-0.07
1.54
2.75
3.50
3.84
3.88
3.78
3.64
3.59
3.63
3.75
3.88
4.00
4.12
4.21
4.27
4.28
4.24
4.15
4.03
3.92
3.80
3.71
3.62
3.57
3.53
3.47
3.28
2.88
2.21
1.35
0.48
-0.19
-0.52
-0.50
-0.29
-0.10
-0.08
-0.29
-0.69
-1.19
-1.72
-2.25
-2.78
-3.33
-3.93
-4.58
-5.30
-6.09
-6.94
-7.79
-8.54
-9.08
-9.27
-8.98
-8.15
-6.78
-4.95
-2.88
-0.82
0.95
2.27
3.10
3.51
3.63
3.62
3.57
3.55
3.56
3.57
3.57
3.57
3.57
3.63
3.76
3.99
4.27
4.52
4.63
4.55
4.22
3.69
3.03
2.31
1.60
0.97
0.46
0.10
-0.13
-0.24
-0.32
-0.41
-0.53
-0.66
-0.76
-0.82
-0.91
-1.12
-1.55
-2.18
-2.88
-3.44
-3.75
-3.85
-3.96
-4.37
-5.23
-6.42
-7.54
-8.11
-7.75
-6.38
-4.29
-1.95
0.17
1.82
3.00
3.91
4.76
5.57
6.19
6.36
5.82
4.54
2.82
1.12
-0.08
-0.51
-0.22
0.47
1.20
1.72
2.01
2.20
2.39
2.58
2.64
2.45
1.93
1.16
0.32
-0.42
-0.91
-1.15
-1.18
-1.13
-1.15
-1.38
-1.88
-2.61
-3.42
-4.08
-4.47
-4.57
-4.51
-4.50
-4.69
-5.16
-5.85
-6.68
-7.53
-8.24
-8.65
-8.55
-7.79
-6.36
-4.47
-2.44
-0.68
0.59
1.33
1.76
2.16
2.74
3.51
4.30
4.90
5.13
5.03
4.72
4.39
4.16
4.01
3.88
3.69
3.46
3.27
3.23
3.38
3.61
3.78
3.72
3.35
2.71
1.95
1.24
0.72
0.45
0.35
0.26
0.01
-0.51
-1.28
-2.16
-2.94
-3.46
-3.66
-3.67
-3.62
-3.67
-3.88
-4.22
-4.64
-5.17
-5.89
-6.89
-8.10
-9.28
-10.05
-10.04
-9.07
-7.24
-4.91
-2.50
-0.38
1.27
2.45
3.28
3.86
4.24
4.42
4.42
4.26
4.04
3.82
3.65
3.56
3.54
3.62
3.79
4.03
4.28
4.45
4.43
4.23
3.86
3.41
2.98
2.59
2.24
1.90
1.57
1.26
0.99
0.74
0.46
0.10
-0.33
-0.81
-1.30
-1.77
-2.24
-2.73
-3.22
-3.62
-3.82
-3.78
-3.52
-3.21
-3.04
-3.20
-3.78
-4.73
-5.90
-7.03
-7.84
-8.06
-7.53
-6.28
-4.52
-2.59
-0.81
0.57
1.52
2.14
2.59
2.97
3.27
3.44
3.45
3.36
3.27
3.28
3.46
3.74
3.99
4.12
4.11
4.03
3.97
3.97
3.95
3.80
3.45
2.91
2.28
1.72
1.35
1.21
1.22
1.28
1.24
1.04
0.66
0.18
-0.21
-0.32
0.00
0.72
1.60
2.27
2.40
1.86
0.77
-0.58
-1.88
-2.96
-3.78
-4.38
-4.79
-4.95
-4.82
-4.43
-3.96
-3.61
-3.51
-3.61
-3.69
-3.45
-2.74
-1.60
-0.29
0.83
1.54
1.75
1.59
1.26
0.96
0.83
0.93
1.27
1.83
2.54
3.27
3.84
4.09
3.91
3.34
2.51
1.62
0.86
0.36
0.15
0.21
0.48
0.86
1.22
1.42
1.33
0.84
-0.03
-1.19
-2.43
-3.49
-4.16
-4.31
-3.99
-3.41
-2.86
-2.61
-2.75
-3.15
-3.50
-3.47
-2.83
-1.55
0.21
2.21
4.25
6.15
7.82
9.12
9.89
10.02
9.50
8.44
7.09
5.68
4.37
3.17
2.03
0.85
-0.41
-1.78
-3.22
-4.66
-5.97
-6.97
-7.48
-7.41
-6.77
-5.71
-4.47
-3.31
-2.42
-1.88
-1.68
-1.70
-1.88
-2.15
-2.50
-2.94
-3.45
-3.96
-4.37
-4.63
-4.76
-4.83
-4.95
-5.15
-5.43
-5.77
-6.19
-6.75
-7.51
-8.41
-9.21
-9.56
-9.10
-7.74
-5.64
-3.19
-0.77
1.36
3.19
4.81
6.28
7.52
8.35
8.62
8.32
7.61
6.75
5.99
5.41
4.98
4.63
4.31
4.06
3.94
3.96
4.09
4.23
4.31
4.27
4.11
3.84
3.44
2.90
2.24
1.55
0.91
0.45
0.16
-0.02
-0.22
-0.53
-0.96
-1.45
-1.87
-2.20
-2.46
-2.76
-3.24
-3.97
-4.95
-6.10
-7.30
-8.43
-9.42
-10.17
-10.51
-10.30
-9.39
-7.83
-5.83
-3.79
-2.10
-1.03
-0.57
-0.49
-0.48
-0.29
0.16
0.76
1.39
1.97
2.54
3.11
3.69
4.17
4.51
4.71
4.94
5.40
6.16
7.12
7.94
8.25
7.78
6.50
4.64
2.53
0.53
-1.06
-2.05
-2.37
-2.08
-1.41
-0.67
-0.20
-0.21
-0.68
-1.38
-1.99
-2.22
-1.95
-1.24
-0.28
0.72
1.61
2.31
2.80
3.06
3.02
2.65
1.92
0.93
-0.05
-0.69
-0.59
0.49
2.53
5.21
7.99
10.26
11.56
11.77
11.06
9.80
8.43
7.26
6.53
6.36
6.83
7.88
9.28
10.59
11.20
10.59
8.52
5.17
1.16
-2.72
-5.76
-7.58
-8.23
-8.13
-7.82
-7.83
-8.39
-9.47
-10.77
-11.89
-12.51
-12.54
-12.09
-11.42
-10.75
-10.21
-9.77
-9.33
-8.83
-8.31
-7.91
-7.81
-8.15
-9.00
-10.35
-12.14
-14.25
-16.50
-18.52
-19.86
-20.01
-18.67
-15.87
-12.10
-8.19
-5.03
-3.29
-3.08
-3.99
-5.24
-6.04
-5.94
-4.93
-3.41
-1.88
-0.67
0.19
0.97
2.01
3.55
5.59
7.93
10.27
12.40
14.24
15.81
17.13
18.17
18.83
19.06
18.87
18.49
18.25
18.53
19.54
21.22
23.21
24.94
25.94
25.93
25.07
23.80
22.71
22.18
22.16
22.18
21.50
19.49
15.87
10.97
5.62
0.92
-2.03
-2.53
-0.47
3.53
8.16
11.70
12.45
9.24
1.85
-8.88
-21.33
-33.65
-44.29
-52.29
-57.30
-59.29
-58.31
-54.45
-47.96
-39.41
-29.62
-19.49
-9.81
-1.21
5.82
10.93
13.89
14.85
14.37
13.33
12.57
12.58
13.32
14.34
15.07
15.16
14.54
13.24
11.28
8.63
5.36
1.86
-1.14
-2.86
-2.70
-0.55
3.20
7.89
12.87
17.68
22.17
26.32
30.18
33.73
36.87
39.33
40.64
40.14
37.06
30.88
21.63
10.08
-2.41
-14.26
-24.31
-32.08
-37.86
-42.28
-45.91
-48.91
-50.96
-51.50
-49.97
-45.97
-39.46
-30.74
-20.50
-9.69
0.56
9.24
15.61
19.36
20.56
19.65
17.31
14.29
11.26
8.59
6.25
3.93
1.27
-1.82
-5.09
-8.02
-10.08
-11.01
-10.95
-10.34
-9.72
-9.59
-10.18
-11.53
-13.43
-15.44
-16.96
-17.38
-16.23
-13.42
-9.33
-4.66
-0.19
3.44
5.97
7.53
8.55
9.64
11.29
13.77
16.95
20.38
23.38
25.36
26.00
25.43
24.16
22.91
22.23
22.25
22.56
22.30
20.61
16.97
11.51
4.93
-1.72
-7.44
-11.65
-14.23
-15.47
-15.79
-15.49
-14.71
-13.49
-11.93
-10.32
-9.05
-8.36
-8.22
-8.32
-8.34
-8.26
-8.51
-9.79
-12.62
-16.98
-22.17
-27.02
-30.35
-31.42
-30.18
-27.12
-23.04
-18.74
-14.75
-11.30
-8.30
-5.47
-2.46
1.05
5.11
9.57
14.10
18.31
21.86
24.56
26.30
27.04
26.80
25.70
24.02
22.20
20.67
19.74
19.42
19.41
19.19
18.26
16.39
13.72
10.71
7.88
5.57
3.77
2.11
0.04
-2.80
-6.38
-10.18
-13.40
-15.28
-15.42
-14.02
-11.74
-9.47
-7.92
-7.49
-8.18
-9.76
-11.97
-14.58
-17.32
-19.83
-21.65
-22.39
-21.91
-20.39
-18.24
-15.89
-13.60
-11.40
-9.22
-7.03
-4.89
-3.01
-1.55
-0.62
-0.24
-0.40
-1.04
-1.93
-2.65
-2.62
-1.31
1.51
5.57
10.23
14.68
18.28
20.76
22.18
22.78
22.82
22.48
21.87
21.18
20.61
20.26
20.04
19.59
18.44
16.23
13.00
9.26
5.78
3.26
2.00
1.75
1.85
1.52
0.31
-1.82
-4.39
-6.77
-8.41
-9.14
-9.21
-9.05
-9.05
-9.34
-9.71
-9.81
-9.47
-8.82
-8.18
-7.90
-8.03
-8.40
-8.78
-9.19
-9.98
-11.68
-14.60
-18.54
-22.78
-26.33
-28.33
-28.32
-26.36
-22.86
-18.48
-13.90
-9.75
-6.56
-4.52
-3.52
-3.05
-2.43
-1.09
1.29
4.64
8.64
12.89
16.99
20.65
23.62
25.79
27.22
28.14
28.91
29.82
30.94
31.97
32.39
31.64
29.48
26.08
22.02
18.09
15.03
13.30
12.98
13.74
14.96
15.89
15.88
14.67
12.44
9.78
7.33
5.47
4.12
2.85
1.17
-1.16
-4.10
-7.42
-11.03
-15.05
-19.80
-25.50
-32.15
-39.44
-46.88
-54.04
-60.55
-66.08
-70.15
-72.05
-70.96
-66.26
-57.75
-45.91
-31.84
-17.08
-3.27
8.21
16.58
21.84
24.68
26.20
27.51
29.28
31.70
34.44
37.05
39.20
40.89
42.33
43.76
45.29
46.90
48.55
50.21
51.88
53.42
54.44
54.39
52.84
49.73
45.56
41.23
37.62
35.22
33.80
32.51
30.20
25.84
18.85
9.28
-2.23
-14.69
-26.99
-38.16
-47.63
-55.18
-60.96
-65.23
-68.26
-70.22
-71.17
-71.21
-70.48
-69.11
-67.18
-64.63
-61.40
-57.56
-53.48
-49.70
-46.78
-44.86
-43.46
-41.56
-37.93
-31.76
-22.97
-12.33
-1.12
9.34
18.08
24.75
29.41
32.45
34.33
35.53
36.50
37.62
39.16
41.13
43.34
45.42
47.07
48.10
48.57
48.70
48.76
49.01
49.55
50.21
50.45
49.46
46.28
40.17
30.94
19.09
5.82
-7.39
-19.16
-28.59
-35.42
-39.86
-42.39
-43.45
-43.36
-42.25
-40.25
-37.46
-34.07
-30.34
-26.54
-22.93
-19.65
-16.75
-14.13
-11.69
-9.38
-7.22
-5.38
-4.09
-3.56
-3.85
-4.88
-6.38
-8.08
-9.76
-11.35
-12.99
-14.79
-16.75
-18.61
-19.84
-19.78
-17.87
-13.89
-7.98
-0.58
7.75
16.49
25.03
32.68
38.49
41.52
41.16
37.50
31.39
24.23
17.37
11.59
6.93
2.87
-1.17
-5.41
-9.48
-12.66
-14.31
-14.14
-12.25
-8.97
-4.59
0.65
6.32
11.68
15.67
17.29
16.12
12.51
7.47
2.14
-2.74
-7.06
-11.15
-15.37
-19.72
-23.78
-26.96
-28.77
-29.03
-27.85
-25.52
-22.37
-18.70
-14.77
-10.76
-6.76
-2.75
1.26
5.04
8.17
10.07
10.32
8.89
6.27
3.43
1.51
1.56
4.18
9.47
16.91
25.59
34.39
42.23
48.32
52.32
54.26
54.42
53.05
50.23
45.96
40.27
33.50
26.40
19.90
14.83
11.58
10.09
10.01
10.93
12.43
13.91
14.57
13.55
10.43
5.69
0.74
-2.71
-3.51
-1.55
2.33
7.05
11.91
16.74
21.31
24.73
25.34
21.41
12.25
-1.06
-15.86
-29.07
-38.43
-43.38
-44.81
-44.22
-42.78
-40.81
-38.03
-34.02
-28.78
-22.91
-17.47
-13.62
-12.13
-13.08
-15.81
-19.07
-21.51
-22.08
-20.39
-16.65
-11.60
-6.14
-1.08
3.06
6.09
8.18
9.69
11.00
12.35
13.67
14.61
14.67
13.48
10.92
7.17
2.55
-2.62
-8.10
-13.73
-19.36
-24.88
-30.25
-35.51
-40.71
-45.58
-49.41
-50.95
-48.77
-41.91
-30.60
-16.40
-1.78
10.90
20.41
26.88
31.35
34.69
36.73
36.31
32.06
23.70
12.68
1.81
-5.96
-9.02
-7.79
-4.33
-1.10
0.29
-0.29
-1.84
-3.11
-3.46
-3.15
-2.97
-3.49
-4.50
-5.01
-3.76
0.07
6.31
13.81
20.97
26.47
29.69
30.84
30.60
29.71
28.68
27.76
27.06
26.71
26.84
27.48
28.44
29.35
29.81
29.63
28.90
27.96
27.09
26.28
25.08
22.76
18.74
12.95
6.14
-0.32
-4.92
-6.50
-4.71
0.02
6.69
14.06
20.83
25.74
27.65
25.73
19.78
10.50
-0.57
-11.45
-20.46
-26.72
-30.35
-32.22
-33.37
-34.57
-36.08
-37.86
-39.75
-41.70
-43.64
-45.39
-46.53
-46.48
-44.80
-41.48
-37.01
-32.27
-28.11
-25.05
-23.10
-21.88
-20.84
-19.55
-17.81
-15.71
-13.50
-11.55
-10.19
-9.66
-9.94
-10.75
-11.60
-12.04
-11.91
-11.35
-10.78
-10.56
-10.88
-11.57
-12.36
-12.89
-12.67
-11.05
-7.12
-0.07
10.34
23.39
37.23
49.36
57.38
59.84
56.65
49.16
39.48
29.88
22.00
16.61
13.52
11.88
10.57
8.62
5.59
1.61
-2.66
-6.30
-8.57
-9.13
-8.30
-6.95
-6.29
-7.43
-11.03
-16.90
-23.99
-30.56
-34.76
-35.36
-32.33
-26.96
-21.47
-18.15
-18.39
-22.05
-27.24
-30.83
-29.53
-21.11
-5.53
14.69
34.99
50.16
56.16
51.56
38.04
19.64
1.15
-13.67
-23.13
-27.56
-28.51
-27.62
-25.94
-23.82
-21.32
-18.56
-15.90
-13.80
-12.43
-11.58
-10.77
-9.61
-8.11
-6.65
-5.73
-5.55
-5.68
-5.16
-2.91
1.70
8.41
16.07
22.96
27.50
28.76
26.90
23.08
19.02
16.32
15.92
17.70
20.66
23.32
24.36
23.07
19.45
14.05
7.63
0.87
-5.60
-11.24
-15.48
-17.85
-18.19
-16.86
-14.76
-13.05
-12.70
-14.03
-16.52
-19.08
-20.53
-20.24
-18.42
-16.08
-14.60
-15.16
-18.24
-23.50
-29.96
-36.33
-41.18
-42.93
-39.93
-30.85
-15.32
5.37
28.17
49.07
64.37
72.03
72.08
66.17
56.35
44.11
30.17
15.02
-0.33
-14.08
-24.16
-29.22
-29.40
-26.29
-22.14
-18.73
-16.73
-15.59
-14.22
-11.75
-8.17
-4.26
-1.25
-0.17
-1.50
-4.90
-9.21
-12.53
-12.50
-7.00
4.97
22.49
42.55
61.04
74.22
80.27
79.76
74.96
68.29
61.05
53.15
43.81
32.87
21.42
11.45
4.79
1.91
1.75
2.36
2.12
0.61
-1.31
-2.15
-0.76
2.87
7.52
11.25
12.14
9.18
2.54
-6.51
-16.27
-25.25
-32.56
-37.90
-41.11
-41.70
-38.89
-32.04
-21.37
-8.46
4.00
13.14
17.08
15.69
10.39
3.30
-3.89
-10.58
-17.14
-24.24
-32.09
-40.18
-47.50
-53.11
-56.61
-58.14
-58.10
-56.80
-54.36
-50.78
-46.23
-41.22
-36.42
-32.29
-28.65
-24.62
-18.80
-10.01
2.13
16.79
32.09
45.81
56.07
61.95
63.51
61.37
56.20
48.36
38.00
25.42
11.47
-2.41
-14.62
-23.97
-30.17
-33.81
-36.00
-37.65
-39.10
-40.03
-39.79
-37.96
-34.70
-30.72
-26.74
-22.98
-18.76
-12.79
-3.90
8.14
22.17
35.97
47.17
54.25
57.05
56.51
53.85
49.64
43.58
34.90
23.19
9.07
-5.70
-18.85
-28.52
-33.88
-35.33
-34.07
-31.50
-28.63
-25.94
-23.52
-21.28
-19.16
-17.04
-14.64
-11.33
-6.32
0.96
10.37
20.84
30.64
37.91
41.47
41.17
37.86
32.82
27.15
21.35
15.36
9.00
2.33
-4.20
-9.99
-14.57
-17.95
-20.44
-22.55
-24.55
-26.36
-27.67
-28.18
-27.90
-27.24
-26.82
-27.03
-27.70
-27.95
-26.58
-22.67
-16.19
-8.20
-0.41
5.53
8.85
9.94
9.96
10.11
10.91
11.97
12.31
10.96
7.63
2.82
-2.40
-6.92
-9.98
-11.35
-11.23
-9.97
-7.86
-5.10
-1.94
1.27
4.00
5.73
6.14
5.34
3.89
2.59
2.21
3.15
5.40
8.61
12.43
16.79
21.98
28.58
37.04
47.19
58.01
67.61
73.82
74.90
70.16
60.26
46.91
32.29
18.30
6.20
-3.49
-10.71
-15.61
-18.30
-18.90
-17.65
-15.03
-11.76
-8.61
-6.25
-4.99
-4.79
-5.28
-6.00
-6.54
-6.56
-5.83
-4.11
-1.23
2.95
8.30
14.36
20.36
25.41
28.80
30.23
29.84
28.10
25.60
22.81
19.93
16.94
13.63
9.75
5.12
-0.30
-6.38
-12.84
-19.30
-25.36
-30.69
-35.14
-38.71
-41.61
-44.10
-46.34
-48.18
-48.95
-47.62
-43.10
-34.89
-23.50
-10.61
1.47
10.66
15.94
17.72
17.37
16.52
16.18
16.42
16.67
16.34
15.34
14.15
13.44
13.59
14.38
15.21
15.44
14.87
13.75
12.54
11.49
10.44
8.81
6.00
1.75
-3.71
-9.67
-15.25
-19.68
-22.40
-23.17
-21.93
-18.90
-14.47
-9.22
-3.85
0.99
4.79
7.28
8.40
8.26
7.07
5.13
2.83
0.57
-1.24
-2.35
-2.63
-2.11
-0.93
0.71
2.63
4.66
6.67
8.57
10.25
11.57
12.27
12.06
10.64
7.90
3.98
-0.69
-5.48
-9.73
-12.90
-14.70
-15.00
-13.85
-11.41
-7.89
-3.70
0.59
4.33
6.92
7.95
7.36
5.42
2.62
-0.41
-3.07
-4.95
-5.87
-5.94
-5.49
-4.94
-4.69
-4.97
-5.82
-7.18
-8.93
-11.01
-13.37
-15.97
-18.73
-21.53
-24.29
-26.92
-29.30
-31.19
-32.22
-31.96
-30.16
-26.86
-22.47
-17.69
-13.24
-9.64
-7.06
-5.39
-4.34
-3.61
-2.98
-2.42
-2.00
-1.87
-2.13
-2.74
-3.47
-3.95
-3.77
-2.64
-0.37
3.09
7.70
13.42
20.09
27.41
34.90
41.92
47.81
52.06
54.40
54.82
53.50
50.71
46.75
41.95
36.69
31.41
26.59
22.69
20.07
18.86
18.93
19.91
21.26
22.45
23.12
23.14
22.56
21.50
19.92
17.60
14.22
9.54
3.60
-3.17
-10.09
-16.45
-21.80
-26.04
-29.41
-32.24
-34.77
-37.08
-39.18
-41.06
-42.80
-44.51
-46.18
-47.61
-48.43
-48.25
-46.77
-44.01
-40.22
-35.81
-31.23
-26.88
-23.04
-19.85
-17.31
-15.23
-13.31
-11.31
-9.03
-6.53
-3.98
-1.63
0.28
1.68
2.76
3.95
5.88
9.09
13.70
19.21
24.55
28.36
29.59
27.89
23.76
18.25
12.44
7.07
2.40
-1.57
-4.83
-7.27
-8.73
-9.25
-9.18
-9.02
-9.25
-9.98
-11.04
-12.05
-12.71
-12.92
-12.76
-12.42
-12.04
-11.72
-11.43
-11.11
-10.63
-9.85
-8.65
-7.07
-5.32
-3.83
-3.02
-3.04
-3.62
-4.01
-3.28
-0.60
4.31
11.08
18.77
26.20
32.34
36.56
38.78
39.26
38.45
36.75
34.45
31.72
28.71
25.57
22.40
19.27
16.16
13.04
9.91
6.89
4.17
1.97
0.37
-0.65
-1.21
-1.41
-1.31
-0.91
-0.25
0.52
1.12
1.30
0.90
-0.04
-1.39
-3.02
-4.91
-7.13
-9.70
-12.46
-15.01
-16.82
-17.54
-17.08
-15.76
-14.07
-12.42
-11.03
-9.88
-8.89
-8.03
-7.46
-7.32
-7.71
-8.48
-9.32
-9.89
-9.98
-9.61
-8.95
-8.23
-7.64
-7.30
-7.23
-7.44
-7.90
-8.52
-9.15
-9.59
-9.73
-9.59
-9.35
-9.26
-9.53
-10.25
-11.31
-12.49
-13.50
-14.06
-13.97
-13.19
-11.79
-9.97
-8.02
-6.16
-4.51
-3.01
-1.57
-0.07
1.44
2.79
3.75
4.18
4.07
3.56
2.88
2.20
1.57
1.02
0.51
0.12
-0.08
0.00
0.29
0.62
0.74
0.46
-0.25
-1.24
-2.25
-3.08
-3.62
-3.94
-4.20
-4.58
-5.16
-5.94
-6.79
-7.53
-7.94
-7.84
-7.14
-5.90
-4.31
-2.55
-0.80
0.92
2.61
4.26
5.79
7.03
7.85
8.20
8.16
7.85
7.43
6.94
6.41
5.84
5.26
4.74
4.37
4.18
4.10
4.06
3.90
3.53
2.94
2.16
1.30
0.44
-0.37
-1.14
-1.92
-2.76
-3.64
-4.50
-5.29
-6.04
-6.85
-7.84
-9.06
-10.50
-12.07
-13.73
-15.49
-17.33
-19.07
-20.37
-20.71
-19.68
-17.14
-13.35
-8.86
-4.34
-0.23
3.33
6.47
9.41
12.26
14.96
17.33
19.16
20.35
20.93
21.00
20.65
19.96
18.98
17.75
16.40
15.05
13.84
12.85
12.11
11.58
11.19
10.90
10.65
10.33
9.83
9.04
7.97
6.75
5.60
4.70
4.12
3.73
3.32
2.71
1.83
0.78
-0.27
-1.17
-1.87
-2.40
-2.90
-3.46
-4.17
-5.09
-6.22
-7.52
-8.82
-9.91
-10.50
-10.35
-9.36
-7.57
-5.22
-2.64
-0.12
2.16
4.15
5.88
7.36
8.53
9.31
9.67
9.67
9.48
9.32
9.28
9.32
9.31
9.11
8.69
8.14
7.61
7.24
7.03
6.93
6.79
6.51
6.06
5.45
4.74
3.99
3.24
2.53
1.89
1.33
0.91
0.63
0.47
0.33
0.07
-0.47
-1.35
-2.50
-3.69
-4.69
-5.30
-5.54
-5.58
-5.70
-6.16
-7.09
-8.42
-9.98
-11.56
-12.94
-13.93
-14.31
-13.86
-12.43
-10.02
-6.87
-3.44
-0.26
2.24
3.90
4.86
5.43
5.94
6.59
7.34
8.02
8.44
8.55
8.42
8.23
8.15
8.20
8.29
8.24
7.94
7.44
6.97
6.73
6.80
7.04
7.18
6.99
6.41
5.61
4.86
4.38
4.22
4.25
4.22
3.90
3.18
2.08
0.73
-0.69
-2.03
-3.20
-4.14
-4.89
-5.48
-5.95
-6.38
-6.84
-7.44
-8.25
-9.31
-10.48
-11.48
-11.97
-11.60
-10.23
-7.95
-5.09
-2.04
0.80
3.21
5.08
6.45
7.35
7.84
8.02
7.99
7.90
7.89
8.02
8.30
8.65
8.96
9.10
8.94
8.40
7.52
6.44
5.43
4.74
4.47
4.50
4.53
4.28
3.65
2.76
1.92
1.33
1.03
0.83
0.52
-0.06
-0.89
-1.80
-2.66
-3.44
-4.17
-4.99
-5.96
-7.07
-8.25
-9.45
-10.68
-11.95
-13.28
-14.55
-15.54
-15.95
-15.50
-14.10
-11.85
-9.04
-6.05
-3.21
-0.75
1.25
2.82
4.05
5.06
5.90
6.56
7.01
7.23
7.26
7.18
7.13
7.16
7.25
7.30
7.15
6.78
6.28
5.85
5.67
5.82
6.16
6.43
6.39
5.95
5.20
4.35
3.59
3.00
2.53
2.04
1.43
0.69
-0.15
-1.03
-1.95
-2.92
-3.97
-5.03
-5.98
-6.70
-7.15
-7.42
-7.70
-8.25
-9.18
-10.56
-12.24
-14.00
-15.52
-16.45
-16.54
-15.60
-13.69
-11.04
-8.02
-5.07
-2.48
-0.38
1.28
2.64
3.84
4.92
5.87
6.62
7.17
7.53
7.77
7.94
8.05
8.08
8.01
7.82
7.55
7.30
7.12
7.06
7.10
7.20
7.28
7.25
7.06
6.67
6.07
5.29
4.37
3.35
2.31
1.33
0.48
-0.20
-0.71
-1.10
-1.46
-1.87
-2.41
-3.13
-4.08
-5.24
-6.60
-8.07
-9.53
-10.89
-12.05
-13.04
-13.96
-14.96
-16.09
-17.26
-18.18
-18.45
-17.75
-15.98
-13.31
-10.16
-6.96
-4.06
-1.61
0.36
1.97
3.32
4.52
5.65
6.73
7.76
8.67
9.39
9.85
10.07
10.12
10.06
9.96
9.83
9.67
9.49
9.40
9.45
9.70
10.09
10.47
10.68
10.58
10.13
9.42
8.55
7.63
6.69
5.72
4.69
3.58
2.41
1.21
-0.04
-1.33
-2.68
-4.02
-5.27
-6.36
-7.29
-8.16
-9.09
-10.23
-11.63
-13.29
-15.17
-17.19
-19.25
-21.12
-22.43
-22.76
-21.84
-19.67
-16.60
-13.17
-9.94
-7.21
-5.01
-3.09
-1.16
0.93
3.17
5.33
7.12
8.37
9.05
9.35
9.52
9.77
10.12
10.47
10.66
10.61
10.40
10.21
10.18
10.29
10.38
10.21
9.62
8.66
7.54
6.52
5.75
5.20
4.73
4.16
3.36
2.32
1.08
-0.29
-1.75
-3.31
-4.94
-6.62
-8.27
-9.83
-11.30
-12.77
-14.41
-16.32
-18.48
-20.71
-22.65
-23.88
-24.06
-23.00
-20.73
-17.44
-13.49
-9.25
-5.03
-1.06
2.52
5.67
8.33
10.45
11.99
12.94
13.38
13.51
13.52
13.61
13.87
14.26
14.69
15.01
15.16
15.13
15.03
14.96
14.97
15.01
14.89
14.42
13.45
12.05
10.42
8.85
7.55
6.55
5.68
4.74
3.57
2.19
0.67
-0.86
-2.42
-4.09
-5.93
-7.93
-9.96
-11.85
-13.54
-15.10
-16.74
-18.70
-21.09
-23.74
-26.26
-28.10
-28.71
-27.77
-25.26
-21.51
-17.07
-12.50
-8.27
-4.61
-1.53
1.04
3.24
5.21
7.05
8.90
10.83
12.82
14.72
16.35
17.50
18.09
18.18
17.92
17.53
17.12
16.80
16.58
16.50
16.55
16.72
16.92
17.00
16.75
16.02
14.77
13.11
11.27
9.51
8.01
6.80
5.76
4.68
3.35
1.68
-0.31
-2.45
-4.54
-6.41
-8.02
-9.44
-10.85
-12.50
-14.58
-17.22
-20.34
-23.73
-26.98
-29.61
-31.15
-31.24
-29.75
-26.75
-22.59
-17.77
-12.81
-8.15
-4.05
-0.52
2.57
5.43
8.17
10.77
13.06
14.85
16.02
16.62
16.86
16.99
17.24
17.67
18.18
18.65
18.93
19.02
19.01
19.02
19.12
19.27
19.37
19.30
18.97
18.33
17.36
16.09
14.60
13.00
11.41
9.95
8.63
7.39
6.08
4.58
2.84
0.93
-1.04
-2.96
-4.75
-6.42
-8.01
-9.65
-11.49
-13.69
-16.31
-19.23
-22.06
-24.28
-25.36
-25.01
-23.22
-20.33
-16.78
-13.05
-9.41
-5.98
-2.72
0.45
3.54
6.48
9.12
11.33
13.01
14.17
14.89
15.31
15.54
15.69
15.75
15.75
15.64
15.45
15.19
14.88
14.60
14.36
14.17
13.96
13.63
13.09
12.27
11.24
10.13
9.09
8.18
7.32
6.34
5.09
3.53
1.79
0.05
-1.56
-3.04
-4.49
-6.07
-7.86
-9.86
-12.03
-14.32
-16.68
-19.03
-21.15
-22.71
-23.35
-22.79
-21.02
-18.23
-14.76
-10.99
-7.21
-3.56
-0.06
3.32
6.59
9.70
12.50
14.79
16.41
17.28
17.51
17.31
16.95
16.65
16.50
16.46
16.48
16.47
16.45
16.41
16.31
16.07
15.56
14.75
13.66
12.41
11.14
9.97
8.91
7.95
7.02
6.05
5.00
3.83
2.56
1.20
-0.21
-1.62
-3.03
-4.42
-5.81
-7.21
-8.64
-10.13
-11.68
-13.35
-15.17
-17.22
-19.45
-21.74
-23.79
-25.25
-25.69
-24.85
-22.73
-19.55
-15.75
-11.79
-8.01
-4.53
-1.33
1.67
4.52
7.19
9.59
11.70
13.46
14.91
16.03
16.82
17.24
17.31
17.11
16.81
16.59
16.55
16.73
17.01
17.23
17.21
16.87
16.21
15.39
14.53
13.74
13.03
12.30
11.44
10.41
9.26
8.09
6.99
5.99
4.99
3.82
2.38
0.65
-1.21
-2.93
-4.31
-5.27
-5.89
-6.40
-7.11
-8.27
-10.01
-12.29
-14.86
-17.34
-19.26
-20.21
-19.95
-18.50
-16.11
-13.19
-10.13
-7.18
-4.42
-1.79
0.80
3.33
5.72
7.81
9.49
10.71
11.52
12.02
12.31
12.44
12.48
12.51
12.55
12.61
12.60
12.41
11.95
11.21
10.25
9.19
8.11
7.06
6.04
5.09
4.28
3.67
3.25
2.93
2.48
1.71
0.51
-1.05
-2.71
-4.23
-5.42
-6.24
-6.77
-7.22
-7.79
-8.64
-9.88
-11.48
-13.36
-15.28
-16.88
-17.78
-17.62
-16.27
-13.89
-10.86
-7.67
-4.75
-2.31
-0.33
1.33
2.84
4.29
5.71
7.03
8.19
9.14
9.88
10.41
10.74
10.85
10.73
10.39
9.88
9.26
8.68
8.24
8.03
7.97
7.92
7.68
7.13
6.29
5.30
4.36
3.59
3.02
2.54
2.01
1.28
0.31
-0.87
-2.18
-3.49
-4.70
-5.71
-6.46
-6.99
-7.41
-7.92
-8.68
-9.78
-11.22
-12.85
-14.49
-15.88
-16.75
-16.84
-15.99
-14.22
-11.76
-8.98
-6.27
-3.92
-2.03
-0.49
0.85
2.15
3.46
4.75
5.94
6.95
7.75
8.30
8.63
8.73
8.62
8.36
8.02
7.74
7.65
7.81
8.18
8.59
8.78
8.53
7.80
6.71
5.58
4.70
4.19
3.96
3.79
3.46
2.91
2.25
1.68
1.35
1.26
1.26
1.19
0.93
0.52
0.08
-0.30
-0.62
-1.00
-1.57
-2.45
-3.61
-4.96
-6.41
-7.93
-9.53
-11.24
-12.96
-14.49
-15.53
-15.85
-15.37
-14.17
-12.48
-10.54
-8.53
-6.54
-4.60
-2.73
-0.98
0.59
1.91
2.96
3.77
4.36
4.74
4.93
4.94
4.87
4.83
4.91
5.16
5.47
5.70
5.74
5.56
5.27
4.98
4.80
4.71
4.66
4.57
4.43
4.29
4.22
4.22
4.18
3.97
3.41
2.49
1.30
0.02
-1.14
-2.05
-2.69
-3.11
-3.49
-3.96
-4.67
-5.68
-6.95
-8.36
-9.78
-11.02
-11.99
-12.60
-12.77
-12.45
-11.59
-10.19
-8.35
-6.25
-4.16
-2.34
-0.95
-0.00
0.59
1.01
1.45
2.02
2.73
3.45
4.03
4.35
4.40
4.27
4.11
4.04
4.06
4.14
4.21
4.23
4.21
4.13
4.01
3.82
3.52
3.10
2.58
1.99
1.36
0.71
0.02
-0.70
-1.51
-2.42
-3.43
-4.48
-5.48
-6.31
-6.87
-7.22
-7.49
-7.96
-8.78
-9.94
-11.20
-12.20
-12.56
-12.09
-10.82
-8.98
-6.86
-4.75
-2.87
-1.29
-0.01
1.00
1.85
2.57
3.23
3.85
4.42
4.90
5.26
5.48
5.56
5.56
5.52
5.53
5.64
5.84
6.07
6.24
6.24
6.01
5.58
5.05
4.48
3.94
3.39
2.81
2.19
1.59
1.06
0.65
0.31
-0.02
-0.46
-1.06
-1.84
-2.74
-3.67
-4.52
-5.19
-5.64
-5.89
-6.05
-6.32
-6.85
-7.76
-9.02
-10.42
-11.67
-12.44
-12.51
-11.82
-10.49
-8.77
-6.93
-5.16
-3.55
-2.09
-0.71
0.62
1.89
3.01
3.90
4.55
4.98
5.25
5.39
5.40
5.26
4.99
4.64
4.27
3.99
3.83
3.78
3.78
3.72
3.55
3.24
2.81
2.33
1.87
1.49
1.21
1.02
0.88
0.72
0.48
0.16
-0.22
-0.55
-0.78
-0.89
-0.96
-1.09
-1.40
-1.91
-2.58
-3.37
-4.21
-5.12
-6.09
-7.13
-8.17
-9.13
-9.95
-10.61
-11.11
-11.39
-11.34
-10.84
-9.85
-8.40
-6.71
-5.01
-3.52
-2.34
-1.45
-0.76
-0.21
0.24
0.55
0.66
0.51
0.12
-0.38
-0.84
-1.10
-1.16
-1.12
-1.18
-1.55
-2.28
-3.32
-4.51
-5.67
-6.72
-7.73
-8.87
-10.34
-12.25
-14.54
-17.05
-19.53
-21.80
-23.82
-25.69
-27.58
-29.68
-32.08
-34.70
-37.33
-39.69
-41.64
-43.17
-44.50
-46.06
-48.24
-51.31
-55.18
-59.34
-62.89
-64.66
-63.46
-58.37
-48.94
-35.34
-18.37
0.72
20.46
39.42
56.48
70.98
82.73
92.03
99.51
105.94
111.99
117.94
123.53
128.08
130.60
130.26
126.55
119.54
109.78
98.22
85.93
73.92
62.97
53.53
45.72
39.35
34.08
29.52
25.48
21.95
19.10
17.08
15.90
15.34
14.97
14.27
12.80
10.34
6.92
2.78
-1.66
-5.94
-9.61
-12.43
-14.40
-15.88
-17.49
-19.82
-23.07
-26.86
-30.22
-32.00
-31.43
-28.46
-23.90
-18.98
-14.86
-12.11
-10.64
-9.89
-9.33
-8.69
-8.05
-7.57
-7.25
-6.80
-5.81
-3.99
-1.37
1.68
4.60
6.87
8.15
8.23
7.14
5.02
2.29
-0.49
-2.67
-3.78
-3.79
-3.07
-2.22
-1.76
-1.89
-2.52
-3.43
-4.56
-6.10
-8.42
-11.73
-15.91
-20.41
-24.44
-27.23
-28.32
-27.71
-25.80
-23.28
-20.89
-19.24
-18.62
-18.99
-20.01
-21.18
-22.03
-22.23
-21.61
-20.20
-18.14
-15.69
-13.08
-10.59
-8.36
-6.51
-5.04
-3.92
-3.14
-2.65
-2.42
-2.42
-2.60
-2.95
-3.50
-4.37
-5.60
-7.16
-8.79
-10.14
-10.89
-10.87
-10.15
-8.97
-7.70
-6.66
-6.08
-6.19
-7.09
-8.85
-11.40
-14.57
-18.05
-21.50
-24.53
-26.78
-27.94
-27.72
-25.88
-22.32
-17.12
-10.61
-3.44
3.58
9.58
13.85
16.04
16.22
14.93
12.99
11.34
10.71
11.41
13.24
15.52
17.38
17.99
16.94
14.31
10.53
6.22
1.97
-1.81
-4.87
-7.08
-8.47
-9.24
-9.81
-10.66
-12.07
-13.90
-15.49
-15.88
-14.27
-10.53
-5.38
-0.23
3.34
4.26
2.34
-1.70
-6.61
-11.18
-14.65
-16.92
-18.35
-19.41
-20.35
-21.00
-20.96
-19.81
-17.55
-14.62
-11.83
-9.95
-9.43
-10.17
-11.57
-12.81
-13.07
-11.74
-8.48
-3.38
2.96
9.42
14.54
16.93
15.71
10.95
3.60
-4.83
-12.87
-19.50
-24.36
-27.62
-29.73
-31.14
-32.14
-32.87
-33.26
-33.12
-32.20
-30.32
-27.45
-23.73
-19.49
-15.02
-10.64
-6.53
-2.87
0.17
2.42
3.71
3.94
3.13
1.50
-0.56
-2.41
-3.35
-2.82
-0.69
2.56
6.07
8.87
10.49
11.13
11.63
12.88
15.26
18.35
21.06
22.27
21.35
18.59
15.01
11.82
9.83
9.20
9.50
10.09
10.53
10.73
10.89
11.33
12.28
13.88
16.14
18.88
21.66
23.71
24.11
22.03
17.18
10.01
1.79
-5.90
-11.60
-14.47
-14.44
-12.05
-8.25
-4.13
-0.77
0.86
0.04
-3.51
-9.48
-16.95
-24.62
-31.11
-35.32
-36.68
-35.20
-31.29
-25.53
-18.44
-10.37
-1.55
7.81
17.34
26.49
34.57
40.98
45.33
47.51
47.67
46.11
43.32
39.94
36.85
34.86
34.49
35.65
37.65
39.61
41.12
42.55
44.87
48.85
54.20
59.32
61.80
59.53
51.69
39.09
23.75
8.03
-6.14
-17.53
-25.50
-29.73
-30.20
-27.36
-22.28
-16.63
-12.18
-10.25
-11.28
-14.78
-19.65
-24.54
-28.16
-29.45
-27.69
-22.64
-14.64
-4.66
5.84
15.24
22.01
25.01
23.57
17.67
7.86
-4.71
-18.40
-31.36
-41.81
-48.46
-50.76
-48.96
-44.02
-37.24
-30.03
-23.67
-19.04
-16.63
-16.39
-17.98
-20.85
-24.54
-28.60
-32.45
-35.01
-34.62
-29.52
-18.61
-2.35
17.00
35.91
50.96
60.05
63.00
61.06
55.76
47.96
37.64
24.62
9.49
-5.98
-19.43
-29.05
-34.64
-37.74
-40.80
-46.03
-54.35
-65.29
-77.42
-89.19
-99.52
-107.92
-114.15
-117.71
-117.50
-111.93
-99.46
-79.38
-52.54
-21.43
10.36
39.19
62.47
79.18
89.82
95.71
98.18
98.14
96.06
92.33
87.56
82.63
78.28
74.67
71.18
66.48
59.15
48.30
34.08
17.70
1.02
-14.14
-26.64
-36.19
-43.22
-48.41
-52.29
-55.04
-56.66
-57.19
-56.90
-56.28
-55.78
-55.59
-55.40
-54.44
-51.68
-46.28
-37.98
-27.26
-15.26
-3.34
7.42
16.44
23.60
28.92
32.13
32.64
29.77
23.25
13.61
2.22
-9.17
-18.86
-25.72
-29.28
-29.54
-26.77
-21.28
-13.40
-3.61
7.33
18.41
28.36
36.00
40.47
41.54
39.72
36.08
31.99
28.60
26.65
26.36
27.50
29.69
32.50
35.47
38.00
39.39
38.93
36.15
31.04
24.15
16.37
8.67
1.76
-4.02
-8.65
-12.31
-15.18
-17.39
-19.05
-20.33
-21.47
-22.80
-24.58
-26.96
-29.79
-32.71
-35.05
-36.00
-34.73
-30.73
-24.08
-15.63
-6.89
0.45
5.08
6.59
5.53
3.06
0.30
-2.18
-4.44
-6.93
-9.99
-13.48
-16.89
-19.57
-21.14
-21.51
-20.74
-18.73
-15.04
-9.16
-0.94
9.06
19.48
28.58
34.95
38.10
38.70
38.23
38.31
40.01
43.48
48.04
52.63
56.33
58.73
59.92
60.25
60.04
59.22
57.33
53.66
47.54
38.68
27.34
14.34
0.85
-11.89
-22.91
-31.58
-37.67
-41.23
-42.49
-41.94
-40.30
-38.49
-37.38
-37.50
-38.85
-40.81
-42.51
-43.17
-42.50
-40.76
-38.60
-36.71
-35.45
-34.82
-34.57
-34.52
-34.69
-35.31
-36.67
-38.79
-41.36
-43.61
-44.61
-43.44
-39.39
-32.08
-21.56
-8.33
6.60
21.76
35.56
46.56
53.90
57.45
57.85
56.19
53.69
51.47
50.27
50.47
52.10
54.78
57.94
60.89
63.13
64.47
65.08
65.36
65.69
66.36
67.45
68.84
70.14
70.69
69.55
65.77
58.68
48.33
35.49
21.46
7.53
-5.40
-17.05
-27.54
-37.00
-45.30
-51.99
-56.60
-58.91
-59.17
-58.01
-56.12
-54.00
-51.82
-49.52
-47.01
-44.42
-42.12
-40.61
-40.38
-41.64
-44.21
-47.54
-50.86
-53.44
-54.79
-54.78
-53.56
-51.52
-49.15
-47.02
-45.66
-45.41
-46.10
-46.77
-45.76
-41.08
-31.29
-16.27
2.42
21.91
39.09
51.64
58.78
61.14
60.16
57.19
53.11
48.35
43.44
39.33
37.19
37.89
41.20
45.64
49.01
49.37
45.96
39.48
31.69
24.50
19.21
16.22
15.30
16.04
18.14
21.35
25.20
28.87
31.30
31.64
29.57
25.37
19.74
13.41
6.87
0.31
-6.26
-12.81
-19.13
-24.87
-29.61
-33.04
-35.02
-35.61
-35.11
-33.97
-32.70
-31.81
-31.66
-32.42
-34.05
-36.33
-38.93
-41.40
-43.23
-43.78
-42.43
-38.79
-32.89
-25.42
-17.49
-10.41
-5.18
-2.24
-1.37
-1.87
-2.98
-4.07
-4.84
-5.18
-5.04
-4.29
-2.77
-0.42
2.65
6.17
9.82
13.36
16.72
19.94
23.08
26.11
28.85
31.04
32.49
33.10
32.92
32.04
30.55
28.58
26.36
24.27
22.82
22.53
23.71
26.31
29.85
33.54
36.42
37.74
37.10
34.64
30.85
26.46
22.08
18.10
14.53
11.11
7.46
3.24
-1.73
-7.47
-13.87
-20.81
-28.19
-35.79
-43.22
-49.78
-54.60
-56.86
-56.08
-52.44
-46.74
-40.27
-34.40
-30.19
-28.22
-28.52
-30.70
-34.16
-38.19
-42.07
-45.12
-46.70
-46.25
-43.31
-37.63
-29.20
-18.32
-5.67
7.82
21.07
33.00
42.82
50.10
54.88
57.55
58.78
59.21
59.28
59.12
58.60
57.50
55.74
53.51
51.24
49.42
48.40
48.17
48.29
47.99
46.26
42.16
35.03
24.73
11.80
-2.59
-16.84
-29.37
-38.92
-44.88
-47.36
-46.98
-44.66
-41.33
-37.78
-34.53
-31.79
-29.55
-27.64
-25.90
-24.33
-23.17
-22.77
-23.49
-25.40
-28.27
-31.61
-34.79
-37.32
-38.84
-39.23
-38.48
-36.64
-33.80
-30.09
-25.66
-20.70
-15.34
-9.62
-3.59
2.72
9.20
15.60
21.57
26.62
30.24
32.01
31.72
29.58
26.33
23.10
21.05
21.03
23.20
27.05
31.63
35.98
39.43
41.76
43.02
43.27
42.43
40.26
36.52
31.20
24.63
17.40
10.23
3.74
-1.67
-5.83
-8.74
-10.55
-11.50
-11.94
-12.29
-13.04
-14.56
-16.99
-20.16
-23.65
-26.87
-29.34
-30.75
-31.13
-30.71
-29.89
-29.06
-28.52
-28.39
-28.63
-29.06
-29.43
-29.47
-29.02
-28.02
-26.50
-24.55
-22.19
-19.45
-16.26
-12.58
-8.44
-3.92
0.87
5.78
10.64
15.22
19.23
22.35
24.38
25.29
25.29
24.72
23.97
23.35
23.06
23.24
24.02
25.54
27.77
30.51
33.33
35.75
37.29
37.59
36.43
33.60
28.91
22.26
13.80
3.98
-6.31
-16.00
-23.95
-29.29
-31.54
-30.78
-27.59
-22.98
-18.18
-14.31
-12.05
-11.46
-12.05
-13.02
-13.61
-13.36
-12.17
-10.17
-7.58
-4.65
-1.67
0.98
2.85
3.65
3.43
2.62
1.93
2.00
3.12
5.10
7.42
9.45
10.74
11.11
10.60
9.38
7.61
5.43
2.92
0.17
-2.74
-5.72
-8.59
-11.13
-13.04
-14.03
-13.90
-12.70
-10.71
-8.50
-6.75
-6.19
-7.33
-10.30
-14.70
-19.55
-23.38
-24.54
-21.70
-14.27
-2.70
11.47
26.04
38.77
47.99
53.07
54.38
52.92
49.72
45.40
40.01
33.32
25.18
15.92
6.31
-2.65
-10.12
-15.75
-19.57
-21.86
-22.86
-22.67
-21.31
-18.88
-15.79
-12.67
-10.34
-9.45
-10.30
-12.68
-15.85
-18.75
-20.20
-19.26
-15.55
-9.42
-1.98
5.21
10.61
13.32
13.37
11.72
9.83
9.00
9.78
11.76
13.83
14.75
13.73
10.71
6.34
1.59
-2.66
-5.82
-7.70
-8.36
-7.97
-6.76
-4.99
-3.01
-1.28
-0.32
-0.61
-2.42
-5.66
-9.84
-14.12
-17.58
-19.47
-19.54
-18.12
-16.00
-14.03
-12.73
-12.00
-11.19
-9.46
-6.20
-1.49
3.90
8.73
11.83
12.63
11.29
8.68
5.87
3.77
2.87
3.20
4.56
6.74
9.57
12.94
16.60
20.11
22.87
24.32
24.13
22.39
19.53
16.18
13.01
10.45
8.68
7.52
6.57
5.26
3.18
0.21
-3.46
-7.37
-10.97
-13.76
-15.41
-15.71
-14.66
-12.53
-9.89
-7.61
-6.53
-7.16
-9.32
-12.21
-14.65
-15.68
-14.95
-12.76
-9.82
-6.83
-4.27
-2.23
-0.70
0.34
0.84
0.73
0.07
-0.97
-2.04
-2.86
-3.22
-3.06
-2.50
-1.64
-0.62
0.54
1.89
3.52
5.43
7.50
9.40
10.68
10.99
10.21
8.51
6.24
3.73
1.11
-1.70
-4.94
-8.65
-12.55
-15.98
-18.10
-18.15
-15.76
-11.05
-4.60
2.69
9.70
15.38
18.88
19.76
18.14
14.68
10.46
6.57
3.86
2.67
2.80
3.73
4.82
5.62
5.91
5.66
4.90
3.67
2.07
0.35
-1.14
-2.07
-2.43
-2.72
-3.77
-6.43
-10.98
-16.82
-22.61
-26.68
-27.79
-25.58
-20.66
-14.37
-8.20
-3.33
-0.33
0.87
0.83
0.38
0.27
0.99
2.68
5.16
8.14
11.32
14.51
17.59
20.37
22.61
24.07
24.62
24.38
23.69
23.02
22.79
23.21
24.17
25.24
25.75
24.95
22.20
17.25
10.32
2.15
-6.24
-13.81
-19.79
-23.82
-25.90
-26.33
-25.50
-23.76
-21.47
-18.94
-16.52
-14.50
-13.11
-12.39
-12.17
-12.20
-12.25
-12.21
-12.16
-12.27
-12.70
-13.39
-14.03
-14.12
-13.25
-11.15
-7.89
-3.83
0.44
4.09
6.25
6.15
3.45
-1.56
-7.85
-13.93
-18.31
-19.98
-18.76
-15.23
-10.42
-5.34
-0.69
3.32
6.79
9.96
13.07
16.24
19.49
22.69
25.69
28.29
30.35
31.76
32.49
32.60
32.19
31.37
30.31
29.18
28.20
27.56
27.38
27.66
28.22
28.66
28.48
27.09
23.95
18.70
11.33
2.20
-7.93
-18.07
-27.23
-34.61
-39.69
-42.31
-42.63
-41.07
-38.23
-34.88
-31.75
-29.42
-28.16
-27.85
-28.01
-28.03
-27.31
-25.48
-22.56
-18.88
-15.03
-11.60
-8.96
-7.14
-5.82
-4.50
-2.73
-0.37
2.34
4.82
6.41
6.50
4.76
1.25
-3.55
-8.76
-13.20
-15.68
-15.30
-11.73
-5.38
2.69
11.08
18.35
23.39
25.57
24.86
21.69
16.89
11.52
6.61
3.00
1.13
1.05
2.44
4.78
7.58
10.42
13.06
15.33
17.17
18.54
19.48
20.08
20.48
20.80
21.11
21.36
21.33
20.73
19.20
16.51
12.66
7.86
2.50
-2.96
-8.10
-12.63
-16.32
-19.04
-20.69
-21.25
-20.76
-19.34
-17.18
-14.51
-11.60
-8.73
-6.18
-4.18
-2.91
-2.42
-2.73
-3.81
-5.63
-8.05
-10.90
-13.85
-16.61
-18.93
-20.70
-21.92
-22.64
-22.88
-22.69
-22.19
-21.63
-21.26
-21.22
-21.33
-21.01
-19.48
-16.01
-10.33
-2.81
5.60
13.69
20.38
25.05
27.63
28.43
27.95
26.68
24.98
23.16
21.48
20.15
19.28
18.80
18.50
18.09
17.39
16.34
15.10
13.93
13.11
12.91
13.47
14.81
16.75
18.98
21.13
22.89
24.08
24.53
24.02
22.19
18.66
13.16
5.80
-2.82
-11.72
-19.75
-26.01
-30.00
-31.79
-31.89
-31.03
-29.90
-28.96
-28.35
-27.88
-27.28
-26.28
-24.85
-23.10
-21.21
-19.27
-17.22
-14.89
-12.16
-9.06
-5.76
-2.52
0.46
3.10
5.29
6.89
7.65
7.36
5.91
3.47
0.36
-3.01
-6.33
-9.44
-12.15
-14.25
-15.29
-14.84
-12.55
-8.45
-2.95
3.27
9.48
15.13
19.87
23.54
25.98
26.97
26.25
23.69
19.51
14.34
9.17
5.05
2.73
2.43
3.81
6.15
8.63
10.67
12.00
12.66
12.80
12.49
11.70
10.31
8.32
5.88
3.36
1.16
-0.48
-1.60
-2.54
-3.78
-5.69
-8.30
-11.31
-14.09
-16.10
-17.05
-17.07
-16.67
-16.47
-16.98
-18.29
-20.17
-22.12
-23.61
-24.27
-23.93
-22.51
-19.96
-16.18
-11.07
-4.67
2.71
10.47
17.76
23.79
28.02
30.38
31.27
31.33
31.22
31.34
31.77
32.17
31.92
30.23
26.42
20.13
11.59
1.62
-8.52
-17.49
-24.34
-28.58
-30.25
-29.62
-27.04
-22.83
-17.46
-11.58
-6.02
-1.57
1.37
2.88
3.41
3.53
3.52
3.43
3.06
2.36
1.47
0.77
0.60
1.09
1.97
2.76
2.97
2.31
0.83
-1.20
-3.42
-5.55
-7.35
-8.64
-9.28
-9.13
-8.21
-6.65
-4.74
-2.75
-0.91
0.69
2.05
3.10
3.76
3.85
3.20
1.76
-0.48
-3.33
-6.58
-9.88
-12.77
-14.64
-14.85
-12.98
-9.00
-3.45
2.76
8.65
13.53
17.15
19.70
21.50
22.85
23.98
25.14
26.66
28.75
31.23
33.30
33.69
31.16
25.11
16.08
5.54
-4.63
-12.89
-18.60
-21.98
-23.78
-24.70
-25.13
-25.08
-24.46
-23.28
-21.66
-19.87
-18.05
-16.17
-14.01
-11.30
-7.90
-3.92
0.19
3.89
6.65
8.26
8.80
8.71
8.49
8.49
8.77
9.06
9.03
8.41
7.31
6.13
5.40
5.59
6.82
8.92
11.48
14.16
16.74
19.12
21.13
22.38
22.34
20.44
16.55
11.03
4.72
-1.40
-6.62
-10.77
-14.14
-17.25
-20.55
-24.11
-27.70
-30.92
-33.40
-34.93
-35.46
-35.05
-33.79
-31.77
-28.99
-25.38
-20.85
-15.32
-8.96
-2.22
4.07
8.97
11.61
11.62
9.31
5.60
1.78
-0.97
-1.84
-0.66
2.29
6.37
10.87
15.16
18.66
20.96
21.69
20.72
18.18
14.51
10.40
6.59
3.71
2.05
1.57
1.95
2.78
3.68
4.44
5.07
5.64
6.29
7.03
7.76
8.26
8.26
7.52
5.92
3.50
0.38
-3.19
-7.02
-10.86
-14.46
-17.49
-19.58
-20.36
-19.58
-17.25
-13.63
-9.24
-4.69
-0.53
2.92
5.59
7.62
9.29
10.83
12.36
13.86
15.14
15.98
16.18
15.68
14.70
13.78
13.60
14.74
17.28
20.55
23.18
23.50
20.25
13.01
2.52
-9.61
-21.44
-31.24
-37.97
-41.31
-41.66
-39.89
-37.13
-34.57
-33.06
-32.78
-33.09
-32.69
-30.12
-24.55
-16.22
-6.51
2.58
9.29
12.76
13.41
12.54
11.75
12.32
14.89
19.43
25.51
32.38
39.10
44.61
47.75
47.63
43.96
37.31
29.10
21.14
15.12
12.06
12.05
14.38
17.78
20.94
22.85
23.08
21.88
20.02
18.45
17.95
18.83
20.89
23.54
26.18
28.39
30.08
31.38
32.49
33.65
35.08
36.99
39.43
42.04
44.05
44.45
42.43
37.92
31.57
24.53
17.81
11.83
6.48
1.55
-2.68
-5.33
-5.32
-2.25
3.10
8.72
12.19
11.65
6.62
-1.90
-12.12
-22.26
-31.29
-39.01
-45.78
-51.93
-57.34
-61.39
-63.22
-62.21
-58.27
-51.98
-44.42
-36.81
-30.21
-25.31
-22.36
-21.33
-21.90
-23.58
-25.75
-27.77
-29.16
-29.74
-29.72
-29.69
-30.36
-32.36
-35.95
-40.97
-46.72
-52.03
-55.35
-54.89
-49.18
-37.70
-21.51
-3.37
12.84
23.37
25.99
20.77
10.00
-2.93
-14.93
-24.33
-31.04
-35.93
-39.85
-42.92
-44.51
-43.70
-39.98
-33.56
-25.24
-16.06
-6.86
1.84
9.76
16.66
22.18
25.87
27.37
26.69
24.28
21.06
18.11
16.31
16.07
17.13
18.72
19.93
20.16
19.39
18.26
17.81
19.04
22.48
27.92
34.44
40.57
44.77
45.81
43.15
37.02
28.34
18.33
8.11
-1.61
-10.63
-19.06
-27.05
-34.58
-41.38
-47.08
-51.41
-54.22
-55.46
-55.08
-52.87
-48.64
-42.41
-34.58
-26.09
-18.09
-11.66
-7.37
-5.11
-4.21
-3.80
-3.20
-2.08
-0.52
1.23
2.98
4.66
6.33
7.99
9.55
10.83
11.75
12.35
12.91
13.75
15.04
16.70
18.37
19.57
19.97
19.51
18.44
17.16
16.08
15.39
15.03
14.76
14.39
13.89
13.52
13.71
14.83
16.97
19.80
22.68
24.94
26.16
26.38
26.09
26.03
26.87
28.98
32.29
36.30
40.25
43.35
45.08
45.43
44.91
44.40
44.79
46.57
49.59
53.03
55.58
55.86
52.78
45.91
35.71
23.63
11.76
2.33
-3.08
-4.18
-2.30
-0.15
-0.96
-7.15
-19.30
-35.69
-52.79
-66.49
-73.48
-72.30
-63.42
-48.79
-30.83
-11.73
6.82
23.27
35.80
42.14
40.06
28.46
8.35
-16.72
-41.21
-59.02
-65.34
-58.00
-38.02
-8.92
24.62
58.15
88.23
112.35
128.55
135.06
130.73
115.88
93.21
67.74
45.56
31.75
28.27
33.20
41.61
47.85
48.01
41.17
29.21
15.17
1.56
-10.53
-21.34
-31.50
-41.17
-49.78
-56.37
-60.10
-60.74
-58.80
-55.42
-52.18
-50.72
-52.33
-57.41
-65.19
-73.79
-80.90
-84.62
-84.17
-80.17
-74.12
-67.69
-62.01
-57.47
-53.94
-51.16
-49.13
-47.96
-47.80
-48.45
-49.44
-50.07
-49.79
-48.42
-46.24
-43.89
-41.95
-40.73
-40.07
-39.42
-38.13
-35.77
-32.43
-28.65
-25.38
-23.52
-23.60
-25.58
-28.77
-32.08
-34.31
-34.57
-32.46
-28.19
-22.48
-16.37
-10.91
-6.96
-4.98
-5.07
-7.06
-10.57
-15.24
-20.64
-26.34
-31.85
-36.58
-39.91
-41.22
-40.01
-36.01
-29.27
-20.22
-9.58
1.65
12.46
21.91
29.35
34.45
37.24
38.03
37.20
35.22
32.53
29.58
26.91
25.06
24.41
24.99
26.31
27.52
27.72
26.40
23.61
19.84
15.64
11.30
6.66
1.43
-4.57
-11.03
-17.24
-22.34
-25.64
-26.92
-26.35
-24.46
-21.85
-19.12
-16.72
-14.94
-13.83
-13.19
-12.65
-11.80
-10.43
-8.54
-6.39
-4.23
-2.21
-0.23
1.97
4.61
7.74
11.12
14.36
17.05
18.93
19.93
20.09
19.55
18.49
17.11
15.63
14.26
13.17
12.42
12.01
11.80
11.72
11.65
11.53
11.34
11.08
10.81
10.57
10.41
10.28
10.12
9.84
9.32
8.46
7.14
5.34
3.14
0.88
-0.89
-1.50
-0.45
2.31
6.38
11.03
15.51
19.38
22.60
25.41
28.06
30.68
33.18
35.47
37.57
39.69
42.16
45.18
48.80
52.88
57.26
61.91
67.02
72.87
79.54
86.80
93.92
99.91
103.72
104.59
102.25
97.02
89.66
81.25
72.86
65.39
59.49
55.41
53.08
52.11
51.90
51.77
51.17
49.76
47.40
44.03
39.47
33.41
25.52
15.59
3.82
-9.12
-22.19
-34.26
-44.46
-52.42
-58.41
-63.21
-67.93
-73.61
-80.97
-90.18
-100.77
-111.79
-122.11
-130.80
-137.52
-142.65
-146.97
-151.25
-155.62
-159.25
-160.33
-156.50
-145.61
-126.48
-99.52
-66.78
-31.60
2.16
31.08
52.86
66.60
72.69
72.27
66.73
57.37
45.40
32.09
18.84
7.03
-2.26
-8.60
-12.22
-13.82
-14.16
-13.80
-12.99
-11.84
-10.57
-9.61
-9.59
-11.09
-14.45
-19.57
-25.86
-32.36
-37.86
-41.26
-41.76
-39.10
-33.65
-26.27
-18.08
-10.05
-2.87
3.24
8.29
12.42
15.69
18.08
19.59
20.27
20.30
19.91
19.27
18.46
17.40
16.00
14.21
12.09
9.82
7.63
5.71
4.19
3.09
2.34
1.78
1.17
0.28
-1.16
-3.23
-5.88
-8.76
-11.32
-13.01
-13.42
-12.50
-10.49
-7.91
-5.24
-2.83
-0.80
0.86
2.21
3.25
3.87
4.05
3.86
3.54
3.39
3.63
4.28
5.09
5.73
5.88
5.47
4.66
3.76
3.06
2.65
2.44
2.19
1.62
0.49
-1.29
-3.64
-6.28
-8.75
-10.50
-10.98
-9.93
-7.39
-3.71
0.59
5.00
9.11
12.64
15.39
17.22
18.06
17.99
17.24
16.16
15.16
14.48
14.23
14.26
14.31
14.05
13.21
11.65
9.41
6.72
3.91
1.36
-0.67
-2.16
-3.27
-4.37
-5.80
-7.79
-10.22
-12.68
-14.44
-14.72
-12.96
-9.11
-3.76
2.08
7.30
11.17
13.50
14.60
14.96
14.94
14.66
14.02
12.92
11.44
9.84
8.39
7.23
6.39
5.80
5.44
5.36
5.64
6.31
7.35
8.65
10.12
11.67
13.17
14.46
15.28
15.38
14.50
12.46
9.12
4.39
-1.55
-8.29
-14.99
-20.66
-24.38
-25.71
-24.84
-22.40
-19.21
-15.82
-12.44
-8.92
-5.08
-0.90
3.42
7.57
11.27
14.33
16.71
18.42
19.48
19.93
19.80
19.16
18.12
16.76
15.19
13.55
11.96
10.56
9.37
8.24
6.94
5.16
2.72
-0.39
-4.03
-7.91
-11.66
-14.86
-17.07
-17.78
-16.64
-13.58
-8.93
-3.46
1.94
6.45
9.67
11.63
12.69
13.20
13.31
13.02
12.24
11.07
9.81
8.99
9.16
10.89
14.75
21.16
30.28
41.58
53.78
64.99
73.37
77.77
78.30
76.20
73.25
70.92
69.69
69.06
67.92
65.16
60.14
52.93
44.15
34.64
25.24
16.46
8.46
1.14
-5.69
-12.06
-17.80
-22.56
-26.01
-28.00
-28.61
-28.11
-26.81
-24.92
-22.47
-19.28
-15.11
-9.72
-3.08
4.53
12.46
19.84
25.78
29.75
31.74
32.13
31.53
30.36
28.87
27.17
25.49
24.09
23.12
22.36
21.18
18.88
15.10
10.25
5.49
2.13
1.04
2.25
4.94
8.00
10.57
12.30
13.31
13.74
13.51
12.23
9.47
5.14
-0.35
-6.14
-11.28
-15.13
-17.58
-19.04
-20.20
-21.57
-23.24
-24.79
-25.41
-24.48
-21.84
-18.05
-14.18
-11.43
-10.65
-11.97
-14.76
-17.83
-19.98
-20.25
-18.32
-14.42
-9.08
-2.92
3.62
10.26
16.84
23.05
28.37
32.07
33.37
31.80
27.40
20.84
13.20
5.62
-1.03
-6.36
-10.37
-13.36
-15.70
-17.69
-19.60
-21.69
-24.13
-26.98
-30.18
-33.51
-36.76
-39.81
-42.69
-45.47
-48.18
-50.70
-52.70
-53.78
-53.66
-52.30
-49.94
-47.02
-44.02
-41.36
-39.27
-37.81
-36.90
-36.41
-36.14
-35.92
-35.56
-34.92
-33.84
-32.29
-30.28
-28.00
-25.67
-23.54
-21.75
-20.38
-19.38
-18.69
-18.22
-17.87
-17.57
-17.30
-17.05
-16.91
-17.00
-17.39
-18.04
-18.74
-19.12
-18.83
-17.61
-15.43
-12.47
-9.04
-5.50
-2.15
0.77
3.08
4.68
5.54
5.73
5.42
4.87
4.38
4.23
4.55
5.24
6.03
6.54
6.44
5.70
4.62
3.79
3.78
4.95
7.12
9.70
11.78
12.54
11.48
8.63
4.56
0.31
-2.95
-4.17
-2.83
0.98
6.50
12.63
18.28
22.71
25.68
27.38
28.14
28.22
27.74
26.69
25.12
23.22
21.23
19.36
17.66
15.94
13.87
11.11
7.41
2.74
-2.73
-8.67
-14.65
-20.18
-24.74
-27.94
-29.55
-29.66
-28.60
-26.85
-24.83
-22.70
-20.38
-17.65
-14.37
-10.64
-6.86
-3.51
-0.94
0.77
1.82
2.57
3.34
4.28
5.37
6.47
7.41
8.07
8.33
8.15
7.52
6.47
5.04
3.30
1.35
-0.70
-2.75
-4.68
-6.37
-7.79
-8.96
-10.01
-11.12
-12.52
-14.36
-16.62
-19.05
-21.12
-22.15
-21.55
-19.04
-14.82
-9.54
-4.07
0.77
4.45
6.80
7.95
8.18
7.80
7.12
6.37
5.71
5.20
4.77
4.27
3.54
2.50
1.11
-0.58
-2.53
-4.72
-7.09
-9.49
-11.68
-13.35
-14.33
-14.66
-14.65
-14.72
-15.27
-16.48
-18.33
-20.58
-22.92
-24.98
-26.32
-26.45
-24.94
-21.58
-16.53
-10.41
-4.07
1.63
6.08
9.15
11.02
12.07
12.70
13.16
13.57
13.98
14.38
14.78
15.15
15.46
15.69
15.80
15.69
15.30
14.54
13.42
12.02
10.53
9.14
7.96
7.01
6.17
5.35
4.49
3.60
2.65
1.54
0.10
-1.81
-4.10
-6.39
-7.99
-8.16
-6.44
-2.89
1.95
7.21
12.05
15.99
18.91
21.01
22.54
23.64
24.25
24.32
23.82
22.91
21.89
21.04
20.48
20.16
19.86
19.35
18.49
17.26
15.74
14.02
12.14
10.12
7.94
5.64
3.30
1.01
-1.22
-3.43
-5.76
-8.36
-11.25
-14.24
-16.92
-18.72
-19.17
-18.08
-15.59
-12.16
-8.35
-4.66
-1.42
1.22
3.22
4.57
5.29
5.42
5.08
4.45
3.79
3.29
3.09
3.19
3.48
3.77
3.85
3.60
3.04
2.30
1.61
1.07
0.70
0.36
-0.10
-0.77
-1.65
-2.67
-3.82
-5.13
-6.63
-8.21
-9.56
-10.19
-9.63
-7.64
-4.40
-0.44
3.54
6.95
9.50
11.13
11.98
12.17
11.79
10.92
9.71
8.44
7.42
6.88
6.92
7.41
8.13
8.84
9.38
9.66
9.65
9.38
8.87
8.26
7.69
7.31
7.16
7.22
7.37
7.40
7.19
6.70
6.08
5.65
5.85
7.10
9.61
13.35
17.92
22.77
27.24
30.82
33.31
34.74
35.33
35.37
35.08
34.52
33.70
32.52
30.87
28.72
26.10
23.18
20.15
17.23
14.57
12.26
10.31
8.71
7.53
6.85
6.79
7.40
8.61
10.24
11.98
13.49
14.45
14.63
13.91
12.42
10.55
8.91
8.19
8.88
11.08
14.39
18.08
21.26
23.28
23.86
23.08
21.24
18.66
15.53
11.87
7.63
2.81
-2.43
-7.72
-12.60
-16.62
-19.50
-21.22
-21.99
-22.10
-21.87
-21.45
-20.90
-20.22
-19.45
-18.68
-18.01
-17.51
-17.19
-17.08
-17.24
-17.81
-19.00
-20.96
-23.79
-27.43
-31.66
-36.16
-40.42
-43.90
-46.07
-46.63
-45.54
-43.16
-40.09
-36.99
-34.36
-32.36
-30.91
-29.77
-28.69
-27.54
-26.28
-24.87
-23.27
-21.41
-19.21
-16.72
-14.05
-11.40
-8.98
-6.94
-5.35
-4.22
-3.52
-3.15
-3.03
-3.03
-2.99
-2.80
-2.34
-1.59
-0.56
0.64
1.89
3.04
4.01
4.81
5.62
6.71
8.39
10.79
13.74
16.75
19.12
20.19
19.63
17.51
14.26
10.44
6.53
2.77
-0.76
-4.07
-7.10
-9.69
-11.69
-13.04
-13.88
-14.43
-14.93
-15.48
-16.08
-16.67
-17.20
-17.74
-18.37
-19.13
-19.88
-20.38
-20.39
-19.79
-18.69
-17.38
-16.24
-15.57
-15.56
-16.26
-17.54
-19.11
-20.49
-21.15
-20.63
-18.77
-15.77
-12.14
-8.49
-5.29
-2.76
-0.90
0.37
1.13
1.39
1.14
0.44
-0.56
-1.61
-2.48
-2.99
-3.04
-2.68
-2.05
-1.36
-0.79
-0.47
-0.41
-0.53
-0.71
-0.88
-1.00
-1.13
-1.33
-1.68
-2.28
-3.20
-4.47
-5.93
-7.25
-7.95
-7.56
-5.87
-3.00
0.56
4.18
7.28
9.55
10.92
11.55
11.62
11.27
10.58
9.63
8.55
7.51
6.71
6.24
6.10
6.14
6.14
5.89
5.29
4.35
3.25
2.15
1.19
0.40
-0.32
-1.15
-2.21
-3.56
-5.19
-6.95
-8.65
-10.04
-10.82
-10.71
-9.57
-7.43
-4.52
-1.24
2.06
5.12
7.84
10.20
12.15
13.54
14.18
13.93
12.89
11.36
9.83
8.75
8.39
8.81
9.79
10.94
11.85
12.22
11.94
11.16
10.22
9.46
9.03
8.82
8.42
7.39
5.47
2.70
-0.62
-4.03
-7.11
-9.53
-11.08
-11.59
-10.99
-9.33
-6.84
-3.93
-1.05
1.41
3.22
4.38
4.98
5.17
5.17
5.20
5.48
6.10
6.98
7.87
8.47
8.57
8.23
7.75
7.52
7.82
8.62
9.61
10.35
10.49
9.90
8.72
7.23
5.67
4.17
2.71
1.24
-0.36
-2.15
-4.20
-6.58
-9.25
-12.06
-14.60
-16.36
-16.79
-15.60
-12.86
-9.04
-4.85
-0.96
2.19
4.52
6.16
7.35
8.27
8.95
9.40
9.64
9.80
10.05
10.48
11.10
11.80
12.44
12.92
13.22
13.36
13.36
13.20
12.85
12.35
11.77
11.17
10.61
10.08
9.54
8.97
8.33
7.65
6.93
6.13
5.18
4.03
2.72
1.28
-0.23
-1.81
-3.55
-5.54
-7.79
-10.11
-12.16
-13.52
-13.80
-12.75
-10.35
-6.84
-2.70
1.47
5.12
7.82
9.46
10.17
10.25
9.99
9.58
9.09
8.50
7.87
7.34
7.08
7.20
7.63
8.15
8.45
8.30
7.63
6.53
5.22
3.91
2.77
1.80
0.89
-0.15
-1.48
-3.10
-4.84
-6.48
-7.83
-8.89
-9.87
-11.08
-12.80
-15.03
-17.43
-19.39
-20.28
-19.65
-17.45
-14.06
-10.07
-6.10
-2.56
0.39
2.81
4.77
6.25
7.08
7.15
6.50
5.43
4.36
3.67
3.51
3.77
4.15
4.38
4.27
3.84
3.22
2.56
1.97
1.45
0.94
0.34
-0.49
-1.60
-2.99
-4.57
-6.27
-8.02
-9.88
-11.91
-14.07
-16.09
-17.51
-17.75
-16.44
-13.54
-9.43
-4.85
-0.53
3.01
5.56
7.27
8.39
9.10
9.46
9.44
9.05
8.42
7.80
7.45
7.49
7.85
8.31
8.60
8.52
8.02
7.14
5.98
4.68
3.36
2.12
0.99
-0.04
-1.08
-2.26
-3.71
-5.50
-7.59
-9.86
-12.10
-14.04
-15.32
-15.62
-14.66
-12.37
-8.93
-4.78
-0.46
3.51
6.80
9.30
11.06
12.20
12.84
13.04
12.84
12.33
11.63
10.92
10.41
10.18
10.24
10.50
10.79
10.94
10.80
10.33
9.51
8.42
7.13
5.76
4.41
3.11
1.87
0.64
-0.61
-1.95
-3.43
-5.14
-7.15
-9.52
-12.10
-14.49
-16.10
-16.29
-14.73
-11.49
-7.11
-2.33
2.14
5.89
8.84
11.14
12.97
14.41
15.46
16.04
16.19
