1513653237.00
64.000000
-0.00
-0.00
-0.00
-0.00
-0.00
-0.00
-0.00
-0.00
-0.00
-0.00
0.00
0.01
0.01
-0.00
-0.03
-0.05
-0.05
0.00
0.13
0.36
0.66
1.01
1.37
1.72
2.06
2.40
2.79
3.24
3.80
4.42
5.06
5.66
6.20
6.68
7.15
7.68
8.31
9.15
10.09
11.04
11.88
12.56
13.14
13.79
14.70
16.02
17.95
20.26
22.70
24.98
26.97
28.79
30.77
33.35
36.81
41.50
47.02
52.84
58.39
63.36
67.84
72.35
77.57
83.95
91.97
101.03
110.32
119.00
126.60
133.27
139.69
147.16
154.21
162.92
173.70
186.61
200.56
212.91
219.61
216.20
199.24
167.56
123.10
69.34
10.51
-49.94
-109.94
-168.67
-225.91
-281.42
-334.85
-385.45
-432.90
-476.71
-515.94
-548.99
-573.68
-587.70
-589.26
-577.72
-553.54
-518.72
-476.13
-428.98
-379.97
-330.39
-279.70
-225.85
-166.49
-100.45
-29.14
43.48
111.97
171.28
218.30
252.48
275.26
288.85
295.21
295.59
290.80
281.74
269.69
256.14
242.34
228.95
215.95
202.81
188.92
174.03
158.44
142.90
128.32
115.38
104.28
94.69
85.94
77.34
68.49
59.46
50.63
42.52
35.48
29.59
24.62
20.32
16.33
12.47
8.78
5.43
2.59
0.32
-1.42
-2.81
-4.00
-5.15
-6.28
-7.33
-8.16
-8.70
-8.89
-8.83
-8.66
-8.53
-8.50
-8.52
-8.47
-8.24
-7.83
-7.31
-6.79
-6.38
-6.07
-5.86
-5.70
-5.54
-5.36
-5.05
-4.56
-3.83
-2.96
-2.15
-1.63
-1.52
-1.80
-2.27
-2.68
-2.90
-2.88
-2.71
-2.47
-2.22
-1.96
-1.69
-1.44
-1.28
-1.25
-1.36
-1.52
-1.64
-1.65
-1.54
-1.37
-1.17
-0.97
-0.75
-0.45
-0.06
0.36
0.72
0.90
0.86
0.66
0.39
0.19
0.14
0.24
0.45
0.73
1.00
1.22
1.35
1.42
1.47
1.56
1.78
2.17
2.70
3.30
3.87
4.31
4.57
4.61
4.38
3.89
3.17
2.29
1.40
0.55
-0.24
-1.00
-1.83
-2.74
-3.68
-4.54
-5.21
-5.62
-5.82
-5.91
-5.98
-6.03
-6.02
-5.86
-5.52
-5.02
-4.49
-4.03
-3.73
-3.59
-3.54
-3.52
-3.45
-3.34
-3.21
-3.09
-2.97
-2.82
-2.58
-2.23
-1.80
-1.38
-1.12
-1.10
-1.33
-1.69
-2.02
-2.17
-2.12
-1.94
-1.73
-1.60
-1.50
-1.35
-1.04
-0.54
0.04
0.58
0.96
1.15
1.24
1.34
1.55
1.88
2.28
2.64
2.86
2.85
2.57
2.07
1.43
0.78
0.20
-0.19
-0.34
-0.23
0.07
0.47
0.86
1.17
1.33
1.33
1.19
0.95
0.70
0.51
0.45
0.52
0.67
0.81
0.87
0.82
0.64
0.39
0.09
-0.24
-0.58
-0.89
-1.11
-1.16
-1.03
-0.74
-0.41
-0.17
-0.12
-0.28
-0.60
-1.00
-1.38
-1.72
-2.02
-2.29
-2.56
-2.86
-3.19
-3.53
-3.84
-4.03
-4.02
-3.77
-3.33
-2.79
-2.27
-1.88
-1.63
-1.44
-1.19
-0.78
-0.19
0.51
1.15
1.58
1.73
1.62
1.39
1.19
1.15
1.27
1.46
1.61
1.62
1.50
1.34
1.22
1.20
1.24
1.26
1.21
1.09
0.98
0.97
1.06
1.17
1.17
0.95
0.52
0.03
-0.34
-0.46
-0.30
0.07
0.50
0.87
1.14
1.28
1.33
1.27
1.10
0.81
0.42
0.01
-0.33
-0.54
-0.60
-0.59
-0.61
-0.73
-0.96
-1.24
-1.49
-1.66
-1.70
-1.63
-1.46
-1.20
-0.88
-0.51
-0.14
0.19
0.45
0.61
0.69
0.70
0.69
0.66
0.66
0.68
0.74
0.81
0.85
0.85
0.81
0.77
0.76
0.78
0.77
0.68
0.47
0.16
-0.15
-0.36
-0.42
-0.32
-0.17
-0.07
-0.15
-0.48
-1.04
-1.74
-2.45
-3.04
-3.43
-3.64
-3.75
-3.89
-4.17
-4.64
-5.25
-5.94
-6.60
-7.15
-7.52
-7.67
-7.61
-7.43
-7.24
-7.18
-7.27
-7.43
-7.42
-6.90
-5.55
-3.13
0.45
5.03
10.30
15.80
21.09
25.85
29.96
33.49
36.65
39.67
42.64
45.59
48.41
50.98
53.18
54.83
55.71
55.45
53.60
49.74
43.61
35.36
25.54
15.05
4.87
-4.16
-11.62
-17.47
-22.00
-25.54
-28.36
-30.54
-32.05
-32.89
-33.12
-32.90
-32.40
-31.77
-31.05
-30.19
-29.15
-27.89
-26.47
-25.02
-23.69
-22.58
-21.71
-21.00
-20.30
-19.45
-18.40
-17.15
-15.80
-14.47
-13.24
-12.15
-11.19
-10.29
-9.41
-8.53
-7.61
-6.67
-5.76
-4.90
-4.15
-3.51
-2.97
-2.49
-2.06
-1.66
-1.31
-1.05
-0.90
-0.86
-0.91
-1.00
-1.06
-1.09
-1.09
-1.08
-1.07
-1.07
-1.05
-1.00
-0.90
-0.76
-0.60
-0.47
-0.37
-0.31
-0.23
-0.11
0.06
0.22
0.30
0.27
0.11
-0.10
-0.27
-0.30
-0.17
0.05
0.23
0.24
0.03
-0.38
-0.87
-1.29
-1.56
-1.65
-1.60
-1.48
-1.31
-1.08
-0.73
-0.24
0.35
0.95
1.44
1.72
1.78
1.70
1.58
1.54
1.60
1.73
1.86
1.95
1.97
1.97
1.96
1.96
1.95
1.94
1.96
2.09
2.37
2.78
3.21
3.53
3.60
3.36
2.89
2.32
1.80
1.41
1.14
0.95
0.78
0.64
0.56
0.56
0.61
0.63
0.49
0.11
-0.48
-1.14
-1.68
-1.90
-1.69
-1.07
-0.13
0.94
1.98
2.83
3.44
3.80
4.01
4.18
4.40
4.77
5.26
5.83
6.36
6.75
6.93
6.93
6.88
6.97
7.37
8.15
9.25
10.45
11.53
12.32
12.85
13.27
13.79
14.58
15.62
16.72
17.52
17.63
16.72
14.69
11.70
8.18
4.72
1.82
-0.21
-1.37
-1.99
-2.54
-3.52
-5.30
-8.01
-11.54
-15.52
-19.43
-22.71
-24.88
-25.72
-25.29
-23.90
-21.94
-19.79
-17.68
-15.71
-13.90
-12.27
-10.89
-9.78
-8.91
-8.18
-7.37
-6.34
-5.00
-3.46
-1.93
-0.64
0.24
0.70
0.89
1.00
1.21
1.55
2.00
2.45
2.84
3.10
3.23
3.23
3.10
2.87
2.60
2.37
2.20
2.06
1.89
1.59
1.15
0.63
0.14
-0.24
-0.49
-0.68
-0.87
-1.09
-1.30
-1.43
-1.40
-1.21
-0.89
-0.48
-0.04
0.39
0.78
1.11
1.35
1.48
1.52
1.50
1.45
1.41
1.39
1.43
1.52
1.63
1.69
1.65
1.49
1.21
0.92
0.70
0.63
0.70
0.85
0.98
1.00
0.89
0.68
0.43
0.18
-0.09
-0.37
-0.68
-0.99
-1.27
-1.46
-1.54
-1.56
-1.59
-1.70
-1.92
-2.24
-2.60
-2.91
-3.17
-3.35
-3.50
-3.60
-3.66
-3.67
-3.62
-3.51
-3.34
-3.06
-2.64
-2.04
-1.29
-0.48
0.26
0.80
1.10
1.20
1.26
1.39
1.68
2.06
2.37
2.45
2.23
1.74
1.14
0.58
0.21
0.05
0.09
0.23
0.38
0.45
0.40
0.21
-0.07
-0.37
-0.60
-0.72
-0.71
-0.62
-0.46
-0.28
-0.09
0.11
0.27
0.35
0.34
0.25
0.15
0.09
0.07
0.05
-0.03
-0.19
-0.41
-0.59
-0.69
-0.65
-0.51
-0.32
-0.12
0.06
0.23
0.38
0.48
0.49
0.39
0.19
-0.00
-0.08
0.03
0.35
0.78
1.23
1.57
1.80
1.95
2.09
2.31
2.65
3.08
3.58
4.06
4.46
4.72
4.78
4.61
4.27
3.84
3.45
3.21
3.13
3.14
3.14
3.09
2.99
2.95
3.02
3.21
3.42
3.50
3.35
2.97
2.44
1.88
1.37
0.96
0.68
0.53
0.49
0.54
0.60
0.60
0.49
0.27
-0.00
-0.24
-0.38
-0.41
-0.38
-0.39
-0.50
-0.75
-1.10
-1.49
-1.87
-2.17
-2.38
-2.50
-2.54
-2.52
-2.41
-2.21
-1.90
-1.53
-1.13
-0.76
-0.46
-0.20
0.06
0.35
0.70
1.07
1.40
1.63
1.76
1.83
1.88
1.97
2.08
2.18
2.23
2.22
2.21
2.23
2.33
2.49
2.67
2.80
2.84
2.76
2.55
2.25
1.92
1.59
1.30
1.04
0.76
0.40
-0.06
-0.58
-1.08
-1.43
-1.56
-1.47
-1.26
-1.03
-0.92
-0.96
-1.15
-1.45
-1.79
-2.12
-2.36
-2.48
-2.44
-2.25
-2.01
-1.82
-1.74
-1.75
-1.73
-1.52
-1.10
-0.53
0.04
0.45
0.65
0.68
0.65
0.63
0.64
0.63
0.57
0.45
0.36
0.35
0.45
0.62
0.77
0.83
0.79
0.63
0.39
0.09
-0.20
-0.40
-0.41
-0.24
0.05
0.32
0.38
0.16
-0.32
-0.92
-1.50
-1.94
-2.24
-2.42
-2.51
-2.52
-2.43
-2.25
-2.03
-1.85
-1.74
-1.70
-1.61
-1.36
-0.88
-0.21
0.51
1.15
1.58
1.77
1.78
1.71
1.62
1.52
1.41
1.25
1.07
0.93
0.91
1.03
1.25
1.47
1.57
1.48
1.20
0.81
0.42
0.04
-0.32
-0.72
-1.13
-1.46
-1.61
-1.50
-1.20
-0.87
-0.72
-0.84
-1.24
-1.75
-2.22
-2.54
-2.69
-2.72
-2.68
-2.59
-2.37
-2.01
-1.50
-0.87
-0.22
0.37
0.85
1.19
1.39
1.47
1.48
1.47
1.47
1.50
1.55
1.59
1.64
1.71
1.82
1.93
1.99
1.93
1.74
1.46
1.18
0.98
0.90
0.86
0.78
0.60
0.32
0.02
-0.17
-0.18
-0.04
0.14
0.20
0.03
-0.41
-1.02
-1.65
-2.12
-2.32
-2.28
-2.09
-1.92
-1.87
-1.99
-2.22
-2.47
-2.65
-2.72
-2.68
-2.55
-2.29
-1.87
-1.26
-0.53
0.19
0.76
1.09
1.19
1.15
1.10
1.12
1.24
1.40
1.54
1.62
1.64
1.63
1.61
1.57
1.51
1.43
1.35
1.29
1.26
1.23
1.12
0.91
0.58
0.19
-0.14
-0.31
-0.30
-0.15
-0.01
0.04
-0.04
-0.19
-0.33
-0.40
-0.40
-0.39
-0.45
-0.61
-0.85
-1.13
-1.39
-1.59
-1.73
-1.86
-1.99
-2.14
-2.31
-2.45
-2.52
-2.48
-2.32
-2.07
-1.74
-1.30
-0.76
-0.13
0.49
0.96
1.16
1.05
0.73
0.35
0.10
0.04
0.16
0.37
0.58
0.74
0.88
1.02
1.15
1.23
1.22
1.11
0.97
0.91
1.03
1.36
1.84
2.34
2.72
2.87
2.83
2.67
2.55
2.53
2.66
2.86
3.07
3.22
3.30
3.32
3.30
3.29
3.28
3.32
3.41
3.54
3.73
3.95
4.21
4.53
4.92
5.34
5.72
6.01
6.18
6.30
6.50
6.85
7.36
7.90
8.29
8.44
8.34
8.11
7.88
7.65
7.36
6.82
5.96
4.82
3.56
2.41
1.49
0.81
0.28
-0.20
-0.64
-0.97
-1.12
-1.05
-0.83
-0.56
-0.33
-0.16
0.01
0.25
0.58
0.94
1.25
1.38
1.28
0.95
0.49
0.01
-0.39
-0.70
-0.98
-1.32
-1.78
-2.28
-2.65
-2.64
-2.05
-0.86
0.82
2.73
4.57
6.10
7.21
7.83
8.02
7.87
7.52
7.14
6.80
6.50
6.15
5.58
4.68
3.43
1.96
0.47
-0.87
-1.99
-2.92
-3.73
-4.51
-5.26
-5.94
-6.50
-6.97
-7.48
-8.28
-9.64
-11.72
-14.52
-17.80
-21.18
-24.21
-26.50
-27.77
-27.91
-26.97
-25.20
-23.01
-20.83
-18.95
-17.42
-15.94
-14.06
-11.42
-7.98
-4.12
-0.52
2.14
3.41
3.21
1.69
-0.82
-3.93
-7.13
-9.77
-11.20
-10.88
-8.72
-5.10
-0.75
3.52
7.18
10.11
12.56
14.91
17.38
19.98
22.47
24.53
25.80
26.01
24.98
22.66
19.21
15.03
10.69
6.73
3.52
1.10
-0.73
-2.32
-3.90
-5.57
-7.23
-8.75
-10.04
-11.04
-11.66
-11.70
-10.86
-8.90
-5.77
-1.77
2.49
6.34
9.27
11.10
12.03
12.47
12.81
13.30
13.96
14.63
15.13
15.30
15.06
14.34
13.08
11.18
8.54
5.07
0.83
-3.98
-8.93
-13.49
-17.19
-19.79
-21.28
-21.88
-21.75
-20.96
-19.35
-16.79
-13.33
-9.39
-5.69
-2.95
-1.56
-1.38
-1.79
-2.03
-1.54
-0.21
1.73
3.87
5.87
7.53
8.78
9.54
9.63
8.88
7.15
4.55
1.37
-2.05
-5.39
-8.48
-11.27
-13.70
-15.72
-17.22
-18.16
-18.62
-18.76
-18.78
-18.84
-19.05
-19.50
-20.30
-21.56
-23.30
-25.33
-27.23
-28.41
-28.37
-26.86
-24.01
-20.24
-16.09
-12.01
-8.21
-4.68
-1.31
1.98
5.18
8.14
10.65
12.54
13.69
14.08
13.68
12.50
10.59
8.09
5.28
2.57
0.44
-0.66
-0.47
1.03
3.60
6.77
10.07
13.06
15.51
17.29
18.38
18.70
18.14
16.62
14.27
11.40
8.49
5.95
3.94
2.34
0.89
-0.65
-2.30
-3.92
-5.34
-6.48
-7.41
-8.26
-9.06
-9.75
-10.17
-10.24
-10.02
-9.73
-9.62
-9.74
-9.80
-9.25
-7.40
-3.76
1.69
8.36
15.20
21.03
24.95
26.66
26.53
25.32
23.82
22.51
21.43
20.34
19.01
17.38
15.67
14.20
13.19
12.65
12.41
12.21
11.86
11.30
10.56
9.65
8.60
7.39
6.08
4.80
3.74
3.05
2.80
2.92
3.28
3.71
4.09
4.32
4.32
4.04
3.37
2.25
0.72
-1.11
-3.08
-4.99
-6.71
-8.22
-9.55
-10.71
-11.68
-12.37
-12.69
-12.64
-12.27
-11.65
-10.86
-9.91
-8.79
-7.52
-6.18
-4.92
-3.84
-2.97
-2.23
-1.48
-0.62
0.36
1.40
2.40
3.35
4.31
5.40
6.67
8.05
9.36
10.37
10.88
10.84
10.29
9.37
8.16
6.69
4.94
2.91
0.61
-1.84
-4.35
-6.79
-9.07
-11.13
-12.91
-14.39
-15.58
-16.54
-17.32
-17.94
-18.38
-18.59
-18.56
-18.36
-18.17
-18.14
-18.33
-18.61
-18.73
-18.42
-17.53
-16.09
-14.33
-12.53
-10.94
-9.64
-8.55
-7.49
-6.28
-4.83
-3.23
-1.65
-0.34
0.52
0.85
0.69
0.21
-0.37
-0.80
-0.80
-0.07
1.56
4.06
7.09
10.03
12.15
12.94
12.32
10.73
8.94
7.68
7.33
7.77
8.61
9.42
10.02
10.53
11.22
12.23
13.45
14.51
15.00
14.65
13.50
11.80
10.01
8.52
7.62
7.35
7.57
7.92
8.02
7.49
6.06
3.64
0.30
-3.72
-8.00
-12.05
-15.35
-17.49
-18.25
-17.65
-15.88
-13.28
-10.24
-7.11
-4.18
-1.66
0.36
1.92
3.11
4.04
4.78
5.36
5.75
5.95
5.91
5.60
5.03
4.23
3.31
2.40
1.64
1.07
0.62
0.14
-0.50
-1.28
-2.12
-2.84
-3.33
-3.59
-3.64
-3.56
-3.33
-2.89
-2.20
-1.29
-0.31
0.52
0.98
0.94
0.41
-0.52
-1.71
-3.06
-4.50
-6.00
-7.55
-9.11
-10.59
-11.90
-12.92
-13.63
-14.03
-14.20
-14.24
-14.22
-14.13
-13.87
-13.32
-12.38
-11.03
-9.30
-7.27
-4.99
-2.48
0.21
2.96
5.59
7.90
9.76
11.11
11.99
12.47
12.61
12.47
12.12
11.69
11.34
11.22
11.36
11.69
12.01
12.17
12.05
11.65
11.05
10.32
9.53
8.69
7.84
7.00
6.22
5.53
4.91
4.27
3.52
2.61
1.53
0.39
-0.69
-1.60
-2.32
-2.89
-3.38
-3.83
-4.23
-4.54
-4.68
-4.59
-4.25
-3.67
-2.90
-2.03
-1.12
-0.23
0.60
1.38
2.11
2.83
3.57
4.29
4.94
5.39
5.59
5.50
5.23
4.93
4.76
4.82
5.10
5.50
5.87
6.07
6.04
5.77
5.28
4.64
3.90
3.15
2.46
1.89
1.43
1.05
0.72
0.42
0.14
-0.09
-0.28
-0.46
-0.67
-0.93
-1.25
-1.62
-2.01
-2.40
-2.73
-2.96
-3.02
-2.87
-2.48
-1.90
-1.18
-0.38
0.47
1.31
2.08
2.73
3.22
3.58
3.87
4.21
4.62
5.10
5.57
5.95
6.17
6.26
6.29
6.33
6.44
6.62
6.83
7.02
7.09
6.97
6.58
5.86
4.82
3.51
1.99
0.30
-1.51
-3.44
-5.39
-7.24
-8.77
-9.80
-10.25
-10.19
-9.81
-9.35
-9.00
-8.82
-8.77
-8.79
-8.82
-8.81
-8.76
-8.65
-8.44
-8.06
-7.42
-6.46
-5.17
-3.60
-1.86
-0.12
1.46
2.79
3.83
4.65
5.33
5.93
6.47
6.93
7.30
7.54
7.69
7.73
7.62
7.24
6.49
5.29
3.66
1.73
-0.30
-2.20
-3.82
-5.04
-5.84
-6.21
-6.21
-5.93
-5.48
-5.01
-4.63
-4.42
-4.39
-4.50
-4.70
-4.90
-5.03
-5.00
-4.75
-4.28
-3.71
-3.21
-2.98
-3.15
-3.70
-4.48
-5.27
-5.86
-6.17
-6.19
-6.04
-5.84
-5.74
-5.84
-6.24
-7.00
-8.16
-9.68
-11.47
-13.37
-15.21
-16.82
-18.10
-19.04
-19.75
-20.40
-21.15
-22.11
-23.20
-24.23
-24.89
-24.97
-24.41
-23.43
-22.38
-21.62
-21.33
-21.35
-21.25
-20.55
-18.93
-16.40
-13.35
-10.43
-8.23
-7.14
-7.17
-7.94
-8.85
-9.22
-8.47
-6.18
-2.20
3.34
9.67
15.52
19.18
19.06
14.47
6.13
-3.88
-12.88
-18.77
-20.83
-19.74
-16.77
-12.80
-7.74
-0.88
8.20
18.79
29.03
36.84
41.32
43.45
45.64
50.34
58.45
68.78
78.64
85.34
87.57
86.05
82.90
80.40
80.03
82.11
86.39
92.41
99.41
106.02
110.01
108.73
99.90
82.77
58.83
31.63
5.49
-16.22
-31.98
-42.08
-47.59
-49.53
-48.49
-44.95
-39.86
-35.23
-33.98
-38.63
-50.05
-65.38
-79.13
-86.35
-86.19
-82.08
-78.69
-78.97
-82.71
-87.86
-92.16
-94.70
-95.62
-94.64
-89.84
-78.01
-57.01
-27.57
5.90
36.92
59.59
70.92
71.58
64.84
55.24
44.40
32.85
20.60
8.15
-3.13
-11.38
-14.93
-13.11
-6.50
2.95
12.69
20.16
23.57
22.32
17.09
9.55
1.76
-4.50
-8.27
-9.22
-7.59
-3.95
1.06
6.31
10.45
12.24
10.95
6.57
0.04
-7.16
-13.52
-17.93
-20.06
-20.27
-19.34
-18.02
-16.77
-15.54
-13.95
-11.65
-8.48
-4.71
-0.78
2.75
5.43
6.96
7.26
6.46
4.82
2.68
0.43
-1.56
-3.07
-4.05
-4.54
-4.67
-4.54
-4.22
-3.71
-3.06
-2.31
-1.50
-0.61
0.43
1.64
3.00
4.39
5.61
6.51
7.00
7.16
7.11
6.96
6.74
6.44
6.01
5.47
4.87
4.28
3.72
3.16
2.58
1.98
1.44
1.02
0.79
0.72
0.71
0.66
0.50
0.21
-0.17
-0.59
-1.04
-1.53
-2.06
-2.57
-2.96
-3.12
-2.97
-2.54
-1.92
-1.22
-0.56
0.03
0.57
1.15
1.81
2.57
3.39
4.22
5.00
5.68
6.23
6.61
6.78
6.73
6.50
6.16
5.81
5.51
5.28
5.14
5.05
5.00
4.98
4.99
4.98
4.91
4.69
4.28
3.69
2.98
2.30
1.74
1.38
1.17
0.99
0.72
0.25
-0.40
-1.15
-1.89
-2.54
-3.06
-3.44
-3.65
-3.62
-3.28
-2.59
-1.61
-0.51
0.50
1.29
1.82
2.16
2.46
2.82
3.25
3.69
4.07
4.35
4.54
4.69
4.86
5.06
5.30
5.53
5.69
5.74
5.70
5.58
5.45
5.31
5.17
4.99
4.71
4.31
3.81
3.27
2.76
2.38
2.13
2.01
1.93
1.82
1.61
1.33
1.02
0.71
0.43
0.16
-0.14
-0.53
-0.99
-1.52
-2.09
-2.67
-3.25
-3.82
-4.35
-4.78
-5.09
-5.24
-5.25
-5.13
-4.87
-4.48
-3.95
-3.28
-2.50
-1.64
-0.75
0.11
0.89
1.53
2.03
2.40
2.69
2.97
3.23
3.49
3.72
3.87
3.95
3.93
3.80
3.59
3.33
3.08
2.91
2.82
2.81
2.82
2.79
2.69
2.51
2.31
2.13
1.95
1.77
1.53
1.21
0.83
0.46
0.14
-0.08
-0.22
-0.32
-0.40
-0.46
-0.47
-0.43
-0.41
-0.47
-0.73
-1.20
-1.80
-2.39
-2.85
-3.12
-3.23
-3.31
-3.42
-3.58
-3.75
-3.84
-3.83
-3.70
-3.48
-3.17
-2.74
-2.14
-1.39
-0.57
0.16
0.69
0.98
1.09
1.18
1.39
1.79
2.31
2.82
3.20
3.39
3.42
3.34
3.24
3.12
2.97
2.77
2.57
2.46
2.51
2.72
3.00
3.16
3.02
2.53
1.80
1.05
0.53
0.36
0.49
0.73
0.87
0.76
0.43
-0.01
-0.41
-0.70
-0.94
-1.22
-1.64
-2.19
-2.77
-3.26
-3.57
-3.74
-3.83
-3.91
-3.97
-3.95
-3.74
-3.30
-2.69
-1.98
-1.31
-0.72
-0.27
0.06
0.29
0.46
0.62
0.79
1.00
1.24
1.45
1.54
1.47
1.24
0.96
0.77
0.81
1.11
1.62
2.21
2.72
3.05
3.15
3.05
2.82
2.52
2.23
1.98
1.80
1.69
1.57
1.39
1.08
0.65
0.15
-0.30
-0.61
-0.74
-0.74
-0.70
-0.71
-0.82
-1.04
-1.34
-1.67
-2.01
-2.33
-2.62
-2.82
-2.87
-2.70
-2.29
-1.69
-1.02
-0.40
0.06
0.36
0.54
0.69
0.86
1.03
1.17
1.21
1.16
1.07
1.00
1.01
1.12
1.29
1.46
1.56
1.58
1.52
1.42
1.38
1.45
1.62
1.81
1.89
1.79
1.54
1.26
1.11
1.21
1.50
1.81
1.95
1.76
1.26
0.56
-0.13
-0.67
-0.97
-1.06
-1.01
-0.97
-1.02
-1.22
-1.56
-1.97
-2.42
-2.87
-3.28
-3.62
-3.78
-3.70
-3.28
-2.57
-1.67
-0.75
0.06
0.68
1.08
1.29
1.34
1.29
1.17
1.03
0.90
0.78
0.66
0.50
0.31
0.15
0.11
0.27
0.61
0.99
1.27
1.32
1.12
0.76
0.39
0.14
0.06
0.14
0.30
0.46
0.58
0.63
0.59
0.44
0.16
-0.19
-0.54
-0.81
-0.97
-1.07
-1.20
-1.42
-1.73
-2.02
-2.17
-2.07
-1.71
-1.18
-0.61
-0.11
0.27
0.56
0.81
1.07
1.35
1.59
1.70
1.62
1.36
1.03
0.78
0.75
1.01
1.49
2.03
2.43
2.55
2.32
1.83
1.22
0.69
0.37
0.31
0.42
0.60
0.70
0.67
0.51
0.27
0.00
-0.29
-0.63
-1.00
-1.38
-1.71
-1.94
-2.09
-2.23
-2.46
-2.80
-3.20
-3.52
-3.63
-3.44
-2.99
-2.38
-1.75
-1.18
-0.69
-0.24
0.18
0.55
0.81
0.91
0.85
0.71
0.60
0.62
0.79
1.06
1.33
1.51
1.54
1.40
1.14
0.83
0.58
0.48
0.56
0.77
0.98
1.08
0.97
0.69
0.33
-0.03
-0.34
-0.62
-0.90
-1.20
-1.52
-1.87
-2.28
-2.78
-3.35
-3.89
-4.26
-4.32
-4.02
-3.40
-2.60
-1.77
-1.03
-0.42
0.08
0.49
0.85
1.18
1.44
1.63
1.77
1.92
2.14
2.49
2.90
3.24
3.35
3.15
2.73
2.30
2.05
2.08
2.28
2.47
2.47
2.22
1.79
1.30
0.84
0.38
-0.14
-0.75
-1.43
-2.10
-2.68
-3.11
-3.40
-3.62
-3.79
-3.94
-4.10
-4.25
-4.35
-4.31
-3.98
-3.20
-1.92
-0.22
1.66
3.38
4.59
5.06
4.75
3.80
2.48
1.15
0.15
-0.30
-0.06
0.79
2.05
3.37
4.40
4.88
4.68
3.89
2.70
1.36
0.09
-0.98
-1.82
-2.40
-2.68
-2.60
-2.14
-1.35
-0.44
0.33
0.69
0.54
-0.08
-0.93
-1.78
-2.44
-2.84
-3.03
-3.08
-3.05
-2.99
-2.90
-2.82
-2.76
-2.73
-2.69
-2.56
-2.28
-1.84
-1.34
-0.88
-0.55
-0.32
-0.11
0.18
0.59
1.04
1.42
1.63
1.68
1.66
1.68
1.81
2.01
2.19
2.27
2.19
1.98
1.66
1.28
0.87
0.47
0.16
0.01
0.06
0.29
0.59
0.83
0.89
0.73
0.36
-0.12
-0.58
-0.89
-0.99
-0.87
-0.61
-0.31
-0.06
0.06
0.04
-0.08
-0.26
-0.43
-0.58
-0.69
-0.82
-1.03
-1.39
-1.88
-2.42
-2.88
-3.11
-3.12
-2.97
-2.82
-2.77
-2.85
-2.98
-3.04
-2.95
-2.70
-2.33
-1.92
-1.53
-1.18
-0.86
-0.56
-0.24
0.13
0.54
0.97
1.35
1.60
1.71
1.74
1.77
1.92
2.22
2.63
3.05
3.38
3.55
3.50
3.22
2.75
2.17
1.61
1.23
1.10
1.23
1.50
1.75
1.87
1.82
1.72
1.68
1.81
2.05
2.27
2.32
2.10
1.66
1.11
0.62
0.26
0.05
-0.11
-0.29
-0.51
-0.74
-0.93
-1.04
-1.08
-1.14
-1.28
-1.53
-1.91
-2.37
-2.87
-3.33
-3.71
-3.95
-4.03
-3.99
-3.88
-3.77
-3.67
-3.54
-3.29
-2.84
-2.21
-1.47
-0.78
-0.22
0.17
0.44
0.64
0.83
1.00
1.14
1.24
1.34
1.46
1.63
1.84
2.03
2.19
2.29
2.36
2.41
2.44
2.46
2.43
2.33
2.17
1.93
1.65
1.35
1.08
0.88
0.81
0.88
1.05
1.24
1.37
1.39
1.29
1.10
0.87
0.64
0.39
0.10
-0.21
-0.51
-0.69
-0.66
-0.38
0.07
0.52
0.80
0.81
0.58
0.24
-0.04
-0.17
-0.17
-0.15
-0.23
-0.43
-0.69
-0.91
-0.99
-0.91
-0.76
-0.62
-0.57
-0.64
-0.78
-0.87
-0.86
-0.72
-0.46
-0.15
0.13
0.38
0.58
0.78
0.97
1.12
1.19
1.16
1.04
0.88
0.75
0.68
0.66
0.67
0.67
0.65
0.61
0.53
0.39
0.18
-0.10
-0.40
-0.60
-0.65
-0.52
-0.27
-0.06
-0.01
-0.21
-0.64
-1.21
-1.75
-2.08
-2.11
-1.83
-1.32
-0.75
-0.29
-0.10
-0.24
-0.66
-1.27
-1.93
-2.50
-2.93
-3.15
-3.18
-3.03
-2.75
-2.40
-2.06
-1.78
-1.58
-1.43
-1.29
-1.13
-0.96
-0.81
-0.70
-0.62
-0.52
-0.36
-0.11
0.25
0.69
1.16
1.61
1.95
2.12
2.10
1.90
1.60
1.31
1.08
0.96
0.89
0.86
0.86
0.91
1.03
1.19
1.33
1.34
1.17
0.82
0.36
-0.09
-0.40
-0.53
-0.50
-0.40
-0.34
-0.41
-0.63
-0.94
-1.25
-1.47
-1.55
-1.56
-1.57
-1.67
-1.89
-2.18
-2.44
-2.60
-2.61
-2.48
-2.30
-2.12
-1.95
-1.76
-1.51
-1.16
-0.75
-0.38
-0.12
-0.00
0.04
0.08
0.23
0.47
0.74
0.92
0.89
0.64
0.26
-0.08
-0.22
-0.08
0.31
0.82
1.28
1.55
1.59
1.42
1.16
0.95
0.85
0.90
1.02
1.10
1.06
0.84
0.50
0.11
-0.24
-0.50
-0.67
-0.79
-0.88
-0.94
-0.93
-0.84
-0.70
-0.58
-0.57
-0.73
-1.07
-1.47
-1.84
-2.10
-2.21
-2.20
-2.15
-2.09
-2.01
-1.89
-1.70
-1.45
-1.19
-0.97
-0.78
-0.58
-0.27
0.18
0.71
1.18
1.41
1.34
1.03
0.65
0.41
0.42
0.67
1.03
1.40
1.69
1.90
2.05
2.16
2.20
2.13
1.97
1.73
1.48
1.29
1.16
1.11
1.09
1.06
0.97
0.77
0.46
0.09
-0.22
-0.39
-0.34
-0.15
0.03
0.04
-0.20
-0.65
-1.20
-1.68
-2.03
-2.24
-2.38
-2.53
-2.68
-2.82
-2.90
-2.90
-2.82
-2.71
-2.60
-2.50
-2.41
-2.32
-2.27
-2.30
-2.50
-2.91
-3.49
-4.13
-4.63
-4.76
-4.39
-3.55
-2.39
-1.14
0.01
0.99
1.82
2.57
3.22
3.69
3.82
3.54
2.89
2.02
1.16
0.48
0.09
0.02
0.22
0.63
1.17
1.76
2.32
2.83
3.32
3.89
4.62
5.50
6.34
6.83
6.67
5.66
3.86
1.52
-0.93
-3.05
-4.48
-5.07
-4.83
-3.94
-2.65
-1.18
0.30
1.70
2.92
3.81
4.18
3.87
2.88
1.41
-0.14
-1.34
-1.87
-1.68
-0.94
0.04
1.01
1.84
2.56
3.28
4.04
4.80
5.41
5.74
5.67
5.18
4.35
3.32
2.24
1.21
0.31
-0.42
-0.96
-1.34
-1.60
-1.82
-2.08
-2.44
-2.90
-3.38
-3.79
-4.03
-4.03
-3.81
-3.43
-2.99
-2.56
-2.22
-2.00
-1.92
-1.97
-2.09
-2.21
-2.22
-2.05
-1.64
-1.09
-0.51
-0.06
0.22
0.38
0.52
0.77
1.12
1.50
1.77
1.85
1.74
1.53
1.36
1.26
1.20
1.10
0.87
0.51
0.08
-0.33
-0.68
-0.94
-1.11
-1.18
-1.14
-0.99
-0.77
-0.56
-0.47
-0.58
-0.89
-1.30
-1.69
-1.92
-1.96
-1.83
-1.64
-1.49
-1.41
-1.38
-1.29
-1.08
-0.73
-0.31
0.06
0.28
0.38
0.41
0.49
0.68
0.95
1.22
1.38
1.41
1.35
1.25
1.18
1.13
1.07
0.95
0.76
0.55
0.36
0.25
0.23
0.26
0.31
0.31
0.21
-0.01
-0.38
-0.88
-1.47
-2.07
-2.59
-2.93
-3.03
-2.87
-2.45
-1.84
-1.13
-0.42
0.18
0.63
0.88
0.99
1.01
1.00
0.97
0.92
0.85
0.78
0.75
0.81
0.97
1.17
1.33
1.38
1.31
1.16
0.97
0.80
0.63
0.49
0.36
0.32
0.41
0.61
0.88
1.07
1.14
1.06
0.91
0.80
0.78
0.80
0.75
0.55
0.21
-0.18
-0.52
-0.75
-0.90
-1.05
-1.28
-1.59
-1.90
-2.10
-2.12
-2.01
-1.88
-1.86
-2.03
-2.33
-2.62
-2.71
-2.50
-1.98
-1.23
-0.40
0.38
1.01
1.45
1.65
1.61
1.36
1.01
0.69
0.54
0.61
0.86
1.17
1.44
1.61
1.72
1.82
1.97
2.15
2.29
2.33
2.24
2.04
1.76
1.47
1.20
0.98
0.82
0.72
0.68
0.67
0.67
0.65
0.58
0.41
0.17
-0.13
-0.43
-0.66
-0.79
-0.81
-0.81
-0.85
-1.01
-1.29
-1.67
-2.07
-2.44
-2.72
-2.89
-2.90
-2.74
-2.40
-1.94
-1.42
-0.92
-0.51
-0.20
0.01
0.19
0.38
0.57
0.75
0.91
1.04
1.17
1.34
1.53
1.72
1.82
1.77
1.56
1.25
0.92
0.65
0.51
0.52
0.66
0.92
1.26
1.61
1.85
1.91
1.74
1.41
1.06
0.80
0.69
0.66
0.61
0.47
0.23
-0.02
-0.19
-0.23
-0.19
-0.13
-0.16
-0.28
-0.46
-0.67
-0.88
-1.11
-1.37
-1.69
-2.02
-2.31
-2.52
-2.60
-2.56
-2.44
-2.29
-2.14
-2.01
-1.88
-1.71
-1.49
-1.25
-1.02
-0.82
-0.62
-0.38
-0.09
0.23
0.46
0.50
0.31
-0.04
-0.41
-0.62
-0.59
-0.37
-0.14
-0.06
-0.26
-0.72
-1.30
-1.81
-2.11
-2.16
-2.10
-2.16
-2.61
-3.59
-5.10
-6.93
-8.74
-10.21
-11.17
-11.75
-12.28
-13.20
-14.83
-17.19
-20.00
-22.74
-24.94
-26.41
-27.35
-28.33
-30.04
-33.03
-37.52
-43.37
-50.15
-57.31
-64.24
-70.30
-74.80
-77.05
-76.56
-73.19
-67.20
-59.11
-49.46
-38.74
-27.46
-16.42
-6.83
-0.22
1.96
-1.09
-8.75
-18.58
-26.78
-29.32
-23.49
-9.06
11.60
34.33
54.83
70.24
80.04
85.53
88.74
91.20
93.37
95.09
95.99
96.00
95.47
95.15
95.36
95.77
95.82
95.15
94.23
93.76
93.95
94.18
93.70
91.18
85.15
74.80
60.26
43.68
27.78
14.89
6.36
3.44
5.89
11.75
17.97
21.17
20.23
15.48
8.54
2.13
0.77
7.80
23.67
45.64
68.55
88.73
103.85
113.26
108.42
86.62
52.72
16.11
-10.98
-30.07
-43.70
-53.44
-60.96
-66.75
-69.85
-69.85
-67.38
-63.73
-60.65
-58.01
-55.50
-53.27
-51.79
-50.53
-49.15
-47.88
-47.38
-48.60
-50.87
-53.18
-54.69
-54.76
-52.47
-47.55
-40.78
-33.68
-28.12
-24.75
-23.62
-24.36
-26.28
-28.23
-29.08
-28.05
-24.87
-20.00
-14.13
-8.41
-4.20
-2.47
-3.36
-6.19
-9.90
-13.52
-16.65
-19.29
-21.70
-24.06
-26.15
-27.44
-27.32
-25.56
-22.47
-18.90
-15.79
-13.86
-13.30
-13.77
-14.61
-15.16
-15.07
-14.27
-13.02
-11.63
-10.40
-9.41
-8.58
-7.69
-6.48
-4.79
-2.67
-0.44
1.50
2.74
3.09
2.70
1.96
1.38
1.41
2.26
3.90
6.14
8.70
11.38
14.09
16.86
19.80
22.94
26.18
29.26
31.81
33.47
34.03
33.52
32.21
30.50
28.76
27.21
25.87
24.64
23.41
22.16
20.95
19.88
19.03
18.38
17.91
17.55
17.29
17.10
16.93
16.70
16.30
15.63
14.62
13.28
11.64
9.77
7.74
5.64
3.64
1.85
0.40
-0.72
-1.62
-2.46
-3.33
-4.23
-5.03
-5.54
-5.66
-5.40
-4.93
-4.52
-4.40
-4.71
-5.42
-6.42
-7.52
-8.59
-9.53
-10.28
-10.79
-11.02
-10.99
-10.83
-10.75
-10.96
-11.57
-12.48
-13.40
-13.93
-13.81
-13.04
-11.86
-10.68
-9.86
-9.55
-9.68
-10.06
-10.48
-10.82
-11.05
-11.15
-11.12
-10.94
-10.61
-10.26
-10.04
-10.07
-10.34
-10.68
-10.78
-10.39
-9.36
-7.74
-5.69
-3.44
-1.19
0.84
2.41
3.30
3.36
2.66
1.51
0.37
-0.32
-0.34
0.22
1.00
1.59
1.63
1.01
-0.18
-1.64
-3.03
-3.99
-4.30
-3.92
-2.98
-1.77
-0.68
-0.04
-0.04
-0.63
-1.53
-2.35
-2.71
-2.40
-1.47
-0.18
1.08
1.91
2.06
1.51
0.47
-0.73
-1.69
-2.13
-1.90
-1.08
0.08
1.23
2.00
2.19
1.80
1.02
0.15
-0.48
-0.66
-0.34
0.37
1.26
2.04
2.46
2.36
1.72
0.64
-0.62
-1.77
-2.52
-2.71
-2.29
-1.39
-0.26
0.80
1.49
1.61
1.10
0.10
-1.10
-2.14
-2.77
-2.90
-2.63
-2.22
-1.95
-2.00
-2.44
-3.18
-4.12
-5.09
-5.94
-6.49
-6.59
-6.10
-5.04
-3.56
-1.92
-0.44
0.68
1.33
1.60
1.59
1.47
1.32
1.22
1.16
1.14
1.09
0.93
0.55
-0.11
-1.00
-1.98
-2.83
-3.36
-3.49
-3.26
-2.80
-2.26
-1.75
-1.30
-0.87
-0.38
0.22
0.98
1.89
2.89
3.85
4.58
4.84
4.45
3.38
1.81
0.08
-1.37
-2.23
-2.40
-1.99
-1.22
-0.33
0.51
1.22
1.74
2.03
2.08
1.92
1.68
1.56
1.71
2.21
2.97
3.79
4.45
4.75
4.64
4.18
3.57
3.02
2.76
2.90
3.41
4.15
4.95
5.66
6.23
6.60
6.75
6.61
6.14
5.39
4.58
4.00
3.95
4.57
5.76
7.23
8.61
9.55
9.84
9.44
8.33
6.54
4.10
1.03
-2.53
-6.33
-9.98
-13.07
-15.29
-16.51
-16.83
-16.46
-15.66
-14.64
-13.51
-12.30
-11.00
-9.57
-7.94
-6.08
-3.93
-1.52
1.05
3.58
5.86
7.66
8.88
9.49
9.54
9.17
8.51
7.72
6.88
5.99
4.96
3.66
2.02
0.07
-2.01
-3.98
-5.59
-6.70
-7.27
-7.35
-7.00
-6.21
-4.96
-3.18
-0.93
1.61
4.12
6.23
7.63
8.18
7.92
7.00
5.60
3.85
1.81
-0.43
-2.77
-5.05
-7.16
-9.04
-10.74
-12.29
-13.64
-14.61
-15.02
-14.77
-13.92
-12.62
-11.02
-9.08
-6.71
-3.79
-0.40
3.20
6.61
9.52
11.78
13.45
14.67
15.51
15.92
15.75
14.93
13.51
11.71
9.78
7.92
6.14
4.35
2.45
0.42
-1.62
-3.48
-4.99
-6.07
-6.80
-7.29
-7.62
-7.78
-7.64
-7.07
-6.01
-4.49
-2.58
-0.38
2.06
4.66
7.28
9.67
11.54
12.63
12.83
12.23
11.08
9.67
8.23
6.85
5.49
4.06
2.48
0.79
-0.88
-2.37
-3.53
-4.35
-4.91
-5.36
-5.84
-6.39
-7.00
-7.57
-8.02
-8.25
-8.18
-7.78
-7.00
-5.87
-4.44
-2.84
-1.24
0.13
1.10
1.56
1.54
1.21
0.81
0.57
0.59
0.82
1.10
1.20
0.97
0.36
-0.53
-1.57
-2.64
-3.66
-4.61
-5.45
-6.09
-6.43
-6.36
-5.88
-5.07
-4.09
-3.12
-2.25
-1.52
-0.86
-0.25
0.33
0.87
1.35
1.73
1.99
2.08
1.98
1.69
1.27
0.75
0.18
-0.48
-1.27
-2.22
-3.29
-4.39
-5.41
-6.33
-7.10
-7.74
-8.16
-8.23
-7.84
-6.92
-5.56
-3.93
-2.26
-0.67
0.79
2.18
3.54
4.86
6.10
7.16
7.99
8.59
8.99
9.20
9.24
9.06
8.67
8.10
7.39
6.58
5.61
4.39
2.85
1.02
-0.92
-2.69
-4.04
-4.91
-5.35
-5.58
-5.77
-6.02
-6.32
-6.55
-6.61
-6.43
-6.04
-5.49
-4.84
-4.12
-3.34
-2.46
-1.48
-0.45
0.51
1.24
1.63
1.63
1.37
1.08
0.98
1.21
1.75
2.44
3.06
3.43
3.46
3.15
2.55
1.69
0.63
-0.61
-1.93
-3.17
-4.15
-4.68
-4.67
-4.15
-3.23
-2.05
-0.78
0.47
1.58
2.46
3.06
3.35
3.41
3.34
3.31
3.39
3.59
3.79
3.88
3.75
3.42
2.96
2.53
2.22
2.09
2.11
2.25
2.44
2.64
2.83
2.97
3.01
2.88
2.52
1.90
1.08
0.22
-0.47
-0.82
-0.68
-0.06
0.92
2.08
3.18
4.07
4.68
5.08
5.38
5.74
6.23
6.85
7.51
8.08
8.46
8.53
8.24
7.55
6.53
5.32
4.16
3.27
2.78
2.63
2.61
2.42
1.83
0.81
-0.50
-1.91
-3.22
-4.39
-5.42
-6.37
-7.22
-7.91
-8.32
-8.34
-7.91
-7.06
-5.94
-4.77
-3.82
-3.32
-3.39
-4.03
-5.13
-6.51
-8.04
-9.64
-11.29
-13.05
-14.97
-17.01
-19.03
-20.74
-21.77
-21.80
-20.65
-18.40
-15.34
-11.86
-8.24
-4.56
-0.68
3.60
8.43
13.78
19.50
25.30
30.86
35.79
39.68
42.16
43.05
42.55
41.12
39.33
37.42
35.12
31.85
27.08
20.85
13.85
7.13
1.52
-2.70
-5.88
-8.58
-11.29
-14.27
-17.81
-22.41
-28.75
-37.26
-47.59
-58.46
-67.97
-74.41
-76.96
-76.01
-72.76
-68.54
-64.09
-59.42
-54.01
-47.42
-39.64
-31.20
-22.81
-14.95
-7.52
0.15
8.80
18.68
29.13
38.56
45.02
46.96
43.89
36.66
27.08
17.33
9.22
3.71
0.84
-0.06
0.07
0.45
0.70
0.82
1.03
1.51
2.21
2.81
2.98
2.58
1.85
1.29
1.38
2.33
3.88
5.47
6.53
6.76
6.29
5.52
4.90
4.68
4.78
4.93
4.83
4.34
3.54
2.68
2.02
1.72
1.74
1.97
2.23
2.45
2.60
2.73
2.88
3.01
3.07
3.01
2.79
2.46
2.02
1.51
0.91
0.23
-0.50
-1.20
-1.78
-2.19
-2.45
-2.68
-2.99
-3.42
-3.90
-4.30
-4.51
-4.50
-4.35
-4.17
-4.10
-4.12
-4.18
-4.21
-4.15
-4.01
-3.83
-3.65
-3.46
-3.23
-2.95
-2.64
-2.29
-1.81
-0.98
0.51
2.94
6.41
10.78
15.73
20.83
25.71
30.06
33.62
36.16
37.38
37.05
35.09
31.65
27.09
21.96
16.80
12.07
8.05
4.89
2.56
0.97
-0.01
-0.54
-0.74
-0.76
-0.72
-0.74
-0.89
-1.17
-1.50
-1.76
-1.88
-1.82
-1.62
-1.36
-1.11
-0.93
-0.83
-0.80
-0.82
-0.85
-0.87
-0.86
-0.80
-0.69
-0.55
-0.39
-0.24
-0.06
0.16
0.43
0.70
0.90
0.99
0.91
0.71
0.47
0.30
0.28
0.41
0.60
0.70
0.58
0.16
-0.54
-1.37
-2.19
-2.83
-3.23
-3.41
-3.47
-3.51
-3.58
-3.69
-3.75
-3.71
-3.50
-3.12
-2.61
-2.04
-1.47
-1.00
-0.70
-0.63
-0.83
-1.19
-1.58
-1.80
-1.74
-1.39
-0.90
-0.49
-0.29
-0.29
-0.28
0.02
0.80
2.06
3.54
4.87
5.73
5.99
5.77
5.44
5.50
6.52
8.98
13.17
19.04
26.11
33.60
40.61
46.44
50.89
54.20
56.91
59.48
61.97
63.98
64.76
63.50
59.67
53.13
44.17
33.35
21.34
8.84
-3.45
-14.78
-24.40
-31.68
-36.33
-38.49
-38.76
-38.02
-37.10
-36.55
-36.52
-36.86
-37.28
-37.52
-37.41
-36.85
-35.76
-34.06
-31.79
-29.07
-26.16
-23.31
-20.72
-18.44
-16.37
-14.32
-12.15
-9.80
-7.34
-4.92
-2.69
-0.75
0.86
2.20
3.38
4.54
5.82
7.35
9.19
11.29
13.54
15.74
17.73
19.42
20.86
22.19
23.55
25.01
26.47
27.71
28.45
28.45
27.57
25.79
23.19
19.93
16.25
12.43
8.78
5.58
2.95
0.79
-1.31
-3.97
-7.73
-12.84
-18.95
-25.19
-30.44
-33.80
-34.92
-34.14
-32.18
-29.83
-27.56
-25.50
-23.60
-21.83
-20.32
-19.26
-18.70
-18.46
-18.20
-17.62
-16.64
-15.45
-14.40
-13.70
-13.37
-13.17
-12.80
-12.06
-10.96
-9.75
-8.73
-8.16
-8.11
-8.45
-8.86
-9.02
-8.69
-7.84
-6.66
-5.42
-4.37
-3.58
-2.96
-2.33
-1.53
-0.54
0.57
1.69
2.76
3.80
4.90
6.10
7.36
8.58
9.60
10.33
10.76
11.00
11.17
11.41
11.76
12.23
12.80
13.43
14.11
14.81
15.48
15.97
16.06
15.56
14.36
12.53
10.31
8.05
6.01
4.34
2.98
1.78
0.58
-0.70
-1.98
-3.16
-4.12
-4.88
-5.53
-6.16
-6.83
-7.48
-8.00
-8.26
-8.26
-8.06
-7.83
-7.72
-7.80
-8.04
-8.36
-8.66
-8.87
-8.99
-9.01
-8.88
-8.56
-7.98
-7.18
-6.24
-5.31
-4.54
-4.02
-3.74
-3.68
-3.77
-3.95
-4.19
-4.41
-4.57
-4.58
-4.40
-4.03
-3.46
-2.72
-1.84
-0.86
0.14
1.09
1.90
2.55
3.06
3.49
3.91
4.35
4.82
5.29
5.74
6.17
6.58
6.95
7.27
7.51
7.64
7.67
7.58
7.38
7.04
6.55
5.89
5.14
4.39
3.77
3.32
2.99
2.65
2.14
1.44
0.67
0.07
-0.17
0.05
0.61
1.26
1.78
2.07
2.18
2.27
2.50
2.89
3.42
3.97
4.44
4.77
4.89
4.78
4.46
4.03
3.66
3.56
3.83
4.45
5.21
5.81
5.99
5.60
4.64
3.23
1.60
-0.05
-1.53
-2.76
-3.69
-4.38
-4.95
-5.50
-6.16
-6.92
-7.78
-8.63
-9.42
-10.07
-10.57
-10.86
-10.90
-10.61
-9.93
-8.85
-7.40
-5.69
-3.87
-2.11
-0.53
0.81
1.88
2.73
3.40
4.00
4.58
5.16
5.71
6.15
6.37
6.27
5.88
5.36
4.95
4.85
5.09
5.43
5.41
4.55
2.58
-0.37
-3.77
-6.87
-9.02
-10.00
-10.04
-9.77
-9.82
-10.56
-11.87
-13.19
-13.85
-13.33
-11.64
-9.33
-7.33
-6.54
-7.40
-9.69
-12.51
-14.76
-15.57
-14.74
-12.77
-10.60
-9.27
-9.72
-12.72
-18.84
-28.21
-39.98
-52.11
-61.53
-65.18
-61.40
-50.97
-37.00
-23.51
-13.53
-7.74
-4.42
-0.88
4.71
12.22
19.81
25.22
27.25
26.35
24.24
22.71
22.70
23.98
25.63
26.87
27.55
28.16
29.33
31.40
34.11
36.70
38.35
38.54
37.31
35.30
33.42
32.53
33.04
34.78
37.03
38.90
39.74
39.47
38.55
37.76
37.77
38.76
40.33
41.71
42.19
41.46
39.81
38.01
36.92
37.15
38.77
41.14
42.94
42.27
37.04
25.71
8.03
-14.37
-38.06
-58.72
-72.53
-77.47
-73.93
-64.33
-51.96
-39.73
-29.43
-21.62
-16.12
-12.51
-10.41
-9.39
-8.82
-7.85
-5.63
-1.64
4.00
10.63
17.19
22.71
26.67
29.15
30.79
32.50
35.09
39.06
44.34
50.43
56.58
62.08
66.52
69.92
72.64
75.17
77.86
80.74
83.52
85.76
87.12
87.63
87.79
88.39
90.03
92.71
95.41
96.21
92.76
82.97
65.65
40.72
9.14
-27.19
-65.65
-102.98
-135.68
-160.68
-176.15
-182.12
-180.50
-174.26
-166.24
-158.14
-150.27
-142.02
-132.75
-122.38
-111.46
-100.82
-91.03
-82.17
-73.96
-66.13
-58.63
-51.67
-45.57
-40.53
-36.54
-33.50
-31.41
-30.55
-31.31
-33.97
-38.36
-43.80
-49.17
-53.21
-54.86
-53.49
-48.98
-41.64
-32.19
-21.66
-11.20
-1.88
5.62
11.14
15.06
18.01
20.54
22.80
24.56
25.46
25.30
24.31
23.06
22.22
22.14
22.69
23.27
23.08
21.54
18.53
14.48
10.23
6.69
4.55
3.97
4.61
5.65
6.15
5.27
2.62
-1.60
-6.41
-10.26
-11.30
-7.97
0.28
12.61
26.68
39.22
46.93
47.55
40.56
27.27
10.34
-7.13
-22.39
-33.63
-39.98
-41.36
-38.19
-31.21
-21.47
-10.27
0.85
10.41
17.30
21.08
22.07
21.21
19.66
18.41
17.97
18.31
19.01
19.55
19.56
19.01
18.09
17.17
16.58
16.44
16.67
17.03
17.25
17.12
16.57
15.67
14.59
13.52
12.60
11.88
11.29
10.73
10.06
9.26
8.36
7.51
6.85
6.41
6.14
5.82
5.25
4.33
3.15
1.90
0.84
0.08
-0.42
-0.85
-1.40
-2.12
-2.93
-3.65
-4.10
-4.18
-3.93
-3.47
-2.90
-2.31
-1.71
-1.09
-0.45
0.16
0.70
1.11
1.37
1.53
1.63
1.72
1.79
1.81
1.76
1.65
1.57
1.59
1.81
2.20
2.66
3.04
3.24
3.23
3.08
2.86
2.65
2.44
2.18
1.80
1.28
0.68
0.10
-0.32
-0.52
-0.52
-0.44
-0.41
-0.51
-0.75
-1.06
-1.33
-1.49
-1.51
-1.36
-1.05
-0.54
0.16
1.02
1.93
2.80
3.48
3.91
4.04
3.93
3.64
3.28
2.97
2.76
2.67
2.65
2.67
2.70
2.73
2.77
2.80
2.79
2.66
2.39
1.99
1.50
0.98
0.48
-0.01
-0.50
-0.97
-1.36
-1.61
-1.71
-1.67
-1.56
-1.45
-1.37
-1.31
-1.25
-1.15
-0.99
-0.81
-0.65
-0.58
-0.66
-0.92
-1.36
-1.93
-2.55
-3.10
-3.50
-3.75
-3.86
-3.93
-3.96
-3.93
-3.72
-3.26
-2.51
-1.58
-0.61
0.22
0.85
1.27
1.54
1.76
1.97
2.23
2.54
2.89
3.27
3.58
3.77
3.79
3.64
3.39
3.14
2.97
2.92
2.98
3.14
3.41
3.77
4.22
4.65
4.96
5.03
4.78
4.25
3.52
2.73
2.05
1.59
1.44
1.61
2.04
2.59
3.10
3.36
3.26
2.79
2.05
1.24
0.52
0.01
-0.32
-0.56
-0.82
-1.11
-1.41
-1.65
-1.78
-1.87
-2.02
-2.34
-2.83
-3.40
-3.92
-4.24
-4.31
-4.14
-3.75
-3.21
-2.54
-1.81
-1.06
-0.31
0.43
1.18
1.97
2.77
3.50
4.07
4.46
4.74
5.07
5.56
6.24
7.01
7.73
8.33
8.80
9.28
9.87
10.62
11.49
12.45
13.48
14.59
15.82
17.05
18.10
18.64
18.38
17.14
14.93
11.94
8.56
5.22
2.31
0.08
-1.41
-2.28
-2.79
-3.18
-3.65
-4.27
-5.04
-5.89
-6.78
-7.66
-8.47
-9.15
-9.64
-9.96
-10.16
-10.31
-10.49
-10.69
-10.85
-10.88
-10.79
-10.61
-10.46
-10.45
-10.61
-10.95
-11.38
-11.81
-12.15
-12.29
-12.15
-11.68
-10.87
-9.77
-8.48
-7.12
-5.80
-4.63
-3.68
-2.94
-2.38
-1.91
-1.44
-0.94
-0.41
0.11
0.55
0.87
1.05
1.11
1.04
0.87
0.62
0.37
0.17
0.08
0.07
0.09
0.03
-0.18
-0.55
-1.03
-1.56
-2.13
-2.75
-3.45
-4.27
-5.21
-6.20
-7.14
-7.95
-8.59
-9.10
-9.56
-10.08
-10.69
-11.40
-12.14
-12.87
-13.58
-14.30
-15.06
-15.85
-16.64
-17.29
-17.60
-17.31
-16.10
-13.70
-9.98
-5.02
0.87
7.27
13.74
19.95
25.69
30.77
34.99
38.07
39.76
39.96
38.82
36.77
34.41
32.33
30.93
30.38
30.56
31.17
31.81
32.03
31.45
29.76
26.80
22.62
17.53
12.07
6.92
2.67
-0.37
-2.28
-3.56
-4.89
-6.90
-9.92
-13.92
-18.50
-23.13
-27.33
-30.73
-33.08
-34.25
-34.22
-33.05
-30.94
-28.21
-25.18
-22.11
-19.11
-16.15
-13.16
-10.10
-7.06
-4.17
-1.57
0.64
2.46
3.89
4.91
5.50
5.63
5.31
4.63
3.69
2.60
1.43
0.24
-0.84
-1.68
-2.08
-1.95
-1.30
-0.21
1.18
2.78
4.58
6.67
9.08
11.81
14.72
17.65
20.35
22.59
24.15
24.88
24.72
23.76
22.24
20.41
18.49
16.62
14.89
13.34
12.03
11.06
10.47
10.24
10.29
10.54
10.94
11.54
12.38
13.46
14.70
15.92
16.90
17.45
17.42
16.81
15.68
14.15
12.28
10.08
7.43
4.21
0.34
-4.12
-8.97
-13.90
-18.56
-22.65
-25.96
-28.41
-30.02
-30.97
-31.54
-31.99
-32.47
-32.90
-32.98
-32.32
-30.70
-28.18
-25.19
-22.30
-20.01
-18.50
-17.56
-16.74
-15.55
-13.69
-11.18
-8.31
-5.55
-3.34
-1.91
-1.26
-1.19
-1.36
-1.53
-1.58
-1.55
-1.57
-1.74
-2.09
-2.54
-2.99
-3.33
-3.53
-3.56
-3.41
-3.07
-2.52
-1.78
-0.94
-0.18
0.31
0.35
-0.14
-1.05
-2.15
-3.10
-3.64
-3.69
-3.44
-3.24
-3.42
-4.07
-5.02
-5.89
-6.33
-6.16
-5.48
-4.58
-3.78
-3.31
-3.26
-3.54
-3.96
-4.21
-4.00
-3.06
-1.25
1.36
4.48
7.73
10.67
12.98
14.42
14.90
14.45
13.21
11.42
9.36
7.25
5.23
3.34
1.62
0.17
-0.87
-1.41
-1.44
-1.17
-0.89
-0.86
-1.21
-1.81
-2.39
-2.63
-2.31
-1.37
0.08
1.81
3.53
4.99
5.99
6.41
6.23
5.52
4.40
3.08
1.72
0.46
-0.65
-1.61
-2.46
-3.19
-3.74
-3.99
-3.84
-3.27
-2.33
-1.14
0.20
1.57
2.93
4.28
5.69
7.28
9.14
11.31
13.67
15.94
17.71
18.59
18.36
17.05
14.88
12.19
9.33
6.56
4.05
1.88
0.05
-1.53
-3.09
-4.89
-7.10
-9.67
-12.32
-14.56
-15.96
-16.34
-15.81
-14.77
-13.63
-12.69
-12.00
-11.40
-10.66
-9.59
-8.15
-6.43
-4.62
-3.00
-1.78
-1.11
-0.96
-1.16
-1.46
-1.65
-1.59
-1.33
-1.03
-0.93
-1.23
-2.00
-3.16
-4.46
-5.56
-6.14
-6.01
-5.21
-4.01
-2.80
-1.90
-1.44
-1.31
-1.21
-0.82
0.05
1.38
2.95
4.43
5.52
5.96
5.71
4.84
3.60
2.29
1.19
0.49
0.23
0.30
0.45
0.41
0.02
-0.80
-1.91
-3.08
-4.04
-4.57
-4.54
-3.98
-3.02
-1.92
-0.96
-0.42
-0.47
-1.03
-1.78
-2.24
-1.96
-0.76
1.18
3.32
5.02
5.81
5.58
4.55
3.15
1.87
1.06
0.87
1.26
1.99
2.69
2.91
2.33
0.87
-1.23
-3.51
-5.42
-6.59
-6.89
-6.47
-5.57
-4.49
-3.44
-2.57
-1.97
-1.65
-1.55
-1.48
-1.19
-0.44
0.93
2.87
5.18
7.50
9.44
10.73
11.30
11.34
11.13
10.97
10.98
11.07
10.96
10.43
9.37
7.93
6.42
5.15
4.31
3.89
3.70
3.56
3.35
3.04
2.66
2.18
1.50
0.47
-1.05
-3.02
-5.24
-7.40
-9.21
-10.55
-11.48
-12.19
-12.91
-13.74
-14.67
-15.55
-16.21
-16.54
-16.50
-16.13
-15.50
-14.71
-13.82
-12.86
-11.80
-10.57
-9.05
-7.16
-4.89
-2.33
0.34
3.00
5.53
7.90
10.06
11.96
13.54
14.78
15.76
16.63
17.51
18.42
19.21
19.67
19.62
19.04
18.11
17.05
16.06
15.23
14.49
13.73
12.85
11.79
10.54
9.12
7.58
6.00
4.47
3.09
1.95
1.06
0.39
-0.18
-0.77
-1.49
-2.42
-3.60
-4.99
-6.52
-8.05
-9.48
-10.72
-11.73
-12.52
-13.16
-13.71
-14.20
-14.65
-14.99
-15.13
-14.94
-14.34
-13.38
-12.24
-11.17
-10.43
-10.15
-10.33
-10.80
-11.34
-11.73
-11.76
-11.28
-10.15
-8.38
-6.12
-3.71
-1.56
0.03
0.98
1.40
1.51
1.45
1.21
0.71
-0.05
-0.93
-1.69
-2.13
-2.23
-2.12
-1.99
-1.93
-1.86
-1.64
-1.22
-0.77
-0.55
-0.81
-1.61
-2.74
-3.87
-4.77
-5.43
-5.97
-6.55
-7.09
-7.29
-6.73
-5.08
-2.30
1.30
5.21
8.88
11.91
14.15
15.69
16.80
17.77
18.80
19.94
20.99
21.61
21.44
20.30
18.29
15.86
13.54
11.77
10.66
10.02
9.47
8.63
7.30
5.38
2.91
-0.01
-3.10
-5.85
-7.49
-7.32
-5.10
-1.24
3.21
7.07
9.58
10.76
11.27
11.96
13.30
15.09
16.52
16.64
14.93
11.54
7.29
3.27
0.35
-1.13
-1.39
-0.98
-0.44
-0.07
0.11
0.24
0.39
0.43
0.10
-0.84
-2.40
-4.36
-6.37
-8.21
-9.87
-11.50
-13.29
-15.28
-17.32
-19.10
-20.30
-20.72
-20.31
-19.22
-17.73
-16.15
-14.82
-14.01
-13.85
-14.25
-14.86
-15.19
-14.78
-13.44
-11.38
-9.15
-7.37
-6.39
-6.16
-6.23
-6.04
-5.25
-4.00
-2.77
-2.23
-2.80
-4.50
-6.95
-9.53
-11.79
-13.59
-15.17
-16.99
-19.53
-23.04
-27.40
-32.10
-36.28
-38.95
-39.25
-36.75
-31.64
-24.73
-17.21
-10.33
-5.00
-1.61
0.04
0.54
0.65
1.04
2.15
4.12
6.81
9.95
13.35
17.09
21.50
26.97
33.56
40.83
47.74
53.01
55.62
55.20
52.18
47.55
42.40
37.55
33.32
29.65
26.32
23.23
20.43
18.07
16.20
14.72
13.37
11.86
10.02
7.90
5.75
3.92
2.67
2.07
1.94
1.97
1.83
1.30
0.40
-0.64
-1.51
-1.94
-1.82
-1.27
-0.57
-0.06
0.04
-0.35
-1.08
-1.85
-2.40
-2.56
-2.38
-2.09
-1.96
-2.14
-2.63
-3.24
-3.74
-4.00
-4.04
-3.95
-3.82
-3.67
-3.45
-3.08
-2.59
-2.10
-1.75
-1.58
-1.56
-1.56
-1.42
-1.09
-0.62
-0.10
0.37
0.76
1.06
1.27
1.37
1.34
1.19
0.97
0.81
0.78
0.90
1.07
1.15
1.00
0.62
0.14
-0.26
-0.38
-0.20
0.21
0.65
0.99
1.14
1.13
1.07
1.06
1.13
1.32
1.62
2.05
2.59
3.18
3.63
3.74
3.30
2.28
0.84
-0.69
-1.99
-2.85
-3.26
-3.33
-3.23
-3.04
-2.74
-2.30
-1.71
-1.07
-0.54
-0.26
-0.25
-0.41
-0.59
-0.68
-0.63
-0.48
-0.32
-0.20
-0.14
-0.12
-0.10
-0.08
-0.06
-0.07
-0.12
-0.21
-0.35
-0.51
-0.66
-0.75
-0.73
-0.57
-0.29
0.02
0.25
0.31
0.16
-0.18
-0.66
-1.19
-1.72
-2.23
-2.71
-3.13
-3.46
-3.63
-3.59
-3.34
-2.89
-2.33
-1.73
-1.18
-0.76
-0.50
-0.36
-0.33
-0.33
-0.31
-0.26
-0.17
-0.09
-0.07
-0.18
-0.49
-1.01
-1.71
-2.44
-3.02
-3.30
-3.20
-2.85
-2.47
-2.31
-2.54
-3.16
-4.01
-4.86
-5.49
-5.79
-5.71
-5.26
-4.42
-3.24
-1.83
-0.49
0.33
0.21
-1.04
-3.15
-5.49
-7.26
-7.86
-7.12
-5.28
-2.74
0.19
3.48
7.26
11.58
16.19
20.54
24.00
26.14
26.95
26.80
26.29
25.92
25.93
26.24
26.58
26.61
26.18
25.28
24.06
22.65
21.10
19.33
17.26
14.88
12.43
10.22
8.60
7.69
7.36
7.24
6.93
6.16
4.84
3.12
1.23
-0.63
-2.33
-3.89
-5.35
-6.80
-8.24
-9.68
-11.03
-12.20
-13.08
-13.53
-13.48
-12.91
-11.90
-10.64
-9.38
-8.34
-7.63
-7.23
-6.94
-6.57
-5.92
-4.96
-3.75
-2.45
-1.20
-0.11
0.83
1.71
2.60
3.53
4.43
5.16
5.62
5.77
5.68
5.51
5.40
5.34
5.24
4.94
4.29
3.33
2.21
1.15
0.38
0.00
-0.02
0.19
0.49
0.75
0.87
0.79
0.48
-0.07
-0.84
-1.72
-2.61
-3.39
-4.01
-4.48
-4.84
-5.10
-5.28
-5.39
-5.39
-5.30
-5.09
-4.75
-4.30
-3.80
-3.36
-3.12
-3.16
-3.42
-3.78
-4.08
-4.25
-4.32
-4.40
-4.57
-4.80
-5.01
-5.12
-5.15
-5.15
-5.20
-5.29
-5.30
-5.11
-4.65
-4.01
-3.41
-3.04
-3.03
-3.31
-3.74
-4.12
-4.40
-4.57
-4.74
-4.95
-5.16
-5.29
-5.26
-5.06
-4.79
-4.61
-4.63
-4.83
-5.09
-5.18
-4.95
-4.34
-3.45
-2.49
-1.67
-1.17
-1.05
-1.31
-1.87
-2.63
-3.46
-4.23
-4.81
-5.11
-5.06
-4.72
-4.17
-3.55
-3.00
-2.61
-2.41
-2.38
-2.50
-2.71
-2.97
-3.19
-3.35
-3.46
-3.57
-3.79
-4.18
-4.75
-5.38
-5.96
-6.34
-6.48
-6.43
-6.28
-6.13
-6.02
-5.96
-5.91
-5.84
-5.73
-5.53
-5.21
-4.73
-4.11
-3.41
-2.76
-2.26
-1.96
-1.84
-1.83
-1.86
-1.89
-1.89
-1.83
-1.67
-1.35
-0.85
-0.19
0.53
1.21
1.80
2.28
2.69
3.05
3.32
3.45
3.41
3.22
2.92
2.59
2.26
1.94
1.63
1.32
1.04
0.80
0.63
0.55
0.59
0.82
1.25
1.86
2.53
3.10
3.39
3.34
2.96
2.38
1.75
1.14
0.59
0.05
-0.47
-0.96
-1.33
-1.49
-1.37
-0.95
-0.27
0.60
1.61
2.74
3.95
5.20
6.39
7.39
8.04
8.25
8.04
7.50
6.84
6.22
5.76
5.46
5.25
5.05
4.77
4.42
4.06
3.81
3.77
3.98
4.40
4.94
5.49
6.02
6.55
7.11
7.67
8.08
8.12
7.61
6.52
5.03
3.48
2.21
1.39
0.99
0.83
0.68
0.43
0.09
-0.23
-0.48
-0.70
-1.03
-1.62
-2.52
-3.70
-4.98
-6.21
-7.31
-8.26
-9.13
-10.05
-11.10
-12.36
-13.83
-15.51
-17.33
-19.20
-21.00
-22.64
-24.03
-25.18
-26.12
-26.94
-27.70
-28.35
-28.83
-29.06
-29.01
-28.76
-28.48
-28.31
-28.32
-28.44
-28.51
-28.37
-27.95
-27.25
-26.37
-25.35
-24.19
-22.81
-21.21
-19.56
-18.13
-17.07
-16.24
-15.05
-12.68
-8.56
-2.78
3.73
9.53
13.31
14.54
13.56
11.26
8.47
5.54
2.40
-0.90
-3.89
-5.65
-5.42
-3.29
-0.44
1.29
0.39
-3.41
-8.83
-13.62
-15.60
-13.65
-8.19
-0.76
6.76
12.96
17.34
20.17
22.05
23.44
24.39
24.60
23.76
21.86
19.24
16.53
14.24
12.66
11.67
10.99
10.33
9.65
9.06
8.77
8.90
9.35
9.90
10.20
9.96
9.05
7.53
5.65
3.79
2.32
1.45
1.20
1.38
1.71
1.98
2.10
2.17
2.31
2.59
3.01
3.46
3.80
3.99
4.03
4.00
4.01
4.11
4.30
4.57
4.88
5.23
5.61
6.00
6.38
6.67
6.81
6.76
6.49
6.01
5.42
4.81
4.34
4.08
4.03
4.09
4.08
3.85
3.33
2.63
1.90
1.34
1.00
0.87
0.77
0.58
0.19
-0.37
-1.03
-1.67
-2.18
-2.49
-2.54
-2.31
-1.82
-1.10
-0.22
0.75
1.72
2.61
3.35
3.89
4.21
4.38
4.49
4.65
4.91
5.21
5.44
5.46
5.24
4.82
4.36
4.03
3.93
4.07
4.34
4.58
4.66
4.55
4.26
3.85
3.38
2.86
2.32
1.78
1.33
1.03
0.89
0.86
0.79
0.57
0.09
-0.63
-1.50
-2.35
-3.05
-3.51
-3.69
-3.64
-3.43
-3.13
-2.78
-2.37
-1.84
-1.14
-0.25
0.77
1.79
2.67
3.31
3.70
3.93
4.14
4.48
4.98
5.61
6.21
6.62
6.71
6.49
6.09
5.78
5.80
6.26
7.06
7.91
8.46
8.45
7.85
6.87
5.80
4.91
4.31
3.92
3.58
3.14
2.56
1.86
1.07
0.19
-0.82
-1.97
-3.20
-4.34
-5.18
-5.55
-5.43
-4.91
-4.16
-3.37
-2.67
-2.06
-1.53
-1.01
-0.45
0.12
0.65
1.05
1.32
1.46
1.58
1.80
2.15
2.57
2.92
3.05
2.90
2.55
2.18
1.93
1.84
1.84
1.78
1.55
1.15
0.65
0.17
-0.22
-0.54
-0.85
-1.22
-1.63
-2.03
-2.33
-2.50
-2.54
-2.53
-2.51
-2.53
-2.61
-2.72
-2.83
-2.89
-2.81
-2.50
-1.89
-0.95
0.23
1.53
2.82
4.02
5.13
6.16
7.15
8.07
8.90
9.60
10.18
10.63
10.94
11.07
10.98
10.67
10.21
9.68
9.12
8.49
7.71
6.70
5.51
4.28
3.18
2.35
1.75
1.26
0.69
-0.04
-0.92
-1.82
-2.62
-3.24
-3.69
-4.01
-4.23
-4.35
-4.33
-4.13
-3.73
-3.18
-2.55
-1.91
-1.34
-0.86
-0.46
-0.09
0.28
0.68
1.10
1.53
1.94
2.30
2.63
2.92
3.19
3.46
3.73
4.01
4.26
4.47
4.63
4.79
5.00
5.32
5.73
6.14
6.40
6.39
6.08
5.57
5.00
4.50
4.08
3.67
3.12
2.34
1.33
0.17
-1.03
-2.20
-3.32
-4.41
-5.51
-6.64
-7.75
-8.74
-9.50
-9.94
-10.01
-9.70
-9.10
-8.32
-7.51
-6.80
-6.34
-6.17
-6.30
-6.63
-7.03
-7.34
-7.43
-7.20
-6.61
-5.65
-4.34
-2.72
-0.89
1.01
2.74
4.08
4.86
5.07
4.84
4.43
4.05
3.79
3.59
3.30
2.78
1.99
1.06
0.17
-0.47
-0.75
-0.72
-0.51
-0.32
-0.28
-0.45
-0.77
-1.12
-1.37
-1.46
-1.39
-1.19
-0.91
-0.57
-0.19
0.17
0.40
0.40
0.12
-0.40
-1.04
-1.62
-2.05
-2.28
-2.35
-2.32
-2.25
-2.16
-2.10
-2.07
-2.13
-2.27
-2.48
-2.71
-2.88
-2.94
-2.85
-2.63
-2.31
-1.92
-1.54
-1.22
-1.01
-0.96
-1.01
-1.09
-1.12
-1.04
-0.86
-0.67
-0.57
-0.56
-0.59
-0.48
-0.08
0.66
1.66
2.71
3.58
4.16
4.46
4.57
4.60
4.55
4.37
4.00
3.46
2.86
2.38
2.15
2.20
2.42
2.63
2.67
2.47
2.04
1.52
1.03
0.66
0.44
0.30
0.16
-0.05
-0.37
-0.80
-1.29
-1.82
-2.37
-2.96
-3.55
-4.07
-4.39
-4.41
-4.06
-3.40
-2.57
-1.74
-1.05
-0.57
-0.25
-0.02
0.21
0.48
0.77
1.07
1.32
1.53
1.71
1.86
1.96
1.97
1.86
1.65
1.42
1.25
1.19
1.25
1.36
1.45
1.46
1.44
1.43
1.50
1.65
1.81
1.86
1.72
1.40
0.97
0.56
0.26
0.11
0.05
0.00
-0.14
-0.41
-0.80
-1.22
-1.56
-1.72
-1.65
-1.37
-0.92
-0.40
0.10
0.54
0.90
1.22
1.49
1.73
1.91
2.00
2.03
2.03
2.09
2.23
2.46
2.70
2.82
2.72
2.39
1.93
1.51
1.29
1.34
1.59
1.91
2.14
2.21
2.13
2.01
1.92
1.89
1.86
1.71
1.35
0.76
0.01
-0.73
-1.32
-1.69
-1.87
-1.99
-2.17
-2.50
-2.97
-3.52
-4.09
-4.65
-5.19
-5.70
-6.14
-6.45
-6.57
-6.52
-6.37
-6.21
-6.08
-5.94
-5.75
-5.42
-4.97
-4.44
-3.92
-3.45
-3.04
-2.66
-2.25
-1.80
-1.31
-0.86
-0.55
-0.41
-0.46
-0.60
-0.75
-0.82
-0.80
-0.71
-0.58
-0.43
-0.27
-0.07
0.14
0.31
0.36
0.26
0.07
-0.10
-0.12
0.06
0.39
0.68
0.81
0.68
0.33
-0.10
-0.48
-0.72
-0.80
-0.77
-0.70
-0.65
-0.64
-0.68
-0.81
-1.03
-1.37
-1.80
-2.24
-2.60
-2.83
-2.91
-2.88
-2.72
-2.46
-2.06
-1.51
-0.84
-0.12
0.57
1.21
1.77
2.25
2.63
2.92
3.08
3.16
3.21
3.29
3.46
3.69
3.96
4.19
4.33
4.35
4.23
3.99
3.67
3.31
2.98
2.72
2.59
2.62
2.81
3.13
3.46
3.64
3.55
3.15
2.52
1.85
1.34
1.09
1.06
1.10
1.03
0.74
0.23
-0.41
-1.03
-1.55
-1.92
-2.19
-2.41
-2.60
-2.78
-2.92
-3.03
-3.13
-3.26
-3.47
-3.78
-4.15
-4.52
-4.84
-5.05
-5.15
-5.14
-5.06
-4.91
-4.72
-4.45
-4.08
-3.60
-3.02
-2.38
-1.73
-1.17
-0.71
-0.35
-0.02
0.35
0.79
1.26
1.67
1.95
2.10
2.18
2.28
2.45
2.65
2.76
2.71
2.49
2.19
1.91
1.77
1.75
1.78
1.80
1.75
1.64
1.52
1.45
1.43
1.45
1.47
1.44
1.36
1.22
1.07
0.94
0.86
0.82
0.81
0.78
0.71
0.62
0.53
0.47
0.44
0.42
0.36
0.19
-0.13
-0.58
-1.09
-1.55
-1.87
-2.00
-1.96
-1.83
-1.74
-1.77
-1.96
-2.26
-2.59
-2.88
-3.08
-3.16
-3.09
-2.83
-2.38
-1.73
-0.96
-0.16
0.54
1.05
1.34
1.47
1.49
1.51
1.57
1.67
1.77
1.80
1.75
1.60
1.40
1.17
0.95
0.70
0.42
0.15
-0.05
-0.13
-0.05
0.14
0.33
0.41
0.29
-0.03
-0.49
-0.98
-1.37
-1.57
-1.56
-1.39
-1.16
-1.02
-1.03
-1.21
-1.50
-1.85
-2.20
-2.52
-2.81
-3.09
-3.33
-3.55
-3.76
-3.97
-4.18
-4.34
-4.39
-4.29
-4.09
-3.89
-3.83
-3.99
-4.35
-4.80
-5.18
-5.35
-5.25
-4.87
-4.25
-3.46
-2.55
-1.62
-0.70
0.12
0.81
1.32
1.67
1.89
2.06
2.29
2.63
3.09
3.59
4.07
4.47
4.78
5.10
5.53
6.12
6.87
7.71
8.53
9.26
9.90
10.52
11.18
11.96
12.91
14.07
15.43
16.93
18.48
19.95
21.18
22.04
22.49
22.55
22.31
21.83
21.05
19.80
17.77
14.61
10.06
4.07
-3.11
-10.89
-18.53
-25.25
-30.48
-34.01
-35.96
-36.72
-36.65
-35.99
-34.73
-32.73
-29.86
-26.17
-21.90
-17.41
-13.08
-9.20
-5.97
-3.57
-2.18
-1.92
-2.84
-4.72
-7.09
-9.32
-10.78
-11.13
-10.44
-9.17
-8.04
-7.76
-8.81
-11.27
-14.87
-18.99
-22.83
-25.54
-26.37
-24.86
-21.02
-15.42
-9.02
-2.92
2.02
5.41
7.41
8.46
9.03
9.39
9.55
9.45
9.06
8.49
7.95
7.55
7.30
7.06
6.70
6.17
5.59
5.12
4.92
5.03
5.38
5.84
6.26
6.57
6.74
6.86
7.03
7.35
7.84
8.43
8.95
9.20
9.05
8.51
7.74
6.96
6.36
6.03
5.92
5.92
5.88
5.74
5.47
5.10
4.65
4.14
3.57
2.95
2.35
1.87
1.61
1.64
1.90
2.27
2.53
2.50
2.10
1.39
0.51
-0.30
-0.89
-1.16
-1.12
-0.86
-0.48
-0.09
0.24
0.47
0.62
0.72
0.84
1.03
1.30
1.67
2.10
2.52
2.87
3.04
2.94
2.56
1.94
1.24
0.67
0.40
0.50
0.86
1.33
1.70
1.87
1.83
1.70
1.55
1.42
1.26
1.03
0.75
0.48
0.37
0.44
0.63
0.79
0.75
0.48
0.08
-0.24
-0.32
-0.10
0.35
0.90
1.46
1.99
2.50
3.03
3.56
4.05
4.44
4.67
4.77
4.80
4.81
4.83
4.85
4.79
4.58
4.18
3.64
3.03
2.46
1.97
1.59
1.26
0.98
0.75
0.62
0.59
0.64
0.69
0.67
0.58
0.48
0.46
0.60
0.85
1.12
1.30
1.31
1.15
0.82
0.32
-0.35
-1.20
-2.21
-3.28
-4.34
-5.33
-6.25
-7.12
-7.96
-8.71
-9.28
-9.59
-9.64
-9.51
-9.27
-9.02
-8.78
-8.54
-8.28
-8.01
-7.75
-7.52
-7.28
-6.97
-6.52
-5.92
-5.19
-4.39
-3.57
-2.73
-1.90
-1.11
-0.44
0.05
0.32
0.40
0.41
0.45
0.56
0.71
0.81
0.82
0.75
0.68
0.73
0.96
1.37
1.86
2.34
2.72
2.95
3.05
3.08
3.12
3.22
3.39
3.56
3.67
3.66
3.55
3.40
3.33
3.38
3.53
3.67
3.72
3.63
3.44
3.21
3.01
2.81
2.56
2.14
1.51
0.67
-0.27
-1.16
-1.88
-2.39
-2.75
-3.07
-3.42
-3.76
-3.99
-3.95
-3.57
-2.92
-2.17
-1.52
-1.10
-0.90
-0.81
-0.72
-0.50
-0.13
0.37
0.96
1.56
2.08
2.43
2.51
2.32
1.92
1.44
1.01
0.71
0.55
0.45
0.34
0.15
-0.13
-0.50
-0.90
-1.34
-1.75
-2.08
-2.32
-2.46
-2.57
-2.69
-2.87
-3.09
-3.26
-3.31
-3.20
-2.92
-2.49
-1.89
-1.11
-0.17
0.86
1.84
2.61
3.05
3.15
2.98
2.67
2.34
2.10
1.98
1.99
2.12
2.33
2.56
2.74
2.81
2.76
2.61
2.41
2.22
2.06
1.96
1.93
1.98
2.09
2.22
2.28
2.20
1.95
1.57
1.17
0.84
0.63
0.52
0.46
0.37
0.26
0.15
0.07
0.04
0.01
-0.06
-0.23
-0.49
-0.79
-1.04
-1.21
-1.31
-1.39
-1.54
-1.80
-2.17
-2.61
-3.04
-3.38
-3.56
-3.55
-3.33
-2.91
-2.34
-1.69
-1.03
-0.44
0.05
0.44
0.74
0.97
1.14
1.26
1.29
1.27
1.21
1.15
1.15
1.23
1.41
1.65
1.93
2.21
2.46
2.68
2.81
2.82
2.68
2.41
2.07
1.78
1.60
1.55
1.59
1.62
1.61
1.56
1.53
1.54
1.57
1.57
1.48
1.28
1.03
0.81
0.60
0.39
0.11
-0.24
-0.61
-0.91
-1.07
-1.06
-0.94
-0.76
-0.57
-0.40
-0.29
-0.28
-0.41
-0.71
-1.13
-1.54
-1.84
-1.94
-1.89
-1.80
-1.80
-1.97
-2.27
-2.57
-2.76
-2.75
-2.56
-2.26
-1.93
-1.61
-1.28
-0.87
-0.39
0.13
0.61
0.96
1.17
1.27
1.35
1.45
1.60
1.76
1.87
1.92
1.88
1.76
1.58
1.38
1.18
1.05
1.02
1.10
1.25
1.41
1.50
1.51
1.46
1.38
1.31
1.25
1.19
1.11
0.98
0.82
0.63
0.44
0.27
0.15
0.10
0.09
0.09
0.02
-0.14
-0.38
-0.64
-0.83
-0.91
-0.92
-0.96
-1.10
-1.38
-1.75
-2.12
-2.41
-2.58
-2.68
-2.72
-2.68
-2.50
-2.12
-1.55
-0.91
-0.34
0.02
0.13
0.06
-0.05
-0.06
0.10
0.42
0.82
1.19
1.46
1.59
1.61
1.54
1.40
1.21
0.94
0.61
0.24
-0.05
-0.14
0.08
0.58
1.22
1.74
1.88
1.56
0.88
0.14
-0.37
-0.48
-0.24
0.14
0.40
0.43
0.30
0.15
0.11
0.19
0.29
0.29
0.11
-0.22
-0.59
-0.89
-1.09
-1.20
-1.29
-1.42
-1.61
-1.80
-1.95
-2.00
-1.96
-1.84
-1.72
-1.67
-1.69
-1.74
-1.73
-1.56
-1.17
-0.63
-0.06
0.40
0.65
0.69
0.62
0.55
0.58
0.71
0.87
0.93
0.84
0.59
0.28
0.05
0.02
0.22
0.58
0.97
1.22
1.27
1.12
0.89
0.68
0.56
0.52
0.49
0.39
0.20
-0.02
-0.19
-0.25
-0.19
-0.11
-0.07
-0.11
-0.18
-0.20
-0.13
0.01
0.13
0.13
-0.06
-0.41
-0.86
-1.28
-1.61
-1.80
-1.86
-1.82
-1.68
-1.46
-1.18
-0.87
-0.52
-0.14
0.26
0.67
1.03
1.30
1.45
1.52
1.54
1.53
1.48
1.36
1.15
0.89
0.68
0.63
0.81
1.14
1.49
1.66
1.55
1.21
0.77
0.39
0.18
0.12
0.11
0.04
-0.13
-0.39
-0.65
-0.84
-0.94
-1.02
-1.14
-1.34
-1.58
-1.78
-1.88
-1.91
-1.92
-2.03
-2.26
-2.57
-2.87
-3.07
-3.12
-3.04
-2.87
-2.65
-2.37
-2.04
-1.67
-1.30
-1.01
-0.86
-0.90
-1.11
-1.50
-2.00
-2.56
-3.11
-3.59
-3.99
-4.34
-4.68
-5.03
-5.41
-5.79
-6.21
-6.75
-7.49
-8.49
-9.68
-10.89
-11.88
-12.47
-12.58
-12.30
-11.83
-11.38
-11.11
-11.01
-10.93
-10.54
-9.40
-7.03
-3.05
2.63
9.82
17.96
26.31
34.14
40.92
46.37
50.50
53.41
55.18
55.86
55.46
54.09
51.99
49.50
46.90
44.33
41.68
38.62
34.80
29.94
23.92
16.81
8.83
0.29
-8.45
-17.04
-25.21
-32.74
-39.52
-45.47
-50.54
-54.52
-57.03
-57.60
-55.79
-51.48
-44.93
-36.87
-28.25
-19.96
-12.47
-5.72
0.70
7.22
13.97
20.64
26.48
30.59
32.33
31.70
29.37
26.43
23.72
21.69
20.20
18.52
15.72
11.14
4.71
-2.97
-10.90
-18.38
-24.79
-29.75
-33.28
-35.80
-38.01
-40.59
-43.98
-48.12
-52.79
-57.07
-59.75
-59.92
-57.36
-52.55
-46.39
-39.83
-31.24
-20.61
-8.77
3.22
14.49
24.04
30.49
32.37
29.06
21.82
12.64
4.39
-0.26
0.03
4.72
11.92
19.47
26.01
30.99
34.05
35.43
35.46
34.27
31.74
27.89
23.14
18.25
14.02
10.73
8.40
6.74
5.31
3.69
1.71
-0.50
-2.61
-4.27
-5.32
-5.72
-5.55
-5.00
-4.31
-3.66
-3.12
-2.65
-2.21
-1.81
-1.40
-0.98
-0.54
-0.12
0.22
0.40
0.43
0.37
0.38
0.63
1.27
2.28
3.56
5.03
6.65
8.35
9.85
10.58
9.81
7.00
2.22
-3.70
-9.37
-13.45
-15.15
-14.58
-12.55
-10.06
-7.87
-6.22
-4.94
-3.81
-2.74
-1.89
-1.49
-1.63
-2.13
-2.67
-2.95
-2.84
-2.47
-2.17
-2.22
-2.77
-3.68
-4.60
-5.17
-5.13
-4.45
-3.31
-2.02
-0.85
0.02
0.56
0.82
0.90
0.87
0.76
0.63
0.51
0.46
0.54
0.75
1.05
1.36
1.63
1.86
2.12
2.43
2.75
2.98
2.97
2.68
2.19
1.66
1.32
1.28
1.50
1.81
2.01
1.94
1.61
1.15
0.73
0.46
0.35
0.30
0.17
-0.16
-0.70
-1.37
-2.07
-2.67
-3.12
-3.38
-3.46
-3.33
-2.99
-2.47
-1.84
-1.22
-0.71
-0.38
-0.20
-0.07
0.11
0.39
0.76
1.14
1.42
1.56
1.53
1.39
1.21
1.06
0.99
1.04
1.19
1.43
1.71
1.99
2.23
2.38
2.41
2.29
2.01
1.63
1.26
1.01
0.95
1.06
1.19
1.17
0.91
0.44
-0.06
-0.39
-0.41
-0.15
0.18
0.32
0.05
-0.64
-1.61
-2.58
-3.32
-3.69
-3.72
-3.54
-3.30
-3.06
-2.83
-2.57
-2.23
-1.86
-1.55
-1.36
-1.29
-1.22
-1.01
-0.56
0.12
0.91
1.62
2.07
2.23
2.16
2.01
1.93
2.04
2.35
2.79
3.22
3.51
3.53
3.26
2.76
2.17
1.69
1.45
1.51
1.83
2.31
2.81
3.23
3.46
3.45
3.18
2.69
2.05
1.41
0.89
0.60
0.54
0.61
0.65
0.50
0.12
-0.45
-1.04
-1.50
-1.67
-1.55
-1.22
-0.86
-0.62
-0.62
-0.88
-1.33
-1.88
-2.38
-2.75
-2.93
-2.87
-2.60
-2.15
-1.60
-1.03
-0.53
-0.13
0.17
0.40
0.61
0.81
0.94
0.94
0.80
0.59
0.45
0.54
0.92
1.53
2.17
2.63
2.75
2.56
2.18
1.83
1.65
1.66
1.79
1.89
1.91
1.84
1.76
1.73
1.76
1.75
1.61
1.30
0.86
0.43
0.15
0.08
0.19
0.37
0.50
0.50
0.37
0.17
-0.03
-0.17
-0.24
-0.27
-0.34
-0.51
-0.81
-1.23
-1.68
-2.08
-2.37
-2.51
-2.52
-2.46
-2.36
-2.25
-2.12
-1.97
-1.79
-1.59
-1.37
-1.12
-0.82
-0.44
0.03
0.56
1.09
1.52
1.74
1.73
1.58
1.38
1.30
1.37
1.58
1.82
1.99
2.03
1.97
1.88
1.83
1.85
1.91
1.94
1.89
1.73
1.48
1.17
0.87
0.61
0.41
0.26
0.14
0.05
-0.04
-0.11
-0.13
-0.07
0.06
0.25
0.41
0.50
0.48
0.35
0.16
-0.10
-0.41
-0.81
-1.31
-1.91
-2.54
-3.12
-3.55
-3.75
-3.72
-3.46
-3.04
-2.54
-2.06
-1.69
-1.45
-1.28
-1.08
-0.76
-0.27
0.33
0.90
1.31
1.48
1.45
1.35
1.29
1.35
1.51
1.68
1.75
1.68
1.53
1.39
1.37
1.47
1.63
1.71
1.61
1.31
0.92
0.61
0.53
0.69
1.02
1.32
1.43
1.26
0.89
0.43
0.02
-0.25
-0.40
-0.46
-0.47
-0.46
-0.44
-0.44
-0.53
-0.80
-1.27
-1.91
-2.60
-3.16
-3.48
-3.52
-3.35
-3.07
-2.80
-2.57
-2.35
-2.04
-1.60
-1.03
-0.42
0.12
0.55
0.85
1.06
1.21
1.30
1.30
1.21
1.07
0.97
1.01
1.22
1.57
1.96
2.27
2.43
2.40
2.22
1.92
1.55
1.16
0.79
0.49
0.31
0.26
0.32
0.47
0.63
0.77
0.86
0.90
0.85
0.69
0.40
0.00
-0.40
-0.69
-0.74
-0.54
-0.23
0.00
-0.02
-0.31
-0.76
-1.20
-1.50
-1.67
-1.82
-2.07
-2.47
-2.90
-3.20
-3.22
-2.93
-2.42
-1.89
-1.49
-1.29
-1.24
-1.21
-1.07
-0.78
-0.37
0.04
0.34
0.46
0.45
0.43
0.51
0.72
0.99
1.22
1.34
1.34
1.30
1.28
1.34
1.43
1.50
1.52
1.48
1.41
1.32
1.21
1.05
0.83
0.60
0.43
0.41
0.54
0.77
0.97
1.04
0.92
0.64
0.25
-0.16
-0.54
-0.83
-1.03
-1.13
-1.15
-1.09
-1.01
-0.95
-0.98
-1.15
-1.46
-1.82
-2.13
-2.28
-2.26
-2.14
-2.02
-1.99
-2.07
-2.21
-2.32
-2.32
-2.19
-1.94
-1.60
-1.22
-0.82
-0.46
-0.16
0.06
0.23
0.45
0.75
1.15
1.57
1.90
2.03
2.00
1.88
1.79
1.79
1.82
1.80
1.64
1.36
1.05
0.84
0.81
0.92
1.09
1.21
1.24
1.18
1.08
0.96
0.82
0.62
0.40
0.23
0.18
0.29
0.49
0.64
0.62
0.39
-0.02
-0.46
-0.81
-1.01
-1.09
-1.10
-1.10
-1.09
-1.06
-1.01
-0.98
-1.02
-1.14
-1.29
-1.40
-1.42
-1.35
-1.31
-1.41
-1.68
-1.99
-2.07
-1.61
-0.43
1.43
3.70
5.97
7.88
9.24
10.08
10.60
11.08
11.79
12.88
14.38
16.11
17.68
18.52
18.06
16.00
12.49
8.16
3.92
0.58
-1.38
-2.04
-1.82
-1.28
-0.85
-0.64
-0.58
-0.51
-0.34
-0.14
-0.05
-0.22
-0.72
-1.44
-2.17
-2.64
-2.73
-2.46
-2.07
-1.88
-2.11
-2.84
-3.89
-5.00
-5.86
-6.37
-6.57
-6.61
-6.66
-6.81
-7.05
-7.28
-7.42
-7.43
-7.35
-7.26
-7.19
-7.15
-7.09
-6.92
-6.59
-6.08
-5.44
-4.71
-3.97
-3.25
-2.59
-2.01
-1.54
-1.20
-0.99
-0.87
-0.79
-0.71
-0.61
-0.53
-0.51
-0.58
-0.70
-0.78
-0.76
-0.60
-0.39
-0.21
-0.14
-0.16
-0.19
-0.15
-0.03
0.10
0.14
-0.01
-0.32
-0.66
-0.87
-0.82
-0.53
-0.08
0.36
0.70
0.86
0.87
0.77
0.59
0.33
0.00
-0.36
-0.68
-0.84
-0.74
-0.32
0.36
1.17
1.92
2.45
2.71
2.69
2.47
2.13
1.71
1.22
0.71
0.29
0.04
0.05
0.27
0.52
0.61
0.38
-0.14
-0.80
-1.39
-1.75
-1.85
-1.79
-1.68
-1.60
-1.56
-1.49
-1.34
-1.07
-0.74
-0.45
-0.33
-0.47
-0.90
-1.56
-2.34
-3.12
-3.79
-4.30
-4.64
-4.85
-4.96
-4.98
-4.96
-4.94
-4.97
-5.08
-5.25
-5.37
-5.34
-5.05
-4.49
-3.76
-2.99
-2.35
-1.93
-1.73
-1.65
-1.56
-1.37
-1.01
-0.52
0.01
0.48
0.82
1.00
1.04
0.99
0.91
0.86
0.85
0.89
0.94
0.99
1.04
1.13
1.29
1.49
1.64
1.58
1.20
0.50
-0.36
-1.16
-1.68
-1.85
-1.75
-1.54
-1.38
-1.29
-1.19
-1.00
-0.66
-0.24
0.15
0.39
0.47
0.48
0.54
0.75
1.14
1.61
2.03
2.27
2.29
2.16
2.04
2.03
2.16
2.30
2.28
1.96
1.38
0.73
0.26
0.11
0.26
0.51
0.66
0.58
0.30
-0.02
-0.25
-0.36
-0.44
-0.62
-0.98
-1.51
-2.04
-2.41
-2.53
-2.40
-2.12
-1.82
-1.58
-1.39
-1.20
-0.97
-0.66
-0.27
0.16
0.62
1.09
1.53
1.89
2.13
2.20
2.13
1.96
1.76
1.59
1.46
1.36
1.29
1.25
1.27
1.36
1.48
1.58
1.62
1.56
1.44
1.28
1.09
0.87
0.56
0.17
-0.24
-0.59
-0.76
-0.72
-0.54
-0.37
-0.38
-0.64
-1.11
-1.62
-1.97
-2.04
-1.83
-1.43
-0.96
-0.50
-0.03
0.48
1.05
1.60
2.04
2.27
2.31
2.24
2.21
2.34
2.63
2.96
3.14
3.07
2.72
2.23
1.79
1.58
1.68
2.02
2.45
2.77
2.88
2.74
2.44
2.11
1.85
1.69
1.61
1.51
1.34
1.07
0.73
0.45
0.31
0.40
0.66
0.98
1.21
1.20
0.92
0.45
-0.08
-0.50
-0.71
-0.69
-0.52
-0.33
-0.27
-0.46
-0.89
-1.46
-2.01
-2.41
-2.56
-2.50
-2.37
-2.32
-2.45
-2.76
-3.16
-3.50
-3.65
-3.56
-3.22
-2.70
-2.10
-1.48
-0.92
-0.41
0.03
0.43
0.77
1.04
1.20
1.24
1.19
1.11
1.08
1.21
1.50
1.92
2.38
2.75
2.96
2.97
2.81
2.52
2.16
1.81
1.56
1.49
1.64
1.96
2.35
2.64
2.71
2.54
2.21
1.87
1.63
1.55
1.57
1.62
1.66
1.67
1.66
1.62
1.52
1.32
0.99
0.57
0.13
-0.24
-0.50
-0.66
-0.74
-0.79
-0.82
-0.84
-0.86
-0.89
-0.92
-0.93
-0.92
-0.87
-0.80
-0.76
-0.85
-1.11
-1.58
-2.14
-2.63
-2.87
-2.77
-2.33
-1.70
-1.08
-0.61
-0.37
-0.32
-0.39
-0.49
-0.57
-0.58
-0.50
-0.33
-0.06
0.29
0.66
0.99
1.21
1.31
1.30
1.26
1.29
1.43
1.63
1.83
1.91
1.83
1.62
1.38
1.17
1.02
0.86
0.64
0.33
-0.01
-0.26
-0.30
-0.14
0.16
0.43
0.57
0.50
0.24
-0.11
-0.49
-0.81
-1.08
-1.29
-1.47
-1.66
-1.89
-2.20
-2.56
-2.96
-3.29
-3.46
-3.40
-3.13
-2.72
-2.28
-1.91
-1.61
-1.35
-1.04
-0.61
-0.04
0.61
1.24
1.73
1.99
2.02
1.83
1.55
1.28
1.10
1.05
1.11
1.24
1.37
1.46
1.49
1.46
1.37
1.26
1.18
1.14
1.17
1.21
1.20
1.09
0.91
0.75
0.71
0.82
1.05
1.32
1.50
1.52
1.39
1.16
0.88
0.59
0.29
-0.05
-0.45
-0.90
-1.35
-1.72
-1.94
-1.95
-1.75
-1.41
-1.05
-0.81
-0.79
-1.02
-1.41
-1.85
-2.19
-2.38
-2.43
-2.43
-2.46
-2.54
-2.59
-2.51
-2.18
-1.62
-0.95
-0.37
-0.03
0.01
-0.12
-0.24
-0.20
0.07
0.49
0.93
1.28
1.49
1.57
1.56
1.50
1.37
1.20
1.02
0.87
0.81
0.83
0.89
0.90
0.80
0.56
0.23
-0.09
-0.32
-0.40
-0.32
-0.16
-0.01
0.00
-0.14
-0.38
-0.57
-0.60
-0.39
-0.02
0.35
0.54
0.47
0.18
-0.19
-0.52
-0.76
-0.93
-1.12
-1.35
-1.59
-1.76
-1.79
-1.69
-1.55
-1.49
-1.59
-1.82
-2.12
-2.37
-2.51
-2.53
-2.44
-2.26
-1.98
-1.58
-1.03
-0.36
0.36
0.98
1.40
1.56
1.48
1.28
1.10
1.07
1.24
1.60
2.06
2.53
2.94
3.23
3.36
3.30
3.01
2.51
1.90
1.34
1.00
1.00
1.33
1.82
2.26
2.46
2.34
1.98
1.55
1.19
0.99
0.93
0.94
0.91
0.78
0.55
0.24
-0.09
-0.39
-0.63
-0.80
-0.94
-1.06
-1.17
-1.24
-1.27
-1.30
-1.40
-1.65
-2.12
-2.72
-3.29
-3.63
-3.59
-3.14
-2.43
-1.71
-1.16
-0.88
-0.79
-0.77
-0.65
-0.40
-0.07
0.24
0.42
0.46
0.40
0.31
0.25
0.23
0.22
0.19
0.14
0.13
0.19
0.31
0.44
0.49
0.41
0.24
0.06
0.02
0.20
0.58
1.01
1.33
1.37
1.12
0.67
0.21
-0.12
-0.27
-0.27
-0.24
-0.24
-0.29
-0.35
-0.38
-0.39
-0.41
-0.50
-0.70
-1.01
-1.34
-1.60
-1.73
-1.70
-1.54
-1.31
-1.06
-0.79
-0.48
-0.08
0.40
0.90
1.31
1.51
1.46
1.23
0.98
0.90
1.07
1.41
1.70
1.74
1.43
0.92
0.45
0.26
0.44
0.91
1.43
1.79
1.91
1.83
1.65
1.44
1.19
0.88
0.50
0.12
-0.13
-0.17
-0.04
0.16
0.24
0.12
-0.23
-0.74
-1.29
-1.80
-2.21
-2.51
-2.72
-2.84
-2.90
-2.90
-2.86
-2.76
-2.59
-2.34
-1.99
-1.58
-1.16
-0.75
-0.38
-0.08
0.11
0.13
-0.02
-0.32
-0.64
-0.84
-0.80
-0.47
0.06
0.61
1.05
1.27
1.28
1.17
1.00
0.84
0.70
0.57
0.45
0.30
0.14
-0.08
-0.34
-0.66
-1.01
-1.39
-1.79
-2.21
-2.62
-3.02
-3.35
-3.57
-3.71
-3.81
-3.99
-4.34
-4.84
-5.44
-6.01
-6.52
-7.01
-7.59
-8.36
-9.32
-10.34
-11.17
-11.56
-11.36
-10.57
-9.34
-7.85
-6.20
-4.40
-2.32
0.25
3.51
7.62
12.61
18.41
24.80
31.42
37.74
43.12
46.99
48.95
48.94
47.34
44.79
42.07
39.72
37.88
36.30
34.52
32.16
29.04
25.33
21.33
17.44
13.86
10.56
7.41
4.33
1.33
-1.53
-4.25
-6.91
-9.71
-12.86
-16.65
-21.09
-25.75
-29.91
-32.92
-34.43
-34.69
-34.39
-34.47
-36.02
-39.51
-44.58
-50.12
-54.86
-57.77
-58.45
-57.03
-54.03
-50.47
-47.05
-43.83
-40.28
-35.73
-29.77
-22.64
-15.07
-6.12
3.28
10.61
13.05
9.40
0.62
-10.76
-21.65
-28.97
-30.40
-25.42
-15.10
-1.70
12.14
24.02
33.44
40.29
44.77
46.99
46.33
41.98
33.76
22.78
11.41
2.62
-1.21
0.92
8.24
18.64
29.18
37.24
41.50
42.13
40.41
37.66
34.71
31.53
27.38
21.48
13.78
5.23
-2.58
-8.13
-10.73
-10.74
-9.38
-8.26
-8.64
-11.00
-14.88
-19.30
-23.16
-25.62
-26.14
-24.38
-20.26
-13.96
-6.05
2.49
10.37
16.32
19.50
19.74
17.65
14.22
10.49
7.17
4.54
2.61
1.30
0.69
0.92
2.17
4.40
7.31
10.39
13.17
15.40
17.14
18.68
20.20
21.60
22.41
22.03
20.03
16.31
11.16
5.01
-1.72
-8.76
-15.77
-22.28
-27.62
-31.04
-31.95
-30.17
-26.01
-20.09
-13.24
-6.24
0.15
5.35
8.91
10.64
10.63
9.16
6.65
3.42
-0.27
-4.30
-8.55
-12.85
-16.90
-20.37
-22.90
-24.23
-24.28
-23.23
-21.47
-19.48
-17.72
-16.43
-15.63
-14.97
-13.89
-11.89
-8.74
-4.62
-0.04
4.44
8.35
11.51
13.98
15.98
17.53
18.33
17.95
16.13
13.06
9.25
5.31
1.92
-0.37
-1.46
-1.83
-2.26
-3.39
-5.48
-8.29
-11.36
-13.74
-14.30
-12.41
-8.43
-3.51
0.80
3.11
2.46
-1.70
-8.87
-17.45
-25.44
-30.99
-32.54
-28.96
-19.88
-4.34
14.56
30.92
40.29
42.41
39.89
35.75
31.70
27.82
22.94
15.68
6.14
-3.64
-10.90
-13.77
-12.15
-7.65
-2.85
-0.15
-0.95
-4.74
-9.59
-13.45
-15.31
-15.39
-14.42
-13.15
-11.84
-10.35
-8.24
-5.16
-1.25
2.84
6.45
9.50
12.41
15.81
20.02
24.93
29.91
34.11
36.72
36.38
32.72
26.10
17.37
7.63
-1.85
-9.93
-15.85
-19.49
-21.34
-22.14
-22.61
-23.08
-23.33
-22.75
-20.72
-17.06
-12.27
-7.38
-3.48
-1.36
-1.16
-2.44
-4.33
-5.99
-6.90
-6.96
-6.36
-5.34
-4.09
-2.69
-1.17
0.37
1.69
2.56
2.82
2.50
1.92
1.45
1.41
1.84
2.58
3.31
3.77
3.81
3.47
2.88
2.16
1.43
0.74
0.13
-0.35
-0.75
-1.12
-1.59
-2.24
-3.05
-3.93
-4.70
-5.25
-5.53
-5.57
-5.41
-5.05
-4.47
-3.71
-2.83
-1.96
-1.25
-0.73
-0.37
-0.08
0.24
0.65
1.13
1.63
2.11
2.54
2.90
3.20
3.46
3.70
3.95
4.17
4.35
4.42
4.33
4.09
3.76
3.42
3.15
3.00
2.97
3.05
3.17
3.29
3.31
3.19
2.89
2.41
1.82
1.23
0.76
0.50
0.48
0.63
0.84
0.95
0.81
0.39
-0.30
-1.15
-2.00
-2.71
-3.18
-3.38
-3.33
-3.07
-2.64
-2.07
-1.42
-0.80
-0.34
-0.11
-0.10
-0.15
-0.03
0.39
1.11
1.96
2.67
3.02
3.00
2.73
2.43
2.27
2.29
2.42
2.53
2.56
2.51
2.46
2.49
2.61
2.74
2.79
2.68
2.38
2.00
1.69
1.58
1.71
2.02
2.33
2.48
2.38
2.05
1.57
1.07
0.62
0.26
-0.04
-0.28
-0.50
-0.71
-0.96
-1.31
-1.82
-2.48
-3.20
-3.85
-4.26
-4.34
-4.06
-3.52
-2.84
-2.16
-1.55
-1.01
-0.50
0.02
0.55
1.04
1.43
1.68
1.83
1.94
2.10
2.40
2.83
3.37
3.92
4.41
4.75
4.92
4.89
4.71
4.43
4.17
4.01
3.96
3.97
3.91
3.68
3.24
2.72
2.25
1.96
1.90
2.00
2.13
2.21
2.24
2.22
2.17
2.02
1.72
1.21
0.56
-0.09
-0.57
-0.78
-0.74
-0.56
-0.42
-0.42
-0.63
-1.05
-1.64
-2.36
-3.14
-3.90
-4.49
-4.84
-4.90
-4.72
-4.39
-3.97
-3.50
-2.97
-2.41
-1.84
-1.34
-0.97
-0.73
-0.54
-0.29
0.08
0.57
1.11
1.61
2.04
2.43
2.81
3.19
3.55
3.84
4.03
4.11
4.10
4.02
3.86
3.62
3.33
3.04
2.78
2.58
2.45
2.37
2.33
2.33
2.40
2.50
2.59
2.59
2.46
2.21
1.91
1.62
1.40
1.26
1.16
1.08
0.98
0.83
0.63
0.40
0.18
0.04
-0.02
-0.02
-0.04
-0.18
-0.48
-0.88
-1.28
-1.54
-1.64
-1.65
-1.75
-2.09
-2.74
-3.56
-4.34
-4.86
-5.03
-4.92
-4.72
-4.60
-4.61
-4.69
-4.66
-4.38
-3.83
-3.06
-2.20
-1.34
-0.53
0.22
0.92
1.53
2.00
2.27
2.37
2.37
2.36
2.42
2.55
2.67
2.73
2.68
2.57
2.47
2.43
2.44
2.44
2.39
2.24
2.06
1.90
1.81
1.82
1.88
1.94
1.96
1.93
1.84
1.68
1.44
1.14
0.81
0.50
0.24
0.03
-0.18
-0.45
-0.81
-1.21
-1.56
-1.76
-1.76
-1.59
-1.37
-1.25
-1.35
-1.70
-2.24
-2.83
-3.33
-3.59
-3.60
-3.36
-2.99
-2.55
-2.10
-1.65
-1.18
-0.69
-0.22
0.15
0.33
0.30
0.12
-0.10
-0.22
-0.15
0.07
0.38
0.65
0.81
0.84
0.79
0.72
0.68
0.66
0.64
0.63
0.68
0.82
1.08
1.36
1.52
1.42
1.01
0.37
-0.31
-0.82
-1.01
-0.86
-0.46
0.05
0.48
0.74
0.76
0.53
0.11
-0.45
-1.05
-1.60
-2.02
-2.24
-2.25
-2.08
-1.83
-1.63
-1.61
-1.83
-2.23
-2.64
-2.88
-2.81
-2.42
-1.82
-1.18
-0.64
-0.26
-0.03
0.13
0.29
0.48
0.68
0.89
1.09
1.30
1.52
1.73
1.90
1.96
1.88
1.65
1.32
1.02
0.85
0.88
1.09
1.37
1.57
1.58
1.37
1.00
0.57
0.20
-0.07
-0.24
-0.33
-0.36
-0.34
-0.28
-0.22
-0.19
-0.25
-0.41
-0.69
-1.06
-1.46
-1.85
-2.20
-2.51
-2.82
-3.15
-3.50
-3.78
-3.88
-3.70
-3.26
-2.65
-2.07
-1.65
-1.42
-1.25
-0.95
-0.39
0.43
1.37
2.19
2.70
2.84
2.66
2.30
1.92
1.65
1.55
1.62
1.81
2.03
2.18
2.18
2.02
1.76
1.48
1.30
1.27
1.37
1.54
1.70
1.80
1.80
1.70
1.50
1.21
0.85
0.44
0.07
-0.23
-0.40
-0.48
-0.53
-0.63
-0.84
-1.16
-1.52
-1.85
-2.09
-2.24
-2.39
-2.62
-2.98
-3.44
-3.93
-4.39
-4.72
-4.88
-4.80
-4.44
-3.79
-2.97
-2.12
-1.42
-0.93
-0.64
-0.41
-0.09
0.38
0.99
1.65
2.22
2.62
2.79
2.73
2.49
2.16
1.87
1.75
1.85
2.14
2.51
2.81
2.97
2.97
2.88
2.74
2.60
2.47
2.38
2.35
2.44
2.65
2.92
3.16
3.23
3.06
2.65
2.12
1.60
1.17
0.87
0.64
0.45
0.31
0.26
0.35
0.55
0.78
0.91
0.87
0.66
0.39
0.17
0.03
-0.05
-0.17
-0.38
-0.69
-1.06
-1.38
-1.61
-1.71
-1.71
-1.67
-1.62
-1.62
-1.70
-1.86
-2.12
-2.45
-2.87
-3.36
-3.90
-4.46
-4.96
-5.30
-5.44
-5.36
-5.14
-4.82
-4.45
-4.02
-3.48
-2.80
-2.02
-1.21
-0.48
0.10
0.52
0.80
1.01
1.20
1.38
1.51
1.57
1.57
1.56
1.61
1.81
2.17
2.61
3.04
3.32
3.38
3.23
2.96
2.69
2.52
2.47
2.48
2.45
2.32
2.06
1.73
1.41
1.19
1.13
1.22
1.43
1.66
1.83
1.87
1.75
1.47
1.10
0.69
0.31
0.02
-0.18
-0.29
-0.35
-0.35
-0.34
-0.35
-0.41
-0.57
-0.81
-1.13
-1.49
-1.87
-2.26
-2.68
-3.12
-3.56
-3.91
-4.11
-4.13
-4.00
-3.80
-3.59
-3.37
-3.09
-2.70
-2.23
-1.75
-1.38
-1.18
-1.10
-1.01
-0.79
-0.39
0.13
0.62
1.00
1.26
1.50
1.78
2.12
2.39
2.44
2.21
1.76
1.33
1.10
1.19
1.52
1.90
2.15
2.15
1.93
1.61
1.32
1.15
1.10
1.09
1.06
0.97
0.80
0.62
0.45
0.34
0.28
0.23
0.16
0.01
-0.18
-0.39
-0.53
-0.59
-0.58
-0.56
-0.60
-0.78
-1.11
-1.52
-1.95
-2.32
-2.58
-2.71
-2.74
-2.70
-2.62
-2.51
-2.35
-2.14
-1.88
-1.60
-1.31
-1.02
-0.73
-0.41
-0.08
0.25
0.55
0.77
0.93
1.04
1.15
1.27
1.37
1.40
1.34
1.21
1.10
1.12
1.30
1.65
2.05
2.39
2.57
2.56
2.38
2.10
1.78
1.45
1.14
0.87
0.67
0.53
0.45
0.41
0.36
0.26
0.08
-0.12
-0.30
-0.39
-0.37
-0.27
-0.17
-0.16
-0.29
-0.55
-0.87
-1.17
-1.38
-1.52
-1.65
-1.85
-2.15
-2.55
-2.97
-3.32
-3.56
-3.66
-3.67
-3.62
-3.52
-3.35
-3.02
-2.52
-1.85
-1.10
-0.36
0.26
0.73
1.04
1.21
1.29
1.32
1.35
1.41
1.52
1.62
1.68
1.65
1.56
1.49
1.51
1.66
1.89
2.11
2.20
2.10
1.87
1.58
1.36
1.27
1.35
1.53
1.76
1.99
2.17
2.28
2.27
2.13
1.83
1.42
0.94
0.50
0.18
0.02
-0.04
-0.06
-0.16
-0.40
-0.78
-1.21
-1.58
-1.81
-1.87
-1.84
-1.79
-1.83
-1.99
-2.25
-2.56
-2.88
-3.20
-3.53
-3.86
-4.14
-4.27
-4.18
-3.85
-3.32
-2.70
-2.08
-1.50
-1.00
-0.59
-0.26
-0.02
0.17
0.37
0.64
1.06
1.58
2.12
2.56
2.84
2.94
2.91
2.80
2.66
2.48
2.25
2.02
1.81
1.68
1.65
1.68
1.70
1.69
1.63
1.57
1.55
1.58
1.68
1.82
1.94
2.03
2.04
1.96
1.76
1.48
1.19
0.93
0.76
0.65
0.52
0.24
-0.23
-0.85
-1.52
-2.09
-2.43
-2.53
-2.42
-2.22
-2.02
-1.93
-2.04
-2.36
-2.88
-3.51
-4.09
-4.44
-4.44
-4.07
-3.43
-2.68
-2.00
-1.44
-1.00
-0.61
-0.23
0.13
0.42
0.63
0.75
0.81
0.85
0.87
0.91
0.99
1.17
1.46
1.83
2.16
2.28
2.12
1.71
1.24
0.93
0.92
1.19
1.59
1.89
1.93
1.68
1.26
0.82
0.50
0.33
0.28
0.25
0.23
0.21
0.22
0.31
0.41
0.46
0.37
0.10
-0.30
-0.72
-1.04
-1.20
-1.21
-1.16
-1.14
-1.22
-1.43
-1.80
-2.30
-2.86
-3.39
-3.75
-3.85
-3.63
-3.15
-2.52
-1.87
-1.29
-0.80
-0.38
-0.00
0.33
0.62
0.89
1.16
1.45
1.74
1.96
2.02
1.88
1.56
1.22
1.02
1.06
1.34
1.75
2.12
2.30
2.27
2.11
1.94
1.84
1.81
1.77
1.64
1.40
1.14
0.96
0.91
0.98
1.02
0.89
0.55
0.09
-0.31
-0.48
-0.36
-0.06
0.22
0.31
0.16
-0.11
-0.28
-0.15
0.33
1.10
1.97
2.76
3.36
3.75
4.07
4.49
5.27
6.66
8.93
12.22
16.54
21.68
27.23
32.65
37.42
41.20
43.81
45.32
45.89
45.74
45.10
44.18
43.15
42.04
40.72
38.85
35.97
31.66
25.68
18.06
9.03
-1.04
-11.69
-22.32
-32.21
-40.54
-46.59
-49.96
-50.75
-49.48
-46.94
-43.88
-40.83
-38.04
-35.58
-33.48
-31.75
-30.35
-29.14
-27.87
-26.33
-24.41
-22.23
-20.08
-18.26
-16.92
-15.99
-15.24
-14.39
-13.25
-11.76
-10.01
-8.18
-6.49
-5.12
-4.18
-3.72
-3.64
-3.77
-3.92
-3.95
-3.87
-3.80
-3.87
-4.13
-4.53
-4.87
-4.97
-4.73
-4.18
-3.44
-2.64
-1.88
-1.20
-0.58
-0.02
0.48
0.98
1.58
2.46
3.77
5.57
7.74
9.95
11.82
13.01
13.38
12.98
12.06
10.86
9.57
8.28
6.97
5.64
4.33
3.11
2.04
1.16
0.44
-0.18
-0.69
-1.08
-1.28
-1.25
-1.00
-0.60
-0.20
0.09
0.21
0.18
0.06
-0.07
-0.20
-0.35
-0.57
-0.89
-1.25
-1.58
-1.79
-1.86
-1.87
-1.92
-2.14
-2.56
-3.12
-3.70
-4.14
-4.38
-4.43
-4.37
-4.30
-4.29
-4.35
-4.41
-4.36
-4.13
-3.69
-3.09
-2.41
-1.73
-1.11
-0.56
-0.06
0.42
0.86
1.25
1.57
1.81
1.94
1.95
1.88
1.75
1.61
1.51
1.48
1.55
1.66
1.77
1.79
1.70
1.48
1.20
0.95
0.79
0.76
0.84
0.99
1.18
1.39
1.59
1.74
1.75
1.57
1.18
0.70
0.29
0.10
0.18
0.46
0.74
0.86
0.71
0.33
-0.19
-0.77
-1.33
-1.82
-2.20
-2.41
-2.42
-2.27
-2.03
-1.85
-1.80
-1.93
-2.18
-2.44
-2.60
-2.55
-2.23
-1.64
-0.85
0.02
0.84
1.45
1.78
1.84
1.72
1.56
1.47
1.52
1.70
1.95
2.18
2.34
2.44
2.51
2.60
2.78
3.06
3.44
3.82
4.05
3.97
3.48
2.62
1.57
0.61
0.01
-0.11
0.16
0.58
0.89
0.95
0.74
0.36
-0.05
-0.43
-0.79
-1.17
-1.58
-2.00
-2.33
-2.47
-2.38
-2.09
-1.72
-1.44
-1.38
-1.59
-2.02
-2.56
-3.08
-3.51
-3.82
-4.04
-4.19
-4.29
-4.34
-4.33
-4.26
-4.12
-3.91
-3.61
-3.20
-2.69
-2.11
-1.53
-1.02
-0.63
-0.36
-0.16
0.02
0.26
0.57
0.93
1.28
1.53
1.66
1.66
1.58
1.49
1.42
1.41
1.46
1.59
1.82
2.15
2.57
2.99
3.33
3.54
3.60
3.54
3.40
3.18
2.87
2.45
1.95
1.45
1.02
0.74
0.64
0.68
0.80
0.93
1.01
0.96
0.75
0.37
-0.10
-0.58
-0.95
-1.15
-1.21
-1.18
-1.17
-1.23
-1.36
-1.54
-1.73
-1.94
-2.19
-2.54
-2.99
-3.54
-4.11
-4.62
-4.99
-5.20
-5.28
-5.28
-5.25
-5.22
-5.17
-5.04
-4.80
-4.48
-4.11
-3.74
-3.42
-3.11
-2.76
-2.35
-1.87
-1.35
-0.82
-0.26
0.34
0.92
1.34
1.40
0.93
-0.11
-1.54
-3.07
-4.41
-5.41
-6.13
-6.77
-7.53
-8.53
-9.69
-10.85
-11.84
-12.55
-12.92
-12.82
-12.06
-10.33
-7.46
-3.48
1.22
6.04
10.37
13.79
16.29
18.09
19.51
20.76
21.86
22.71
23.23
23.41
23.30
22.90
22.12
20.79
18.77
16.07
12.81
9.25
5.61
2.05
-1.37
-4.65
-7.75
-10.66
-13.28
-15.52
-17.29
-18.51
-19.17
-19.32
-19.04
-18.44
-17.59
-16.42
-14.84
-12.70
-9.98
-6.81
-3.43
-0.18
2.70
5.06
6.87
8.14
8.94
9.27
9.22
8.88
8.41
8.00
7.76
7.67
7.65
7.58
7.35
6.93
6.38
5.80
5.26
4.81
4.47
4.18
3.93
3.68
3.43
3.21
3.04
2.94
2.88
2.79
2.62
2.31
1.84
1.25
0.63
0.08
-0.28
-0.42
-0.38
-0.27
-0.23
-0.37
-0.73
-1.22
-1.73
-2.14
-2.40
-2.55
-2.67
-2.84
-3.07
-3.29
-3.40
-3.32
-3.02
-2.58
-2.09
-1.64
-1.25
-0.84
-0.36
0.25
0.93
1.53
1.90
1.94
1.71
1.35
1.06
1.00
1.17
1.49
1.81
2.02
2.12
2.18
2.25
2.35
2.42
2.36
2.14
1.78
1.39
1.07
0.89
0.83
0.83
0.84
0.80
0.72
0.60
0.45
0.29
0.13
-0.00
-0.07
-0.08
-0.04
0.02
0.07
0.10
0.09
0.00
-0.21
-0.64
-1.34
-2.26
-3.25
-4.06
-4.46
-4.36
-3.80
-3.04
-2.32
-1.83
-1.58
-1.43
-1.21
-0.83
-0.35
0.10
0.37
0.42
0.33
0.25
0.28
0.44
0.63
0.78
0.81
0.75
0.69
0.68
0.74
0.80
0.81
0.75
0.68
0.67
0.82
1.09
1.37
1.50
1.37
0.96
0.41
-0.05
-0.27
-0.21
0.02
0.26
0.32
0.17
-0.17
-0.58
-0.97
-1.30
-1.57
-1.79
-1.95
-2.04
-2.06
-2.05
-2.05
-2.06
-2.08
-2.05
-1.92
-1.67
-1.30
-0.79
-0.17
0.58
1.39
2.16
2.77
3.10
3.10
2.87
2.55
2.32
2.29
2.46
2.73
2.97
3.07
3.01
2.89
2.78
2.77
2.82
2.85
2.77
2.56
2.26
1.96
1.72
1.55
1.41
1.23
0.99
0.67
0.28
-0.15
-0.62
-1.07
-1.47
-1.74
-1.86
-1.87
-1.89
-2.05
-2.42
-3.02
-3.75
-4.49
-5.08
-5.40
-5.41
-5.12
-4.56
-3.80
-2.88
-1.86
-0.85
0.03
0.66
1.03
1.22
1.37
1.67
2.14
2.73
3.24
3.51
3.48
3.25
2.99
2.87
2.91
3.04
3.11
3.00
2.73
2.42
2.20
2.13
2.19
2.27
2.26
2.11
1.82
1.49
1.17
0.90
0.69
0.51
0.37
0.28
0.25
0.28
0.33
0.35
0.30
0.18
0.00
-0.22
-0.50
-0.84
-1.24
-1.70
-2.18
-2.61
-2.95
-3.16
-3.23
-3.14
-2.89
-2.47
-1.88
-1.21
-0.55
0.02
0.47
0.81
1.07
1.27
1.41
1.45
1.42
1.38
1.40
1.51
1.67
1.80
1.84
1.76
1.66
1.63
1.74
1.97
2.21
2.36
2.32
2.11
1.82
1.55
1.38
1.31
1.32
1.35
1.37
1.36
1.32
1.25
1.16
1.02
0.83
0.60
0.37
0.18
0.03
-0.05
-0.05
0.06
0.26
0.56
0.88
1.12
1.22
1.19
1.14
1.26
1.76
2.82
4.44
6.45
8.46
9.98
10.56
9.93
8.15
5.60
2.88
0.61
-0.75
-0.99
-0.21
1.24
2.79
3.86
3.98
3.00
1.12
-1.19
-3.34
-4.89
-5.64
-5.70
-5.30
-4.71
-4.08
-3.44
-2.78
-2.11
-1.50
-1.05
-0.86
-0.99
-1.41
-2.00
-2.54
-2.85
-2.82
-2.49
-2.05
-1.73
-1.72
-2.05
-2.60
-3.19
-3.68
-4.04
-4.37
-4.79
-5.35
-5.97
-6.51
-6.86
-6.98
-6.95
-6.89
-6.89
-6.94
-6.96
-6.89
-6.66
-6.33
-5.95
-5.60
-5.34
-5.17
-5.10
-5.13
-5.27
-5.49
-5.72
-5.81
-5.58
-4.85
-3.49
-1.46
1.20
4.45
8.24
12.57
17.38
22.43
27.33
31.53
34.47
35.82
35.51
33.77
30.92
27.28
23.04
18.33
13.28
8.11
3.13
-1.36
-5.11
-8.04
-10.19
-11.65
-12.55
-12.98
-13.07
-12.90
-12.62
-12.37
-12.26
-12.37
-12.67
-13.07
-13.43
-13.58
-13.38
-12.76
-11.77
-10.51
-9.17
-7.92
-6.86
-6.04
-5.39
-4.81
-4.17
-3.39
-2.42
-1.33
-0.26
0.59
1.10
1.20
0.98
0.61
0.29
0.16
0.29
0.65
1.16
1.73
2.26
2.62
2.72
2.52
2.08
1.54
1.08
0.82
0.78
0.87
0.99
1.05
1.03
0.94
0.80
0.63
0.40
0.13
-0.15
-0.39
-0.50
-0.50
-0.39
-0.28
-0.24
-0.35
-0.62
-1.02
-1.48
-1.89
-2.20
-2.40
-2.55
-2.73
-2.99
-3.32
-3.63
-3.82
-3.82
-3.62
-3.29
-2.94
-2.61
-2.28
-1.87
-1.30
-0.60
0.15
0.81
1.31
1.63
1.82
1.95
2.03
2.05
2.03
1.99
2.01
2.13
2.35
2.56
2.69
2.69
2.64
2.63
2.71
2.85
2.94
2.88
2.63
2.27
1.91
1.66
1.56
1.56
1.56
1.50
1.33
1.09
0.81
0.57
0.39
0.30
0.23
0.14
-0.03
-0.29
-0.59
-0.86
-1.03
-1.09
-1.07
-1.07
-1.20
-1.51
-2.00
-2.58
-3.12
-3.50
-3.67
-3.68
-3.62
-3.57
-3.54
-3.47
-3.26
-2.84
-2.25
-1.56
-0.84
-0.18
0.42
0.97
1.45
1.85
2.14
2.32
2.39
2.39
2.33
2.27
2.21
2.17
2.14
2.07
1.92
1.61
1.13
0.47
-0.29
-1.09
-1.81
-2.41
-2.85
-3.18
-3.43
-3.63
-3.78
-3.82
-3.74
-3.59
-3.44
-3.41
-3.55
-3.81
-4.08
-4.25
-4.30
-4.28
-4.26
-4.31
-4.39
-4.40
-4.24
-3.84
-3.26
-2.56
-1.83
-1.11
-0.38
0.40
1.26
2.16
3.04
3.81
4.42
4.86
5.14
5.32
5.39
5.36
5.22
4.99
4.70
4.43
4.23
4.07
3.89
3.62
3.19
2.61
1.97
1.35
0.83
0.43
0.06
-0.40
-1.07
-1.99
-3.11
-4.29
-5.37
-6.25
-6.93
-7.51
-8.11
-8.85
-9.73
-10.69
-11.63
-12.46
-13.15
-13.70
-14.12
-14.38
-14.40
-14.06
-13.21
-11.70
-9.40
-6.20
-2.09
2.87
8.46
14.32
19.94
24.81
28.52
30.94
32.20
32.62
32.57
32.30
31.84
31.07
29.79
27.86
25.31
22.36
19.35
16.63
14.42
12.77
11.52
10.45
9.39
8.32
7.36
6.65
6.25
6.07
5.86
5.36
4.40
2.95
1.09
-1.01
-3.25
-5.57
-7.94
-10.35
-12.73
-14.95
-16.80
-18.12
-18.78
-18.85
-18.48
-17.90
-17.32
-16.83
-16.37
-15.81
-15.00
-13.90
-12.61
-11.28
-10.10
-9.17
-8.50
-7.99
-7.57
-7.14
-6.71
-6.27
-5.84
-5.42
-4.99
-4.52
-4.01
-3.51
-3.09
-2.79
-2.66
-2.63
-2.63
-2.55
-2.32
-1.98
-1.61
-1.32
-1.19
-1.20
-1.23
-1.19
-1.04
-0.85
-0.72
-0.70
-0.82
-1.01
-1.24
-1.47
-1.76
-2.14
-2.59
-3.05
-3.41
-3.59
-3.56
-3.39
-3.16
-2.94
-2.75
-2.57
-2.34
-1.96
-1.39
-0.62
0.27
1.13
1.77
2.10
2.15
2.05
1.95
1.94
1.99
2.00
1.85
1.56
1.22
1.03
1.07
1.31
1.57
1.63
1.39
0.92
0.43
0.13
0.13
0.36
0.65
0.80
0.70
0.40
-0.02
-0.43
-0.80
-1.13
-1.51
-1.97
-2.50
-3.09
-3.69
-4.25
-4.76
-5.23
-5.66
-6.05
-6.41
-6.74
-7.02
-7.20
-7.25
-7.13
-6.81
-6.31
-5.64
-4.82
-3.87
-2.83
-1.70
-0.55
0.63
1.85
3.17
4.62
6.22
7.89
9.51
10.94
12.07
12.91
13.49
13.90
14.17
14.24
14.04
13.49
12.58
11.40
10.11
8.86
7.76
6.85
6.05
5.26
4.39
3.44
2.46
1.54
0.72
0.01
-0.61
-1.16
-1.65
-2.06
-2.38
-2.60
-2.76
-2.92
-3.12
-3.37
-3.65
-3.92
-4.12
-4.21
-4.18
-4.04
-3.87
-3.72
-3.67
-3.70
-3.74
-3.68
-3.44
-2.98
-2.38
-1.79
-1.32
-1.03
-0.89
-0.80
-0.65
-0.42
-0.14
0.09
0.23
0.31
0.38
0.47
0.57
0.62
0.58
0.44
0.25
0.07
-0.04
-0.10
-0.11
-0.07
0.04
0.23
0.49
0.74
0.91
0.97
0.93
0.85
0.78
0.74
0.65
0.46
0.10
-0.41
-1.00
-1.58
-2.07
-2.43
-2.73
-3.04
-3.40
-3.81
-4.18
-4.43
-4.51
-4.44
-4.27
-4.07
-3.85
-3.56
-3.12
-2.49
-1.68
-0.80
-0.00
0.59
0.90
0.98
0.91
0.85
0.90
1.11
1.42
1.73
1.94
2.02
1.98
1.88
1.78
1.66
1.48
1.16
0.69
0.10
-0.54
-1.15
-1.70
-2.19
-2.63
-3.09
-3.61
-4.24
-4.97
-5.78
-6.61
-7.44
-8.23
-9.04
-9.90
-10.93
-12.16
-13.59
-15.13
-16.63
-17.95
-18.98
-19.68
-20.10
-20.33
-20.44
-20.43
-20.22
-19.59
-18.24
-15.82
-11.95
-6.30
1.27
10.54
20.95
31.62
41.59
50.05
56.55
61.02
63.66
64.76
64.53
63.14
60.67
57.31
53.30
48.96
44.56
40.27
36.12
32.08
28.14
24.39
21.00
18.15
15.93
14.23
12.71
10.97
8.70
5.83
2.56
-0.71
-3.61
-5.97
-7.82
-9.41
-10.98
-12.71
-14.58
-16.49
-18.30
-19.92
-21.38
-22.75
-24.13
-25.58
-27.07
-28.49
-29.68
-30.50
-30.88
-30.85
-30.48
-29.87
-29.07
-28.09
-26.95
-25.68
-24.35
-23.06
-21.85
-20.69
-19.48
-18.13
-16.58
-14.89
-13.22
-11.70
-10.45
-9.46
-8.65
-7.93
-7.18
-6.34
-5.37
-4.26
-3.02
-1.63
-0.07
1.71
3.76
6.06
8.47
10.77
12.67
13.94
14.50
14.43
13.92
13.19
12.35
11.38
10.16
8.60
6.72
4.70
2.77
1.12
-0.19
-1.27
-2.27
-3.33
-4.46
-5.56
-6.47
-7.09
-7.39
-7.41
-7.28
-7.09
-6.88
-6.65
-6.32
-5.83
-5.14
-4.32
-3.48
-2.79
-2.33
-2.12
-2.03
-1.88
-1.57
-1.09
-0.54
-0.05
0.27
0.40
0.40
0.29
0.09
-0.20
-0.57
-0.93
-1.16
-1.13
-0.84
-0.39
0.02
0.21
0.07
-0.38
-1.03
-1.73
-2.38
-2.96
-3.47
-3.98
-4.49
-5.00
-5.50
-5.99
-6.47
-6.98
-7.51
-8.03
-8.45
-8.72
-8.80
-8.72
-8.57
-8.44
-8.38
-8.39
-8.40
-8.35
-8.14
-7.75
-7.15
-6.34
-5.29
-3.97
-2.38
-0.50
1.62
3.93
6.39
8.99
11.76
14.75
17.99
21.43
24.94
28.26
31.12
33.27
34.53
34.82
34.12
32.48
29.99
26.83
23.21
19.38
15.55
11.89
8.50
5.44
2.68
0.20
-2.04
-4.10
-6.02
-7.81
-9.44
-10.82
-11.89
-12.59
-12.96
-13.08
-13.07
-13.00
-12.91
-12.79
-12.60
-12.29
-11.78
-11.05
-10.09
-8.95
-7.75
-6.60
-5.59
-4.75
-4.03
-3.35
-2.67
-2.01
-1.45
-1.04
-0.75
-0.51
-0.20
0.24
0.78
1.33
1.77
2.04
2.17
2.22
2.24
2.27
2.29
2.29
2.26
2.20
2.12
2.00
1.85
1.71
1.62
1.62
1.71
1.84
1.91
1.86
1.68
1.45
1.23
1.07
0.93
0.73
0.39
-0.05
-0.50
-0.82
-0.91
-0.80
-0.64
-0.60
-0.79
-1.18
-1.67
-2.12
-2.47
-2.74
-2.97
-3.18
-3.34
-3.38
-3.28
-3.05
-2.76
-2.40
-1.95
-1.36
-0.61
0.20
0.94
1.50
1.85
2.06
2.24
2.43
2.59
2.63
2.52
2.27
2.00
1.82
1.80
1.95
2.22
2.52
2.75
2.84
2.75
2.51
2.19
1.90
1.76
1.78
1.91
2.02
2.02
1.87
1.65
1.47
1.39
1.41
1.49
1.53
1.48
1.34
1.16
0.95
0.74
0.51
0.24
-0.06
-0.37
-0.62
-0.79
-0.84
-0.78
-0.65
-0.53
-0.48
-0.61
-0.96
-1.55
-2.30
-3.07
-3.69
-3.99
-3.93
-3.52
-2.91
-2.28
-1.77
-1.47
-1.37
-1.38
-1.37
-1.25
-0.96
-0.54
-0.07
0.37
0.72
0.97
1.15
1.29
1.35
1.31
1.14
0.89
0.66
0.58
0.75
1.13
1.57
1.88
1.93
1.74
1.42
1.18
1.14
1.32
1.64
1.95
2.11
2.08
1.88
1.56
1.23
0.94
0.77
0.73
0.78
0.87
0.89
0.78
0.51
0.14
-0.26
-0.61
-0.87
-1.05
-1.19
-1.34
-1.54
-1.76
-1.97
-2.14
-2.23
-2.20
-2.04
-1.74
-1.31
-0.78
-0.20
0.34
0.76
0.98
0.98
0.76
0.45
0.17
0.09
0.32
0.86
1.61
2.36
2.90
3.08
2.90
2.47
1.97
1.58
1.37
1.33
1.37
1.41
1.40
1.36
1.31
1.25
1.17
0.99
0.68
0.22
-0.31
-0.79
-1.11
-1.19
-1.05
-0.77
-0.46
-0.22
-0.10
-0.11
-0.25
-0.48
-0.78
-1.09
-1.41
-1.72
-2.04
-2.38
-2.73
-3.00
-3.10
-2.98
-2.65
-2.20
-1.77
-1.43
-1.21
-1.06
-0.91
-0.71
-0.46
-0.20
0.05
0.28
0.54
0.86
1.24
1.65
2.03
2.32
2.48
2.52
2.49
2.43
2.35
2.26
2.14
1.99
1.84
1.70
1.60
1.50
1.39
1.25
1.13
1.07
1.11
1.22
1.30
1.26
1.02
0.59
0.08
-0.36
-0.63
-0.66
-0.48
-0.19
0.09
0.21
0.10
-0.25
-0.77
-1.33
-1.83
-2.19
-2.42
-2.58
-2.72
-2.83
-2.90
-2.89
-2.80
-2.69
-2.60
-2.54
-2.45
-2.23
-1.81
-1.24
-0.66
-0.23
-0.06
-0.09
-0.15
-0.06
0.26
0.77
1.33
1.77
2.05
2.19
2.28
2.37
2.46
2.49
2.42
2.25
2.03
1.81
1.60
1.37
1.09
0.75
0.43
0.20
0.17
0.35
0.69
1.06
1.37
1.52
1.48
1.28
0.96
0.60
0.24
-0.07
-0.31
-0.49
-0.61
-0.71
-0.80
-0.91
-1.04
-1.20
-1.39
-1.59
-1.81
-2.02
-2.25
-2.50
-2.81
-3.17
-3.55
-3.84
-3.93
-3.76
-3.33
-2.74
-2.12
-1.60
-1.24
-1.00
-0.79
-0.54
-0.24
0.11
0.45
0.76
1.05
1.34
1.63
1.88
2.05
2.10
2.03
1.93
1.88
1.98
2.24
2.63
2.97
3.14
3.02
2.63
2.07
1.50
1.08
0.85
0.79
0.78
0.73
0.59
0.36
0.11
-0.10
-0.24
-0.29
-0.28
-0.22
-0.10
0.04
0.20
0.33
0.40
0.35
0.17
-0.15
-0.60
-1.10
-1.56
-1.91
-2.10
-2.13
-2.09
-2.04
-2.02
-1.97
-1.83
-1.51
-1.04
-0.53
-0.13
0.08
0.09
0.03
0.03
0.16
0.40
0.63
0.79
0.84
0.88
1.02
1.30
1.69
2.05
2.24
2.20
1.95
1.60
1.27
1.05
0.99
1.04
1.13
1.19
1.17
1.06
0.90
0.77
0.72
0.73
0.73
0.61
0.29
-0.19
-0.69
-1.03
-1.12
-0.99
-0.80
-0.68
-0.74
-0.96
-1.24
-1.50
-1.74
-2.00
-2.34
-2.77
-3.21
-3.52
-3.62
-3.47
-3.13
-2.66
-2.13
-1.56
-0.97
-0.38
0.15
0.52
0.71
0.72
0.63
0.54
0.52
0.55
0.58
0.60
0.62
0.75
1.08
1.63
2.30
2.90
3.21
3.17
2.83
2.36
1.97
1.78
1.80
1.94
2.07
2.09
1.98
1.74
1.43
1.09
0.74
0.40
0.06
-0.24
-0.47
-0.57
-0.53
-0.41
-0.28
-0.26
-0.42
-0.73
-1.11
-1.40
-1.54
-1.54
-1.51
-1.60
-1.89
-2.38
-2.94
-3.41
-3.69
-3.77
-3.70
-3.55
-3.31
-2.97
-2.48
-1.87
-1.21
-0.63
-0.24
-0.04
0.02
0.04
0.11
0.29
0.54
0.82
1.09
1.31
1.47
1.58
1.65
1.71
1.79
1.92
2.11
2.33
2.55
2.69
2.69
2.49
2.09
1.58
1.08
0.75
0.70
0.89
1.22
1.52
1.62
1.47
1.10
0.64
0.23
-0.05
-0.18
-0.22
-0.25
-0.32
-0.46
-0.66
-0.88
-1.09
-1.28
-1.45
-1.61
-1.76
-1.89
-1.99
-2.08
-2.15
-2.23
-2.31
-2.38
-2.43
-2.43
-2.38
-2.27
-2.09
-1.85
-1.56
-1.22
-0.86
-0.51
-0.20
0.06
0.28
0.48
0.68
0.87
1.04
1.15
1.21
1.25
1.29
1.37
1.48
1.61
1.73
1.83
1.93
2.03
2.12
2.18
2.17
2.03
1.80
1.49
1.22
1.04
1.00
1.09
1.24
1.38
1.42
1.34
1.15
0.87
0.54
0.18
-0.20
-0.56
-0.85
-1.02
-1.03
-0.92
-0.77
-0.72
-0.83
-1.14
-1.58
-2.04
-2.43
-2.70
-2.83
-2.85
-2.73
-2.47
-2.03
-1.45
-0.85
-0.37
-0.13
-0.17
-0.36
-0.50
-0.42
-0.06
0.49
1.00
1.26
1.15
0.73
0.20
-0.19
-0.26
0.01
0.52
1.09
1.55
1.84
1.97
2.01
2.00
1.92
1.74
1.46
1.12
0.80
0.58
0.47
0.42
0.35
0.21
0.02
-0.15
-0.27
-0.31
-0.33
-0.37
-0.48
-0.66
-0.88
-1.13
-1.39
-1.66
-1.89
-2.03
-2.05
-1.94
-1.73
-1.51
-1.34
-1.23
-1.13
-0.99
-0.76
-0.45
-0.09
0.29
0.62
0.87
0.99
0.95
0.75
0.46
0.22
0.12
0.23
0.50
0.79
1.00
1.03
0.94
0.81
0.74
0.78
0.93
1.13
1.36
1.59
1.80
1.96
2.04
1.98
1.76
1.38
0.92
0.42
-0.06
-0.50
-0.90
-1.29
-1.69
-2.13
-2.61
-3.13
-3.65
-4.11
-4.44
-4.57
-4.47
-4.16
-3.68
-3.11
-2.54
-2.04
-1.64
-1.35
-1.13
-0.92
-0.68
-0.38
-0.01
0.40
0.80
1.14
1.39
1.56
1.67
1.77
1.87
1.94
1.92
1.77
1.46
1.09
0.75
0.58
0.62
0.80
0.99
1.08
0.99
0.77
0.47
0.13
-0.23
-0.63
-1.04
-1.41
-1.63
-1.64
-1.52
-1.43
-1.58
-2.10
-2.96
-3.96
-4.88
-5.53
-5.86
-5.96
-5.97
-6.01
-6.10
-6.18
-6.18
-6.06
-5.88
-5.73
-5.74
-6.00
-6.50
-7.20
-7.98
-8.70
-9.28
-9.71
-10.07
-10.49
-11.04
-11.74
-12.52
-13.28
-13.93
-14.38
-14.54
-14.27
-13.30
-11.32
-8.02
-3.27
2.80
9.84
17.34
24.85
32.01
38.62
44.52
49.52
53.36
55.82
56.76
56.26
54.66
52.41
49.96
47.59
45.40
43.27
41.06
38.56
35.65
32.29
28.55
24.59
20.62
16.85
13.43
10.45
7.95
5.90
4.23
2.83
1.51
0.04
-1.83
-4.28
-7.33
-10.82
-14.47
-17.95
-21.03
-23.58
-25.64
-27.34
-28.87
-30.39
-31.94
-33.48
-34.81
-35.78
-36.26
-36.23
-35.79
-35.10
-34.26
-33.32
-32.25
-30.98
-29.53
-27.94
-26.26
-24.52
-22.67
-20.63
-18.39
-16.05
-13.80
-11.84
-10.28
-9.07
-8.04
-7.00
-5.86
-4.68
-3.59
-2.71
-2.04
-1.47
-0.87
-0.14
0.64
1.36
1.85
2.06
2.02
1.84
1.66
1.55
1.54
1.58
1.61
1.59
1.48
1.29
1.00
0.65
0.21
-0.31
-0.92
-1.60
-2.28
-2.86
-3.28
-3.47
-3.45
-3.26
-2.95
-2.52
-1.98
-1.33
-0.62
0.04
0.54
0.79
0.78
0.57
0.30
0.09
0.01
0.09
0.24
0.41
0.52
0.52
0.43
0.25
0.03
-0.18
-0.33
-0.43
-0.51
-0.63
-0.87
-1.28
-1.81
-2.40
-2.98
-3.48
-3.86
-4.11
-4.18
-4.00
-3.49
-2.57
-1.17
0.76
3.23
6.22
9.62
13.24
16.81
20.09
22.95
25.41
27.58
29.56
31.33
32.70
33.40
33.18
31.94
29.74
26.76
23.20
19.27
15.11
10.91
6.83
3.10
-0.11
-2.69
-4.68
-6.24
-7.55
-8.81
-10.09
-11.40
-12.61
-13.62
-14.29
-14.57
-14.47
-14.05
-13.45
-12.76
-12.07
-11.41
-10.78
-10.17
-9.59
-9.07
-8.66
-8.36
-8.15
-7.94
-7.68
-7.35
-6.98
-6.63
-6.27
-5.84
-5.27
-4.52
-3.68
-2.93
-2.45
-2.35
-2.60
-3.05
-3.53
-3.94
-4.26
-4.50
-4.70
-4.83
-4.85
-4.73
-4.53
-4.32
-4.16
-4.05
-3.90
-3.60
-3.06
-2.29
-1.39
-0.49
0.31
0.95
1.42
1.70
1.79
1.73
1.58
1.48
1.51
1.72
2.08
2.49
2.82
3.04
3.15
3.25
3.38
3.54
3.69
3.75
3.70
3.55
3.40
3.30
3.30
3.36
3.42
3.40
3.28
3.06
2.80
2.56
2.37
2.26
2.20
2.20
2.23
2.29
2.37
2.41
2.35
2.14
1.76
1.24
0.64
0.10
-0.32
-0.55
-0.66
-0.74
-0.90
-1.18
-1.57
-2.03
-2.47
-2.91
-3.36
-3.86
-4.40
-4.92
-5.32
-5.55
-5.64
-5.72
-5.89
-6.16
-6.47
-6.66
-6.63
-6.40
-6.06
-5.74
-5.51
-5.31
-5.07
-4.75
-4.42
-4.23
-4.35
-4.84
-5.65
-6.61
-7.48
-8.08
-8.39
-8.50
-8.58
-8.78
-9.17
-9.65
-9.93
-9.72
-8.78
-7.09
-4.67
-1.58
2.18
6.57
11.43
16.63
21.89
26.91
31.38
35.10
37.96
39.86
40.63
40.07
38.27
35.43
31.87
27.87
23.63
19.25
14.92
10.79
7.15
4.61
3.67
4.66
7.63
12.46
18.91
26.86
35.97
43.69
47.26
44.94
37.42
27.20
16.94
8.21
2.34
-1.54
-4.48
-7.16
-10.19
-13.87
-18.32
-23.43
-29.20
-35.40
-41.73
-47.71
-52.63
-56.21
-58.31
-58.95
-56.29
-49.87
-40.43
-29.33
-19.28
-10.72
-4.19
-0.09
1.96
2.44
1.84
1.05
1.05
2.56
5.81
9.98
13.59
14.64
10.94
0.85
-15.11
-32.61
-44.55
-45.23
-34.41
-16.83
0.96
13.86
20.06
21.14
20.26
19.79
20.02
19.68
17.25
12.68
7.31
3.02
1.31
2.54
5.64
8.64
9.73
8.21
4.85
1.26
-0.84
-0.30
2.98
8.14
13.79
18.74
22.61
25.83
29.13
33.01
37.39
41.62
44.76
45.98
45.05
42.42
39.05
35.98
33.82
32.63
31.86
30.61
28.01
23.43
16.63
7.78
-2.63
-13.78
-24.48
-33.35
-39.12
-41.10
-39.55
-35.62
-30.98
-27.16
-24.98
-24.37
-24.68
-25.16
-25.30
-25.02
-24.47
-23.78
-22.96
-21.95
-20.72
-19.41
-18.30
-17.65
-17.63
-18.16
-18.98
-19.72
-20.07
-19.81
-18.97
-17.74
-16.45
-15.42
-14.81
-14.59
-14.54
-14.37
-13.85
-12.91
-11.72
-10.56
-9.73
-9.33
-9.36
-9.68
-10.22
-10.88
-11.58
-12.20
-12.66
-12.79
-12.51
-11.88
-11.15
-10.78
-11.06
-12.00
-13.36
-14.76
-15.80
-16.21
-16.09
-15.60
-15.01
-14.17
-12.49
-9.22
-3.80
3.97
13.83
25.05
37.36
48.96
57.59
61.91
62.08
59.15
54.42
49.86
45.86
42.46
39.31
35.91
31.65
25.83
17.71
7.31
-4.39
-15.60
-24.02
-27.88
-26.58
-21.02
-13.24
-5.67
-0.06
2.96
3.62
2.74
0.89
-1.63
-4.68
-7.98
-11.10
-13.41
-14.45
-14.19
-12.96
-11.38
-9.96
-8.92
-8.18
-7.48
-6.52
-5.10
-3.22
-1.04
1.08
2.81
3.85
4.13
3.77
3.11
2.52
2.26
2.40
2.76
3.12
3.26
3.17
2.99
2.96
3.24
3.87
4.73
5.64
6.39
6.82
6.76
5.97
4.23
1.45
-2.15
-5.96
-9.20
-11.32
-12.34
-12.99
-14.32
-17.16
-21.55
-26.68
-31.25
-34.15
-34.88
-33.69
-31.22
-28.02
-24.34
-20.18
-15.55
-10.78
-6.49
-3.33
-1.69
-1.48
-2.16
-3.02
-3.39
-2.89
-1.42
0.85
3.60
6.50
9.23
11.64
13.64
15.32
16.78
18.13
19.36
20.37
21.05
21.33
21.31
21.20
21.20
21.38
21.57
21.50
20.87
19.60
17.79
15.73
13.70
11.89
10.38
9.15
8.19
7.52
7.18
7.16
7.39
7.70
7.93
7.96
7.75
7.36
6.86
6.34
5.85
5.40
5.02
4.71
4.50
4.40
4.44
4.58
4.79
5.01
5.13
5.05
4.67
3.91
2.74
1.22
-0.51
-2.25
-3.76
-4.90
-5.59
-5.97
-6.19
-6.47
-6.92
-7.57
-8.30
-8.96
-9.32
-9.15
-8.21
-6.35
-3.57
-0.07
3.89
8.00
12.08
15.96
19.47
22.24
23.77
23.59
21.53
17.85
13.09
7.92
2.80
-2.02
-6.51
-10.57
-14.02
-16.59
-18.08
-18.59
-18.37
-17.81
-17.19
-16.63
-16.13
-15.63
-15.17
-14.85
-14.78
-14.94
-15.21
-15.36
-15.12
-14.35
-13.07
-11.53
-10.05
-8.92
-8.25
-7.87
-7.40
-6.39
-4.64
-2.26
0.24
2.20
3.10
2.76
1.47
-0.20
-1.64
-2.40
-2.39
-1.80
-0.99
-0.38
-0.29
-0.94
-2.35
-4.29
-6.28
-7.69
-7.93
-6.71
-4.18
-0.92
2.28
4.69
5.90
5.89
4.96
3.56
2.07
0.71
-0.47
-1.53
-2.48
-3.29
-3.84
-4.04
-3.85
-3.31
-2.55
-1.66
-0.66
0.54
2.04
3.90
6.05
8.34
10.54
12.50
14.16
15.55
16.73
17.75
18.54
18.92
18.65
17.50
15.43
12.71
9.85
7.41
5.81
5.12
5.14
5.53
6.07
6.68
7.42
8.27
9.01
9.27
8.73
7.35
5.41
3.40
1.78
0.72
0.07
-0.49
-1.22
-2.17
-3.16
-3.86
-3.93
-3.07
-1.06
2.17
6.48
11.37
16.06
19.67
21.66
22.10
21.66
21.32
21.87
23.55
26.00
28.51
30.46
31.55
31.82
31.43
30.52
29.14
27.31
25.12
22.87
20.94
19.73
19.58
20.59
22.64
25.30
27.98
30.07
31.16
31.12
30.00
27.88
24.60
19.72
12.72
3.31
-8.30
-21.31
-34.41
-46.16
-55.30
-61.01
-63.11
-62.00
-58.58
-54.03
-49.49
-45.76
-43.16
-41.51
-40.35
-39.26
-38.01
-36.66
-35.43
-34.48
-33.80
-33.25
-32.68
-32.03
-31.38
-30.86
-30.50
-30.18
-29.67
-28.76
-27.35
-25.44
-23.14
-20.57
-17.86
-15.17
-12.80
-11.09
-10.33
-10.67
-12.02
-14.05
-16.28
-18.14
-19.07
-18.64
-16.56
-12.84
-7.83
-2.12
3.60
8.73
12.90
16.04
18.24
19.74
20.73
21.39
21.88
22.34
22.91
23.77
25.10
26.99
29.40
32.13
34.78
36.90
38.09
38.14
36.95
34.54
30.88
25.92
19.61
12.01
3.42
-5.69
-14.73
-23.16
-30.57
-36.72
-41.51
-44.87
-46.81
-47.39
-46.78
-45.25
-43.14
-40.66
-37.85
-34.44
-29.94
-23.85
-15.91
-6.30
4.33
15.05
24.90
33.12
39.29
43.25
45.07
44.96
43.20
40.21
36.50
32.57
28.83
25.49
22.64
20.23
18.23
16.64
15.51
14.86
14.62
14.62
14.61
14.39
13.80
12.88
11.71
10.51
9.45
8.66
8.18
7.97
7.93
7.94
7.88
7.65
7.13
6.18
4.65
2.44
-0.47
-3.89
-7.47
-10.75
-13.31
-14.93
-15.64
-15.67
-15.26
-14.58
-13.67
-12.50
-11.10
-9.63
-8.30
-7.33
-6.82
-6.67
-6.71
-6.72
-6.51
-6.06
-5.47
-4.95
-4.79
-5.18
-6.17
-7.62
-9.19
-10.55
-11.45
-11.78
-11.59
-11.00
-10.09
-8.91
-7.55
-6.11
-4.80
-3.76
-3.06
-2.61
-2.26
-1.84
-1.31
-0.72
-0.24
0.05
0.11
0.02
-0.11
-0.20
-0.26
-0.34
-0.50
-0.76
-1.06
-1.25
-1.24
-0.98
-0.53
-0.00
0.49
0.89
1.22
1.51
1.79
2.03
2.16
2.09
1.81
1.37
0.88
0.42
0.01
-0.38
-0.81
-1.30
-1.82
-2.30
-2.67
-2.84
-2.81
-2.60
-2.26
-1.85
-1.41
-0.95
-0.48
-0.03
0.37
0.68
0.88
0.97
1.03
1.12
1.28
1.46
1.53
1.42
1.11
0.72
0.42
0.29
0.34
0.38
0.22
-0.27
-1.09
-2.12
-3.20
-4.24
-5.22
-6.18
-7.15
-8.06
-8.82
-9.34
-9.64
-9.89
-10.33
-11.20
-12.59
-14.37
-16.23
-17.77
-18.65
-18.70
-17.88
-16.23
-13.80
-10.55
-6.42
-1.42
4.34
10.54
16.76
22.51
27.35
30.93
32.99
33.42
32.31
29.97
26.93
23.89
21.53
20.36
20.52
21.73
23.36
24.67
25.10
24.42
22.77
20.57
18.31
16.37
14.91
13.87
13.09
12.36
11.51
10.44
9.02
7.17
4.80
1.92
-1.35
-4.76
-7.95
-10.59
-12.53
-13.92
-15.14
-16.62
-18.67
-21.29
-24.23
-27.06
-29.28
-30.51
-30.48
-29.17
-26.78
-23.76
-20.73
-18.26
-16.66
-15.87
-15.54
-15.24
-14.77
-14.20
-13.82
-13.90
-14.58
-15.80
-17.41
-19.18
-20.91
-22.37
-23.32
-23.54
-22.91
-21.47
-19.38
-16.86
-14.09
-11.21
-8.32
-5.46
-2.73
-0.16
2.24
4.49
6.63
8.64
10.46
12.01
13.24
14.18
14.86
15.37
15.72
15.89
15.85
15.58
15.12
14.57
14.04
13.58
13.15
12.70
12.19
11.65
11.20
10.94
10.89
11.01
11.13
11.16
11.06
10.91
10.80
10.79
10.81
10.74
10.47
9.97
9.32
8.64
8.02
7.47
6.98
6.52
6.10
5.76
5.54
5.42
5.30
5.07
4.65
4.07
3.46
2.97
2.74
2.77
2.95
3.13
3.14
2.92
2.53
2.14
1.96
2.14
2.76
3.74
4.83
5.68
5.86
5.00
2.95
-0.11
-3.58
-6.62
-8.34
-8.19
-6.13
-2.74
0.96
3.91
5.25
4.65
2.26
-1.44
-5.82
-10.38
-14.70
-18.46
-21.27
-22.75
-22.54
-20.56
-17.08
-12.68
-8.05
-3.64
0.50
4.74
9.62
15.47
22.19
29.15
35.41
40.06
42.52
42.76
41.28
38.87
36.30
34.07
32.13
29.95
26.70
21.53
13.95
4.09
-7.25
-18.71
-28.66
-35.69
-38.95
-38.35
-34.59
-28.80
-22.16
-15.55
-9.33
-3.47
2.21
7.68
12.55
16.14
17.69
16.74
13.42
8.41
2.81
-2.23
-5.79
-7.39
-6.99
-4.88
-1.58
2.26
5.87
8.46
9.31
8.01
4.69
-0.02
-5.11
-9.56
-12.61
-14.03
-14.05
-13.18
-11.99
-10.83
-9.86
-8.98
-8.05
-6.97
-5.84
-4.92
-4.58
-5.13
-6.63
-8.84
-11.25
-13.29
-14.56
-14.92
-14.49
-13.52
-12.27
-10.85
-9.37
-7.90
-6.62
-5.64
-5.05
-4.77
-4.59
-4.32
-3.83
-3.18
-2.50
-2.00
-1.78
-1.81
-1.96
-2.06
-2.04
-1.86
-1.60
-1.31
-1.02
-0.74
-0.44
-0.17
0.03
0.09
-0.01
-0.23
-0.48
-0.70
-0.84
-0.91
-0.95
-0.96
-0.94
-0.87
-0.78
-0.73
-0.77
-0.90
-1.09
-1.26
-1.35
-1.34
-1.30
-1.29
-1.36
-1.48
-1.60
-1.63
-1.56
-1.36
-1.06
-0.65
-0.11
0.55
1.26
1.94
2.47
2.79
2.93
2.96
2.95
2.95
2.94
2.90
2.85
2.82
2.88
3.04
3.27
3.44
3.51
3.45
3.33
3.23
3.18
3.16
3.14
3.08
2.97
2.87
2.81
2.81
2.81
2.78
2.68
2.51
2.29
2.04
1.77
1.45
1.11
0.76
0.42
0.08
-0.30
-0.74
-1.19
-1.60
-1.93
-2.16
-2.31
-2.46
-2.59
-2.66
-2.57
-2.25
-1.67
-0.94
-0.15
0.59
1.26
1.92
2.65
3.50
4.42
5.27
5.89
6.13
5.94
5.35
4.53
3.61
2.69
1.80
0.92
0.04
-0.78
-1.44
-1.85
-1.99
-1.91
-1.70
-1.41
-1.06
-0.60
-0.04
0.61
1.28
1.88
2.32
2.63
2.85
3.05
3.34
3.74
4.24
4.77
5.22
5.46
5.41
5.12
4.73
4.49
4.62
5.24
6.28
7.52
8.66
9.36
9.40
8.65
7.16
5.04
2.49
-0.35
-3.37
-6.48
-9.56
-12.41
-14.75
-16.28
-16.87
-16.59
-15.75
-14.78
-13.96
-13.43
-13.06
-12.63
-11.96
-11.01
-9.88
-8.70
-7.59
-6.55
-5.56
-4.60
-3.72
-2.99
-2.49
-2.23
-2.16
-2.16
-2.12
-1.99
-1.76
-1.48
-1.19
-0.92
-0.66
-0.39
-0.09
0.23
0.53
0.78
0.89
0.81
0.56
0.18
-0.17
-0.35
-0.28
0.02
0.42
0.76
0.93
0.91
0.79
0.65
0.52
0.38
0.18
-0.08
-0.32
-0.43
-0.32
0.02
0.50
1.00
1.42
1.75
1.98
2.16
2.28
2.34
2.38
2.46
2.66
2.98
3.34
3.61
3.71
3.61
3.43
3.31
3.32
3.45
3.59
3.63
3.52
3.28
2.99
2.71
2.46
2.22
1.99
1.79
1.66
1.61
1.63
1.64
1.57
1.33
0.92
0.40
-0.15
-0.61
-0.94
-1.15
-1.28
-1.47
-1.80
-2.34
-3.06
-3.89
-4.75
-5.53
-6.18
-6.70
-7.13
-7.54
-7.99
-8.54
-9.18
-9.91
-10.68
-11.46
-12.25
-13.06
-13.89
-14.75
-15.60
-16.38
-17.00
-17.43
-17.66
-17.69
-17.62
-17.57
-17.71
-18.14
-18.86
-19.64
-20.01
-19.37
-17.10
-12.77
-6.25
2.27
12.32
23.22
34.16
44.34
52.94
59.37
63.26
64.60
63.71
61.13
57.47
53.25
48.81
44.29
39.70
34.95
29.95
24.64
19.11
13.55
8.25
3.53
-0.38
-3.38
-5.58
-7.19
-8.47
-9.58
-10.58
-11.43
-12.07
-12.54
-12.96
-13.46
-14.10
-14.81
-15.38
-15.62
-15.43
-14.87
-14.12
-13.37
-12.72
-12.16
-11.62
-11.02
-10.34
-9.59
-8.76
-7.86
-6.86
-5.77
-4.63
-3.52
-2.52
-1.63
-0.81
0.01
0.84
1.70
2.55
3.36
4.18
5.00
5.86
6.73
7.54
8.26
8.87
9.40
9.89
10.37
10.87
11.36
11.82
12.19
12.36
12.23
11.68
10.69
9.34
7.86
6.48
5.42
4.73
4.37
4.21
4.16
4.23
4.47
4.95
5.67
6.50
7.23
7.63
7.55
6.92
5.76
4.10
2.04
-0.37
-3.01
-5.72
-8.31
-10.59
-12.45
-13.88
-14.99
-15.86
-16.60
-17.17
-17.49
-17.46
-17.04
-16.29
-15.33
-14.33
-13.37
-12.52
-11.74
-10.97
-10.15
-9.28
-8.38
-7.53
-6.83
-6.30
-5.96
-5.72
-5.50
-5.23
-4.92
-4.61
-4.36
-4.19
-4.07
-3.96
-3.77
-3.51
-3.25
-3.09
-3.09
-3.26
-3.54
-3.83
-4.06
-4.16
-4.17
-4.12
-4.05
-4.00
-3.98
-3.98
-4.00
-4.01
-3.99
-3.93
-3.90
-3.92
-4.07
-4.30
-4.53
-4.62
-4.46
-4.02
-3.39
-2.69
-2.05
-1.52
-1.11
-0.80
-0.57
-0.43
-0.37
-0.35
-0.30
-0.15
0.11
0.45
0.77
0.99
1.10
1.14
1.22
1.41
1.71
2.04
2.28
2.31
2.11
1.71
1.24
0.82
0.53
0.35
0.24
0.14
0.02
-0.09
-0.15
-0.14
-0.08
-0.08
-0.22
-0.55
-1.04
-1.56
-1.98
-2.21
-2.24
-2.10
-1.91
-1.74
-1.64
-1.60
-1.55
-1.40
-1.08
-0.59
0.01
0.60
1.07
1.41
1.66
1.93
2.29
2.71
3.11
3.37
3.42
3.30
3.10
2.93
2.82
2.75
2.68
2.59
2.47
2.37
2.28
2.20
2.08
1.93
1.78
1.68
1.70
1.82
1.98
2.05
1.94
1.61
1.13
0.58
0.04
-0.44
-0.89
-1.34
-1.82
-2.31
-2.76
-3.11
-3.30
-3.30
-3.11
-2.77
-2.33
-1.85
-1.37
-0.94
-0.59
-0.29
-0.02
0.27
0.58
0.92
1.26
1.59
1.88
2.14
2.38
2.62
2.84
3.04
3.19
3.29
3.33
3.33
3.31
3.32
3.37
3.49
3.64
3.77
3.79
3.64
3.31
2.87
2.42
2.10
1.98
2.05
2.23
2.40
2.46
2.34
2.07
1.70
1.35
1.08
0.90
0.78
0.61
0.32
-0.06
-0.49
-0.86
-1.10
-1.25
-1.40
-1.69
-2.19
-2.84
-3.53
-4.12
-4.54
-4.83
-5.04
-5.24
-5.42
-5.53
-5.54
-5.42
-5.22
-4.97
-4.68
-4.31
-3.84
-3.29
-2.77
-2.36
-2.13
-2.02
-1.88
-1.52
-0.79
0.37
1.92
3.73
5.65
7.48
9.04
10.17
10.81
10.95
10.73
10.25
9.64
8.92
8.09
7.13
6.07
4.98
3.95
3.10
2.48
2.10
1.90
1.81
1.73
1.59
1.40
1.17
0.96
0.78
0.61
0.40
0.12
-0.19
-0.50
-0.74
-0.88
-0.95
-1.04
-1.21
-1.48
-1.84
-2.25
-2.66
-3.03
-3.37
-3.65
-3.85
-3.96
-3.92
-3.74
-3.41
-3.01
-2.59
-2.22
-1.90
-1.59
-1.26
-0.84
-0.36
0.13
0.52
0.72
0.69
0.46
0.16
-0.05
-0.03
0.29
0.85
1.47
1.96
2.19
2.16
2.02
1.91
1.94
2.08
2.20
2.19
2.05
1.88
1.80
1.89
2.12
2.36
2.48
2.42
2.19
1.90
1.62
1.39
1.21
1.07
0.99
0.99
1.08
1.20
1.26
1.21
1.00
0.69
0.37
0.10
-0.09
-0.27
-0.51
-0.87
-1.34
-1.85
-2.29
-2.61
-2.77
-2.82
-2.81
-2.80
-2.85
-2.95
-3.11
-3.26
-3.35
-3.31
-3.10
-2.76
-2.34
-1.94
-1.64
-1.47
-1.39
-1.35
-1.29
-1.20
-1.12
-1.06
-1.02
-0.93
-0.74
-0.46
-0.18
-0.01
-0.04
-0.29
-0.66
-1.03
-1.27
-1.37
-1.35
-1.31
-1.36
-1.58
-2.04
-2.73
-3.60
-4.55
-5.49
-6.33
-7.05
-7.70
-8.35
-9.11
-10.00
-11.01
-12.06
-13.03
-13.89
-14.67
-15.51
-16.56
-17.89
-19.41
-20.85
-21.87
-22.15
-21.51
-19.87
-17.29
-13.88
-9.85
-5.46
-1.05
3.03
6.52
9.34
11.57
13.38
14.95
16.38
17.68
18.84
19.82
20.62
21.22
21.59
21.64
21.35
20.72
19.83
18.85
17.97
17.34
17.02
16.93
16.91
16.77
16.40
15.77
14.96
14.06
13.16
12.32
11.54
10.83
10.17
9.57
8.98
8.35
7.65
6.83
5.95
5.12
4.49
4.22
4.41
5.05
6.03
7.12
7.99
8.31
7.83
6.55
4.72
2.86
1.56
1.27
2.13
3.91
6.19
8.40
10.14
11.11
11.21
10.38
8.64
6.11
2.97
-0.41
-3.65
-6.39
-8.46
-9.84
-10.69
-11.24
-11.70
-12.19
-12.74
-13.28
-13.69
-13.88
-13.83
-13.61
-13.35
-13.16
-13.10
-13.13
-13.16
-13.14
-13.04
-12.87
-12.68
-12.47
-12.22
-11.85
-11.30
-10.53
-9.63
-8.71
-7.92
-7.35
-6.95
-6.55
-5.98
-5.12
-4.01
-2.85
-1.86
-1.20
-0.90
-0.90
-1.07
-1.29
-1.44
-1.37
-0.90
0.12
1.69
3.63
5.61
7.35
8.73
9.87
11.07
12.55
14.32
16.12
17.55
18.25
18.10
17.18
15.74
14.04
12.23
10.39
8.54
6.73
5.00
3.43
2.05
0.88
-0.10
-0.93
-1.63
-2.23
-2.73
-3.12
-3.37
-3.42
-3.27
-2.98
-2.67
-2.47
-2.46
-2.60
-2.80
-2.93
-2.93
-2.81
-2.67
-2.63
-2.73
-2.98
-3.33
-3.71
-4.06
-4.35
-4.55
-4.67
-4.73
-4.74
-4.75
-4.79
-4.88
-5.00
-5.10
-5.10
-4.95
-4.63
-4.13
-3.49
-2.78
-2.02
-1.30
-0.65
-0.11
0.29
0.58
0.80
0.98
1.14
1.26
1.31
1.28
1.18
1.08
1.04
1.08
1.20
1.38
1.55
1.70
1.80
1.86
1.86
1.79
1.67
1.49
1.31
1.18
1.12
1.17
1.28
1.39
1.41
1.29
1.02
0.67
0.33
0.07
-0.07
-0.13
-0.18
-0.30
-0.49
-0.76
-1.05
-1.34
-1.65
-2.00
-2.41
-2.87
-3.32
-3.71
-3.96
-4.05
-3.97
-3.77
-3.51
-3.23
-2.96
-2.67
-2.32
-1.89
-1.38
-0.86
-0.42
-0.18
-0.14
-0.26
-0.41
-0.50
-0.48
-0.37
-0.27
-0.26
-0.37
-0.54
-0.73
-0.89
-1.01
-1.12
-1.25
-1.37
-1.44
-1.39
-1.19
-0.89
-0.55
-0.23
0.13
0.66
1.48
2.66
4.12
5.66
7.07
8.19
9.01
9.58
9.97
10.17
10.11
9.71
8.93
7.83
6.50
5.06
3.62
2.23
0.95
-0.18
-1.12
-1.86
-2.42
-2.83
-3.12
-3.32
-3.46
-3.60
-3.78
-4.03
-4.30
-4.53
-4.63
-4.54
-4.29
-3.97
-3.68
-3.47
-3.32
-3.17
-2.93
-2.58
-2.18
-1.78
-1.46
-1.22
-0.99
-0.74
-0.44
-0.14
0.12
0.33
0.54
0.82
1.23
1.76
2.30
2.73
2.94
2.89
2.60
2.15
1.63
1.12
0.64
0.21
-0.16
-0.45
-0.61
-0.59
-0.40
-0.09
0.25
0.52
0.67
0.70
0.69
0.70
0.76
0.83
0.82
0.66
0.29
-0.27
-0.98
-1.76
-2.55
-3.25
-3.83
-4.27
-4.56
-4.68
-4.60
-4.26
-3.68
-2.90
-2.06
-1.30
-0.71
-0.29
0.03
0.34
0.66
0.98
1.23
1.37
1.40
1.35
1.25
1.14
1.02
0.94
0.96
1.15
1.55
2.09
2.60
2.90
2.88
2.55
2.03
1.49
1.04
0.75
0.58
0.53
0.57
0.71
0.91
1.10
1.18
1.07
0.74
0.24
-0.32
-0.86
-1.31
-1.67
-1.96
-2.21
-2.42
-2.57
-2.62
-2.59
-2.53
-2.53
-2.70
-3.06
-3.57
-4.10
-4.47
-4.56
-4.32
-3.80
-3.10
-2.33
-1.57
-0.91
-0.43
-0.18
-0.16
-0.28
-0.41
-0.40
-0.20
0.18
0.61
0.97
1.17
1.23
1.22
1.20
1.23
1.31
1.40
1.49
1.56
1.59
1.58
1.51
1.38
1.18
0.93
0.67
0.45
0.28
0.16
0.01
-0.20
-0.47
-0.76
-0.95
-0.99
-0.89
-0.72
-0.63
-0.70
-0.95
-1.32
-1.69
-1.98
-2.14
-2.16
-2.08
-1.92
-1.69
-1.39
-1.02
-0.60
-0.16
0.27
0.64
0.94
1.17
1.33
1.45
1.54
1.60
1.65
1.70
1.73
1.73
1.69
1.60
1.51
1.43
1.39
1.38
1.34
1.25
1.14
1.05
1.05
1.15
1.28
1.31
1.14
0.77
0.26
-0.24
-0.62
-0.81
-0.84
-0.80
-0.76
-0.80
-0.97
-1.28
-1.68
-2.09
-2.43
-2.63
-2.66
-2.51
-2.25
-1.92
-1.58
-1.26
-0.99
-0.78
-0.61
-0.45
-0.26
-0.02
0.27
0.56
0.79
0.91
0.87
0.70
0.48
0.28
0.21
0.29
0.49
0.71
0.86
0.85
0.68
0.41
0.11
-0.17
-0.46
-0.78
-1.20
-1.68
-2.19
-2.68
-3.12
-3.55
-4.02
-4.58
-5.18
-5.74
-6.16
-6.42
-6.58
-6.76
-7.09
-7.60
-8.27
-8.97
-9.56
-9.93
-9.99
-9.69
-9.08
-8.29
-7.57
-7.21
-7.37
-7.95
-8.56
-8.59
-7.47
-4.90
-1.00
3.72
8.55
12.84
16.16
18.36
19.53
19.87
19.61
18.94
18.02
17.00
15.99
15.12
14.44
13.96
13.63
13.33
12.98
12.50
11.84
11.04
10.15
9.24
8.40
7.64
6.94
6.19
5.29
4.17
2.88
1.59
0.51
-0.23
-0.64
-0.88
-1.13
-1.51
-2.00
-2.48
-2.87
-3.19
-3.53
-3.99
-4.55
-5.09
-5.44
-5.52
-5.41
-5.25
-5.18
-5.23
-5.30
-5.22
-4.90
-4.36
-3.77
-3.35
-3.28
-3.62
-4.27
-5.03
-5.71
-6.20
-6.53
-6.79
-7.13
-7.63
-8.31
-9.11
-9.96
-10.83
-11.72
-12.66
-13.63
-14.58
-15.41
-16.02
-16.36
-16.39
-16.10
-15.50
-14.61
-13.48
-12.17
-10.79
-9.45
-8.24
-7.15
-6.01
-4.49
-2.12
1.54
6.86
13.91
22.51
32.14
42.15
51.78
60.30
67.10
71.68
73.64
72.78
69.19
63.31
55.94
48.10
40.77
34.65
29.98
26.55
23.83
21.18
18.03
13.91
8.52
1.82
-5.88
-13.91
-21.29
-27.04
-30.52
-31.59
-30.70
-28.56
-25.88
-23.11
-20.45
-17.90
-15.51
-13.33
-11.44
-9.83
-8.35
-6.83
-5.13
-3.29
-1.49
-0.06
0.71
0.67
-0.13
-1.44
-2.83
-3.88
-4.27
-3.94
-3.05
-1.98
-1.14
-0.84
-1.14
-1.94
-2.97
-3.95
-4.70
-5.14
-5.32
-5.37
-5.40
-5.48
-5.62
-5.79
-5.99
-6.29
-6.76
-7.48
-8.43
-9.45
-10.30
-10.78
-10.81
-10.47
-9.97
-9.51
-9.17
-8.92
-8.62
-8.11
-7.32
-6.31
-5.23
-4.31
-3.66
-3.36
-3.33
-3.47
-3.67
-3.84
-3.94
-3.97
-3.90
-3.70
-3.34
-2.85
-2.29
-1.78
-1.40
-1.19
-1.13
-1.15
-1.19
-1.25
-1.33
-1.45
-1.61
-1.76
-1.90
-2.02
-2.16
-2.35
-2.60
-2.88
-3.16
-3.43
-3.73
-4.10
-4.58
-5.11
-5.60
-5.89
-5.87
-5.49
-4.80
-3.94
-3.04
-2.22
-1.51
-0.92
-0.39
0.06
0.42
0.64
0.70
0.64
0.52
0.44
0.43
0.47
0.49
0.39
0.15
-0.20
-0.53
-0.74
-0.72
-0.49
-0.14
0.15
0.19
-0.11
-0.67
-1.34
-1.87
-2.11
-2.08
-1.90
-1.79
-1.89
-2.24
-2.72
-3.18
-3.51
-3.68
-3.78
-3.91
-4.15
-4.50
-4.87
-5.17
-5.29
-5.20
-4.91
-4.50
-4.02
-3.51
-2.97
-2.38
-1.72
-1.04
-0.40
0.12
0.50
0.76
1.00
1.29
1.66
2.12
2.58
2.99
3.32
3.54
3.68
3.77
3.79
3.73
3.54
3.24
2.89
2.56
2.29
2.06
1.80
1.44
0.97
0.44
-0.01
-0.31
-0.45
-0.50
-0.54
-0.63
-0.73
-0.76
-0.65
-0.44
-0.26
-0.24
-0.45
-0.89
-1.44
-2.00
-2.47
-2.79
-2.96
-3.00
-2.96
-2.92
-2.99
-3.22
-3.60
-4.06
-4.48
-4.75
-4.82
-4.70
-4.43
-4.03
-3.55
-3.00
-2.40
-1.77
-1.14
-0.51
0.15
0.82
1.48
2.05
2.49
2.79
2.98
3.10
3.17
3.17
3.08
2.89
2.67
2.54
2.58
2.80
3.10
3.34
3.40
3.29
3.08
2.90
2.85
2.93
3.04
3.06
2.91
2.60
2.21
1.83
1.52
1.25
1.00
0.73
0.47
0.26
0.12
0.05
-0.02
-0.11
-0.24
-0.38
-0.51
-0.61
-0.75
-0.98
-1.36
-1.86
-2.42
-2.93
-3.29
-3.43
-3.32
-3.02
-2.64
-2.34
-2.26
-2.42
-2.73
-2.96
-2.92
-2.49
-1.74
-0.85
-0.04
0.53
0.87
1.06
1.27
1.55
1.91
2.26
2.49
2.56
2.49
2.38
2.33
2.40
2.54
2.69
2.75
2.71
2.58
2.43
2.31
2.20
2.08
1.95
1.82
1.76
1.79
1.90
2.02
2.09
2.04
1.91
1.78
1.67
1.59
1.45
1.16
0.70
0.14
-0.40
-0.77
-0.91
-0.85
-0.71
-0.66
-0.78
-1.09
-1.50
-1.89
-2.18
-2.38
-2.53
-2.65
-2.75
-2.71
-2.46
-1.96
-1.28
-0.56
0.07
0.54
0.88
1.14
1.39
1.61
1.77
1.82
1.74
1.56
1.36
1.23
1.22
1.36
1.62
1.94
2.23
2.37
2.33
2.12
1.81
1.49
1.23
1.00
0.78
0.55
0.32
0.17
0.15
0.27
0.42
0.46
0.30
-0.09
-0.63
-1.17
-1.62
-1.90
-2.05
-2.12
-2.18
-2.27
-2.42
-2.64
-2.96
-3.31
-3.62
-3.76
-3.66
-3.27
-2.64
-1.88
-1.06
-0.30
0.34
0.82
1.11
1.25
1.33
1.46
1.69
2.01
2.35
2.62
2.79
2.85
2.86
2.86
2.83
2.74
2.55
2.29
2.03
1.87
1.83
1.90
1.99
2.00
1.87
1.62
1.30
1.00
0.76
0.60
0.48
0.33
0.10
-0.26
-0.72
-1.23
-1.75
-2.22
-2.61
-2.91
-3.15
-3.38
-3.67
-4.04
-4.46
-4.79
-4.89
-4.62
-3.97
-3.04
-2.04
-1.17
-0.56
-0.21
-0.01
0.17
0.45
0.84
1.31
1.81
2.31
2.81
3.33
3.88
4.39
4.77
4.90
4.75
4.39
3.95
3.58
3.35
3.20
3.01
2.67
2.15
1.56
1.09
0.85
0.84
0.94
0.95
0.73
0.27
-0.33
-0.92
-1.36
-1.68
-1.94
-2.25
-2.66
-3.14
-3.57
-3.87
-3.98
-3.93
-3.78
-3.54
-3.22
-2.75
-2.08
-1.24
-0.31
0.59
1.33
1.81
2.02
2.00
1.86
1.74
1.76
1.99
2.41
2.96
3.49
3.85
3.95
3.74
3.30
2.76
2.26
1.91
1.76
1.80
2.00
2.29
2.62
2.89
2.98
2.81
2.33
1.63
0.90
0.37
0.17
0.29
0.55
0.72
0.62
0.22
-0.34
-0.91
-1.40
-1.81
-2.21
-2.67
-3.14
-3.52
-3.74
-3.78
-3.73
-3.72
-3.80
-3.93
-3.96
-3.79
-3.36
-2.72
-1.97
-1.21
-0.49
0.16
0.71
1.13
1.37
1.49
1.53
1.60
1.73
1.93
2.14
2.29
2.33
2.27
2.14
2.01
1.92
1.87
1.85
1.82
1.76
1.66
1.51
1.30
0.98
0.53
-0.04
-0.65
-1.19
-1.57
-1.78
-1.86
-1.92
-2.08
-2.36
-2.75
-3.19
-3.63
-4.06
-4.50
-4.98
-5.47
-5.88
-6.07
-5.93
-5.44
-4.69
-3.85
-3.13
-2.71
-2.59
-2.66
-2.75
-2.63
-2.21
-1.49
-0.57
0.41
1.35
2.22
3.05
3.88
4.71
5.44
5.99
6.28
6.32
6.26
6.23
6.38
6.72
7.16
7.61
7.92
8.05
7.98
7.75
7.41
7.04
6.72
6.52
6.44
6.40
6.26
5.88
5.21
4.36
3.54
2.99
2.85
3.09
3.52
3.91
4.03
3.81
3.32
2.69
2.07
1.54
1.05
0.57
0.05
-0.48
-0.95
-1.28
-1.44
-1.47
-1.49
-1.60
-1.84
-2.15
-2.41
-2.47
-2.27
-1.84
-1.28
-0.73
-0.29
0.04
0.33
0.66
1.08
1.52
1.87
1.98
1.83
1.50
1.15
0.95
0.96
1.13
1.36
1.54
1.64
1.65
1.65
1.61
1.51
1.28
0.89
0.35
-0.27
-0.91
-1.47
-1.92
-2.20
-2.31
-2.30
-2.30
-2.43
-2.76
-3.26
-3.81
-4.28
-4.61
-4.86
-5.19
-5.76
-6.62
-7.69
-8.75
-9.59
-10.12
-10.38
-10.54
-10.76
-11.11
-11.54
-11.93
-12.15
-12.18
-12.10
-12.03
-12.08
-12.29
-12.61
-12.95
-13.26
-13.51
-13.70
-13.79
-13.69
-13.29
-12.44
-10.97
-8.75
-5.65
-1.59
3.43
9.26
15.65
22.20
28.52
34.26
39.16
43.13
46.18
48.43
50.04
51.15
51.85
52.14
51.89
50.94
49.14
46.43
42.87
38.57
33.69
28.35
22.68
16.84
11.05
5.58
0.68
-3.58
-7.25
-10.59
-13.89
-17.35
-20.96
-24.55
-27.83
-30.53
-32.47
-33.56
-33.80
-33.29
-32.19
-30.70
-29.10
-27.60
-26.29
-25.12
-23.94
-22.64
-21.15
-19.56
-17.97
-16.48
-15.10
-13.81
-12.59
-11.45
-10.44
-9.57
-8.78
-7.98
-7.06
-6.04
-5.01
-4.10
-3.37
-2.78
-2.24
-1.68
-1.11
-0.61
-0.33
-0.31
-0.54
-0.89
-1.20
-1.39
-1.47
-1.50
-1.56
-1.68
-1.86
-2.09
-2.36
-2.68
-3.05
-3.43
-3.73
-3.84
-3.64
-3.08
-2.22
-1.17
-0.13
0.72
1.29
1.54
1.56
1.48
1.43
1.49
1.70
2.03
2.40
2.73
2.95
3.00
2.88
2.64
2.36
2.12
1.97
1.89
1.82
1.73
1.59
1.41
1.18
0.89
0.54
0.14
-0.21
-0.44
-0.46
-0.32
-0.13
-0.03
-0.08
-0.24
-0.36
-0.32
-0.11
0.13
0.22
0.01
-0.48
-1.12
-1.73
-2.17
-2.47
-2.73
-3.05
-3.42
-3.71
-3.76
-3.47
-2.87
-2.13
-1.48
-1.05
-0.86
-0.81
-0.73
-0.51
-0.12
0.39
0.93
1.43
1.81
2.04
2.13
2.07
1.91
1.72
1.57
1.52
1.60
1.76
1.95
2.09
2.15
2.08
1.87
1.56
1.22
0.95
0.85
0.94
1.20
1.49
1.67
1.61
1.27
0.73
0.12
-0.43
-0.81
-1.01
-1.05
-0.98
-0.92
-0.95
-1.18
-1.63
-2.26
-2.97
-3.64
-4.12
-4.35
-4.27
-3.88
-3.19
-2.29
-1.31
-0.41
0.27
0.72
0.99
1.20
1.43
1.67
1.84
1.90
1.87
1.85
1.97
2.25
2.62
2.90
2.96
2.75
2.36
1.95
1.66
1.53
1.53
1.57
1.60
1.58
1.52
1.42
1.28
1.09
0.86
0.63
0.40
0.17
-0.07
-0.35
-0.68
-1.02
-1.32
-1.54
-1.67
-1.78
-1.95
-2.23
-2.64
-3.10
-3.54
-3.88
-4.04
-4.00
-3.75
-3.30
-2.67
-1.92
-1.13
-0.38
0.23
0.65
0.90
1.02
1.13
1.31
1.59
1.94
2.28
2.52
2.61
2.56
2.44
2.33
2.28
2.32
2.40
2.46
2.44
2.32
2.14
1.95
1.84
1.85
1.97
2.16
2.32
2.35
2.19
1.84
1.34
0.80
0.32
-0.05
-0.31
-0.53
-0.80
-1.15
-1.55
-1.97
-2.34
-2.67
-2.99
-3.30
-3.54
-3.63
-3.44
-2.94
-2.22
-1.45
-0.80
-0.39
-0.22
-0.18
-0.10
0.13
0.56
1.14
1.76
2.31
2.71
2.94
3.06
3.13
3.19
3.23
3.25
3.22
3.17
3.14
3.17
3.25
3.32
3.30
3.16
2.89
2.56
2.22
1.92
1.69
1.50
1.34
1.21
1.07
0.93
0.75
0.52
0.25
-0.05
-0.35
-0.62
-0.82
-0.92
-0.90
-0.79
-0.66
-0.64
-0.85
-1.34
-2.06
-2.87
-3.60
-4.12
-4.36
-4.33
-4.09
-3.70
-3.21
-2.65
-2.07
-1.50
-0.92
-0.34
0.24
0.81
1.34
1.78
2.10
2.34
2.53
2.70
2.87
3.05
3.23
3.43
3.62
3.76
3.76
3.56
3.14
2.61
2.15
1.94
2.07
2.46
2.95
3.34
3.46
3.30
2.90
2.40
1.91
1.52
1.27
1.14
1.11
1.15
1.20
1.22
1.16
0.95
0.56
0.02
-0.58
-1.13
-1.50
-1.64
-1.58
-1.39
-1.20
-1.08
-1.08
-1.22
-1.48
-1.85
-2.29
-2.72
-3.04
-3.11
-2.84
-2.21
-1.28
-0.23
0.79
1.61
2.20
2.60
2.90
3.20
3.57
4.06
4.64
5.30
5.99
6.66
7.17
7.42
7.35
6.98
6.44
5.89
5.49
5.32
5.36
5.53
5.67
5.62
5.24
4.44
3.24
1.75
0.10
-1.53
-3.04
-4.42
-5.68
-6.86
-7.91
-8.77
-9.33
-9.57
-9.56
-9.46
-9.43
-9.57
-9.84
-10.12
-10.25
-10.16
-9.83
-9.35
-8.78
-8.15
-7.43
-6.53
-5.40
-4.07
-2.61
-1.15
0.20
1.36
2.25
2.88
3.24
3.39
3.40
3.37
3.37
3.44
3.59
3.77
3.95
4.12
4.24
4.28
4.18
3.88
3.37
2.70
1.99
1.40
1.02
0.85
0.81
0.79
0.73
0.60
0.43
0.23
0.00
-0.28
-0.65
-1.05
-1.42
-1.64
-1.69
-1.59
-1.47
-1.43
-1.57
-1.91
-2.38
-2.89
-3.30
-3.56
-3.63
-3.56
-3.41
-3.23
-3.03
-2.79
-2.47
-2.08
-1.64
-1.19
-0.73
-0.26
0.25
0.78
1.28
1.67
1.87
1.88
1.77
1.63
1.53
1.47
1.44
1.42
1.43
1.53
1.74
2.02
2.26
2.35
2.20
1.83
1.34
0.85
0.47
0.28
0.29
0.47
0.75
1.04
1.23
1.23
0.98
0.51
-0.13
-0.86
-1.56
-2.19
-2.71
-3.14
-3.50
-3.84
-4.17
-4.52
-4.87
-5.16
-5.30
-5.22
-4.86
-4.24
-3.45
-2.60
-1.81
-1.10
-0.48
0.12
0.70
1.24
1.66
1.90
1.99
2.03
2.13
2.39
2.78
3.22
3.60
3.87
3.99
4.00
3.88
3.62
3.21
2.68
2.11
1.62
1.31
1.21
1.27
1.37
1.39
1.27
1.03
0.72
0.41
0.15
-0.09
-0.32
-0.55
-0.76
-0.92
-1.04
-1.15
-1.31
-1.53
-1.82
-2.09
-2.28
-2.36
-2.36
-2.33
-2.33
-2.36
-2.41
-2.40
-2.28
-2.01
-1.58
-1.03
-0.40
0.23
0.77
1.18
1.41
1.50
1.52
1.57
1.73
2.01
2.38
2.76
3.05
3.18
3.09
2.82
2.39
1.92
1.48
1.16
0.97
0.88
0.80
0.60
0.17
-0.53
-1.48
-2.57
-3.65
-4.59
-5.36
-5.96
-6.50
-7.09
-7.83
-8.76
-9.87
-11.12
-12.46
-13.82
-15.12
-16.26
-17.15
-17.72
-18.01
-18.10
-18.11
-18.09
-18.01
-17.76
-17.21
-16.26
-14.84
-12.92
-10.43
-7.37
-3.76
0.30
4.62
9.05
13.55
18.22
23.23
28.69
34.50
40.28
45.43
49.36
51.68
52.29
51.42
49.49
46.95
44.22
41.57
39.18
37.13
35.37
33.74
31.95
29.68
26.67
22.87
18.48
13.88
9.54
5.81
2.86
0.65
-1.02
-2.42
-3.80
-5.35
-7.14
-9.10
-11.04
-12.73
-13.98
-14.69
-14.91
-14.79
-14.50
-14.16
-13.86
-13.64
-13.53
-13.54
-13.63
-13.71
-13.66
-13.31
-12.60
-11.54
-10.24
-8.87
-7.62
-6.57
-5.75
-5.10
-4.50
-3.87
-3.15
-2.38
-1.65
-1.07
-0.74
-0.71
-1.03
-1.67
-2.56
-3.58
-4.62
-5.57
-6.43
-7.25
-8.11
-9.05
-9.97
-10.73
-11.16
-11.22
-10.96
-10.57
-10.20
-9.96
-9.81
-9.68
-9.51
-9.29
-9.08
-8.89
-8.76
-8.59
-8.31
-7.85
-7.28
-6.74
-6.42
-6.40
-6.60
-6.80
-6.76
-6.33
-5.52
-4.51
-3.49
-2.61
-1.88
-1.26
-0.68
-0.13
0.35
0.74
1.06
1.35
1.68
2.04
2.38
2.63
2.74
2.74
2.68
2.64
2.64
2.68
2.71
2.71
2.66
2.54
2.38
2.19
2.00
1.79
1.60
1.40
1.20
1.04
0.92
0.88
0.88
0.90
0.85
0.65
0.28
-0.26
-0.88
-1.48
-1.97
-2.30
-2.49
-2.61
-2.77
-3.04
-3.43
-3.86
-4.22
-4.39
-4.30
-3.97
-3.45
-2.80
-2.08
-1.32
-0.58
0.06
0.52
0.77
0.86
0.93
1.09
1.41
1.86
2.31
2.65
2.82
2.84
2.81
2.81
2.85
2.90
2.91
2.85
2.75
2.67
2.67
2.73
2.82
2.83
2.71
2.43
2.06
1.69
1.41
1.27
1.25
1.30
1.36
1.34
1.21
0.96
0.64
0.28
-0.10
-0.47
-0.84
-1.21
-1.57
-1.91
-2.23
-2.53
-2.81
-3.06
-3.22
-3.23
-3.07
-2.76
-2.42
-2.17
-2.08
-2.11
-2.14
-2.00
-1.60
-0.97
-0.22
0.49
1.08
1.53
1.86
2.12
2.32
2.45
2.50
2.51
2.54
2.63
2.79
2.98
3.14
3.22
3.18
3.07
2.94
2.85
2.81
2.80
2.76
2.66
2.47
2.23
1.99
1.83
1.79
1.86
1.98
2.03
1.90
1.56
1.05
0.49
0.04
-0.21
-0.26
-0.20
-0.18
-0.33
-0.71
-1.24
-1.82
-2.32
-2.67
-2.92
-3.16
-3.49
-3.96
-4.49
-4.96
-5.19
-5.06
-4.59
-3.89
-3.15
-2.55
-2.13
-1.86
-1.62
-1.32
-0.93
-0.51
-0.13
0.14
0.30
0.40
0.47
0.57
0.70
0.86
1.06
1.32
1.64
1.99
2.28
2.44
2.42
2.21
1.92
1.67
1.56
1.62
1.79
1.92
1.91
1.68
1.28
0.81
0.40
0.14
0.05
0.08
0.14
0.15
0.07
-0.06
-0.18
-0.22
-0.17
-0.10
-0.13
-0.35
-0.81
-1.45
-2.09
-2.60
-2.87
-2.93
-2.86
-2.74
-2.61
-2.42
-2.10
-1.61
-1.01
-0.38
0.14
0.48
0.66
0.78
0.95
1.28
1.79
2.40
2.96
3.30
3.34
3.10
2.72
2.36
2.15
2.11
2.15
2.16
2.06
1.85
1.62
1.46
1.43
1.50
1.59
1.61
1.53
1.39
1.27
1.26
1.35
1.46
1.47
1.28
0.88
0.39
-0.02
-0.23
-0.26
-0.24
-0.34
-0.68
-1.23
-1.90
-2.56
-3.14
-3.65
-4.11
-4.56
-4.92
-5.10
-4.98
-4.58
-3.95
-3.26
-2.65
-2.17
-1.83
-1.54
-1.20
-0.77
-0.26
0.29
0.79
1.17
1.41
1.53
1.58
1.59
1.56
1.46
1.26
0.98
0.66
0.41
0.30
0.33
0.46
0.58
0.62
0.57
0.49
0.43
0.40
0.34
0.18
-0.12
-0.56
-1.04
-1.47
-1.77
-1.95
-2.07
-2.22
-2.47
-2.88
-3.43
-4.05
-4.65
-5.13
-5.43
-5.54
-5.51
-5.39
-5.20
-4.92
-4.51
-3.97
-3.32
-2.64
-2.04
-1.55
-1.18
-0.86
-0.51
-0.10
0.34
0.76
1.13
1.43
1.73
2.09
2.57
3.14
3.75
4.28
4.68
4.94
5.08
5.17
5.25
5.34
5.39
5.34
5.14
4.82
4.45
4.16
4.02
4.05
4.15
4.20
4.09
3.79
3.38
2.95
2.59
2.32
2.13
1.99
1.85
1.72
1.60
1.46
1.29
1.09
0.83
0.52
0.15
-0.25
-0.64
-0.97
-1.19
-1.33
-1.43
-1.55
-1.73
-1.99
-2.27
-2.52
-2.74
-2.90
-3.02
-3.10
-3.17
-3.22
-3.30
-3.43
-3.63
-3.91
-4.27
-4.73
-5.34
-6.16
-7.21
-8.48
-9.92
-11.50
-13.18
-14.96
-16.83
-18.76
-20.66
-22.44
-24.05
-25.47
-26.75
-27.95
-29.12
-30.30
-31.44
-32.43
-33.11
-33.23
-32.52
-30.76
-27.82
-23.76
-18.75
-13.03
-6.81
-0.20
6.73
13.89
21.15
28.28
34.98
40.91
45.79
49.38
51.56
52.31
51.78
50.22
47.95
45.26
42.41
39.53
36.61
33.63
30.52
27.25
23.84
20.37
16.91
13.51
10.22
7.13
4.42
2.39
1.29
1.30
2.32
4.03
6.00
7.88
9.50
10.89
12.17
13.39
14.49
15.28
15.63
15.52
15.10
14.62
14.27
14.15
14.19
14.28
14.27
14.01
13.38
12.29
10.65
8.42
5.61
2.31
-1.32
-5.08
-8.72
-11.99
-14.75
-16.93
-18.60
-19.89
-20.96
-21.90
-22.68
-23.20
-23.37
-23.15
-22.57
-21.76
-20.87
-20.04
-19.32
-18.67
-18.01
-17.25
-16.37
-15.41
-14.48
-13.62
-12.84
-12.06
-11.21
-10.29
-9.38
-8.57
-7.96
-7.53
-7.21
-6.94
-6.71
-6.55
-6.51
-6.58
-6.67
-6.68
-6.54
-6.29
-6.00
-5.80
-5.72
-5.73
-5.70
-5.54
-5.18
-4.64
-3.99
-3.28
-2.57
-1.88
-1.19
-0.56
-0.00
0.43
0.72
0.89
0.97
1.02
1.05
1.10
1.16
1.24
1.31
1.40
1.53
1.76
2.12
2.64
3.27
3.92
4.45
4.77
4.81
4.58
4.10
3.43
2.61
1.71
0.77
-0.11
-0.89
-1.53
-2.05
-2.48
-2.84
-3.16
-3.40
-3.53
-3.51
-3.30
-2.88
-2.26
-1.52
-0.76
-0.08
0.47
0.90
1.27
1.70
2.21
2.77
3.26
3.59
3.71
3.69
3.65
3.69
3.82
3.95
3.97
3.86
3.69
3.60
3.68
3.92
4.19
4.32
4.22
3.91
3.52
3.17
2.90
2.68
2.43
2.11
1.75
1.38
0.99
0.55
-0.02
-0.69
-1.38
-1.92
-2.17
-2.11
-1.88
-1.66
-1.66
-1.97
-2.50
-3.14
-3.73
-4.27
-4.76
-5.29
-5.79
-6.13
-6.14
-5.72
-4.91
-3.92
-2.99
-2.32
-1.95
-1.79
-1.72
-1.62
-1.46
-1.23
-0.99
-0.72
-0.41
-0.06
0.29
0.60
0.79
0.86
0.82
0.75
0.72
0.80
1.02
1.38
1.82
2.30
2.73
3.09
3.34
3.51
3.62
3.69
3.73
3.76
3.81
3.88
3.99
4.13
4.29
4.43
4.53
4.53
4.42
4.18
3.83
3.40
2.95
2.53
2.21
2.01
1.93
1.89
1.82
1.65
1.33
0.87
0.32
-0.30
-0.97
-1.69
-2.48
-3.31
-4.10
-4.81
-5.40
-5.90
-6.41
-7.01
-7.69
-8.39
-8.98
-9.34
-9.42
-9.28
-9.05
-8.85
-8.78
-8.86
-9.01
-9.15
-9.18
-9.02
-8.62
-7.91
-6.82
-5.27
-3.23
-0.76
2.02
4.97
7.96
10.96
14.06
17.33
20.82
24.47
28.12
31.57
34.60
37.00
38.63
39.31
38.96
37.57
35.31
32.45
29.35
26.30
23.45
20.84
18.43
16.16
13.99
11.85
9.67
7.38
4.94
2.42
-0.07
-2.41
-4.62
-6.81
-9.16
-11.75
-14.49
-17.12
-19.31
-20.79
-21.44
-21.34
-20.66
-19.61
-18.35
-17.02
-15.69
-14.43
-13.25
-12.14
-11.03
-9.87
-8.65
-7.42
-6.28
-5.34
-4.64
-4.13
-3.70
-3.27
-2.78
-2.27
-1.79
-1.39
-1.08
-0.83
-0.63
-0.51
-0.48
-0.53
-0.58
-0.52
-0.26
0.20
0.74
1.15
1.21
0.85
0.13
-0.80
-1.72
-2.47
-2.99
-3.29
-3.42
-3.47
-3.51
-3.59
-3.78
-4.13
-4.68
-5.40
-6.23
-7.05
-7.74
-8.22
-8.46
-8.50
-8.42
-8.27
-8.04
-7.69
-7.18
-6.49
-5.73
-5.04
-4.55
-4.29
-4.17
-4.01
-3.66
-3.08
-2.34
-1.61
-1.05
-0.71
-0.53
-0.40
-0.23
-0.00
0.24
0.41
0.43
0.34
0.19
0.08
0.07
0.18
0.40
0.68
1.00
1.34
1.67
1.95
2.09
2.02
1.70
1.17
0.50
-0.15
-0.67
-0.97
-1.03
-0.89
-0.63
-0.34
-0.11
-0.02
-0.10
-0.35
-0.71
-1.13
-1.56
-1.96
-2.36
-2.75
-3.07
-3.25
-3.15
-2.72
-1.99
-1.09
-0.22
0.44
0.83
0.99
1.09
1.26
1.58
2.03
2.50
2.89
3.13
3.18
3.09
2.92
2.77
2.68
2.70
2.82
2.99
3.16
3.27
3.30
3.21
3.02
2.73
2.37
1.97
1.57
1.24
1.02
0.91
0.90
0.95
0.98
0.99
0.93
0.84
0.70
0.55
0.37
0.17
-0.07
-0.33
-0.58
-0.82
-1.02
-1.18
-1.34
-1.50
-1.66
-1.81
-1.96
-2.11
-2.31
-2.55
-2.81
-3.00
-3.08
-3.01
-2.81
-2.55
-2.27
-2.00
-1.71
-1.34
-0.88
-0.31
0.36
1.08
1.78
2.37
2.76
2.87
2.75
2.50
2.30
2.25
2.35
2.51
2.59
2.50
2.27
2.02
1.84
1.82
1.92
2.08
2.20
2.24
2.20
2.10
2.00
1.91
1.84
1.80
1.79
1.80
1.86
2.00
2.19
2.36
2.42
2.26
1.87
1.30
0.68
0.15
-0.22
-0.39
-0.45
-0.48
-0.57
-0.77
-1.11
-1.56
-2.05
-2.53
-2.96
-3.32
-3.63
-3.92
-4.16
-4.27
-4.18
-3.85
-3.30
-2.64
-1.98
-1.41
-0.93
-0.51
-0.11
0.28
0.66
0.97
1.22
1.39
1.50
1.59
1.68
1.80
1.92
2.02
2.02
1.88
1.63
1.34
1.15
1.17
1.43
1.85
2.29
2.57
2.61
2.41
2.05
1.63
1.24
0.93
0.69
0.50
0.35
0.23
0.12
-0.01
-0.16
-0.38
-0.66
-1.00
-1.36
-1.66
-1.88
-2.01
-2.13
-2.32
-2.63
-3.04
-3.48
-3.82
-3.99
-3.95
-3.73
-3.38
-2.95
-2.50
-2.05
-1.61
-1.20
-0.78
-0.34
0.14
0.65
1.13
1.51
1.76
1.93
2.07
2.28
2.56
2.86
3.06
3.08
2.91
2.62
2.34
2.16
2.08
2.03
1.91
1.70
1.43
1.22
1.14
1.21
1.33
1.38
1.29
1.05
0.73
0.40
0.11
-0.13
-0.34
-0.50
-0.60
-0.67
-0.71
-0.77
-0.88
-1.05
-1.25
-1.45
-1.67
-1.90
-2.18
-2.50
-2.80
-3.01
-3.05
-2.90
-2.61
-2.27
-1.97
-1.72
-1.48
-1.18
-0.74
-0.20
0.34
0.75
0.96
1.01
0.99
1.03
1.19
1.45
1.73
1.97
2.12
2.20
2.26
2.35
2.48
2.63
2.77
2.86
2.88
2.82
2.73
2.63
2.54
2.47
2.36
2.12
1.72
1.18
0.62
0.17
-0.07
-0.09
0.03
0.18
0.29
0.32
0.29
0.19
-0.02
-0.35
-0.82
-1.33
-1.80
-2.13
-2.30
-2.38
-2.46
-2.61
-2.83
-3.08
-3.28
-3.37
-3.37
-3.28
-3.12
-2.89
-2.57
-2.18
-1.73
-1.28
-0.84
-0.42
0.01
0.44
0.83
1.10
1.21
1.20
1.18
1.31
1.65
2.14
2.59
2.81
2.70
2.34
1.92
1.65
1.63
1.79
2.02
2.16
2.16
2.04
1.88
1.78
1.74
1.72
1.65
1.49
1.24
1.00
0.84
0.82
0.89
0.95
0.88
0.64
0.29
-0.07
-0.34
-0.48
-0.51
-0.49
-0.45
-0.42
-0.42
-0.49
-0.69
-1.03
-1.48
-1.98
-2.41
-2.72
-2.94
-3.13
-3.37
-3.66
-3.94
-4.10
-4.04
-3.76
-3.28
-2.73
-2.22
-1.81
-1.54
-1.37
-1.22
-0.98
-0.63
-0.14
0.42
0.98
1.44
1.80
2.06
2.24
2.36
2.43
2.43
2.39
2.33
2.30
2.33
2.40
2.45
2.46
2.38
2.23
2.05
1.89
1.78
1.73
1.72
1.67
1.53
1.26
0.93
0.62
0.45
0.45
0.58
0.74
0.84
0.87
0.87
0.89
0.94
0.94
0.79
0.43
-0.08
-0.60
-0.95
-1.05
-0.92
-0.69
-0.53
-0.51
-0.67
-0.95
-1.29
-1.65
-2.01
-2.36
-2.69
-2.95
-3.11
-3.14
-3.05
-2.84
-2.54
-2.15
-1.71
-1.24
-0.84
-0.56
-0.39
-0.26
-0.09
0.21
0.59
0.96
1.20
1.28
1.25
1.20
1.20
1.23
1.21
1.11
0.96
0.85
0.87
0.99
1.14
1.18
1.07
0.84
0.62
0.47
0.43
0.45
0.47
0.46
0.44
0.43
0.43
0.42
0.34
0.16
-0.10
-0.39
-0.62
-0.77
-0.81
-0.79
-0.76
-0.79
-0.91
-1.16
-1.53
-2.00
-2.51
-2.96
-3.31
-3.52
-3.61
-3.58
-3.43
-3.12
-2.63
-1.95
-1.17
-0.40
0.23
0.69
0.99
1.19
1.31
1.37
1.39
1.40
1.48
1.70
2.05
2.42
2.69
2.77
2.66
2.47
2.28
2.15
2.06
1.92
1.68
1.37
1.06
0.84
0.73
0.71
0.75
0.78
0.82
0.89
0.98
1.06
1.05
0.88
0.56
0.17
-0.20
-0.46
-0.59
-0.67
-0.81
-1.10
-1.57
-2.14
-2.70
-3.13
-3.38
-3.46
-3.43
-3.38
-3.36
-3.38
-3.39
-3.36
-3.27
-3.13
-2.95
-2.73
-2.44
-2.04
-1.55
-1.00
-0.44
0.07
0.51
0.86
1.12
1.29
1.39
1.45
1.50
1.53
1.51
1.39
1.13
0.77
0.39
0.09
-0.06
-0.10
-0.10
-0.17
-0.34
-0.61
-0.88
-1.07
-1.10
-0.96
-0.64
-0.18
0.33
0.83
1.25
1.57
1.80
2.03
2.35
2.78
3.27
3.68
3.91
3.88
3.63
3.27
2.91
2.63
2.44
2.30
2.16
2.01
1.84
1.65
1.44
1.18
0.86
0.50
0.15
-0.14
-0.29
-0.26
-0.07
0.24
0.60
0.91
1.12
1.21
1.20
1.17
1.20
1.34
1.61
1.93
2.20
2.33
2.31
2.19
2.11
2.13
2.30
2.54
2.77
2.90
2.91
2.80
2.62
2.38
2.09
1.76
1.42
1.10
0.85
0.70
0.60
0.51
0.37
0.12
-0.25
-0.72
-1.25
-1.76
-2.23
-2.64
-3.04
-3.47
-3.95
-4.48
-4.98
-5.40
-5.70
-5.94
-6.17
-6.48
-6.89
-7.40
-7.94
-8.47
-8.95
-9.42
-9.94
-10.55
-11.24
-11.95
-12.61
-13.16
-13.61
-14.01
-14.46
-15.02
-15.67
-16.28
-16.68
-16.69
-16.20
-15.21
-13.78
-12.02
-10.03
-7.87
-5.60
-3.28
-0.93
1.43
3.78
6.16
8.58
11.02
13.45
15.76
17.89
19.80
21.50
23.01
24.36
25.53
26.48
27.24
27.89
28.61
29.51
30.64
31.88
32.97
33.64
33.64
32.82
31.15
28.69
25.57
22.00
18.18
14.33
10.57
6.98
3.56
0.31
-2.73
-5.44
-7.69
-9.37
-10.53
-11.28
-11.80
-12.24
-12.66
-13.03
-13.31
-13.46
-13.50
-13.47
-13.40
-13.26
-13.01
-12.61
-12.08
-11.48
-10.90
-10.40
-9.98
-9.61
-9.23
-8.82
-8.39
-7.95
-7.53
-7.13
-6.74
-6.38
-6.05
-5.74
-5.46
-5.22
-5.02
-4.86
-4.72
-4.57
-4.39
-4.18
-3.96
-3.81
-3.81
-3.97
-4.22
-4.44
-4.52
-4.41
-4.16
-3.89
-3.73
-3.75
-3.94
-4.22
-4.47
-4.61
-4.59
-4.42
-4.13
-3.77
-3.37
-2.94
-2.49
-2.01
-1.50
-0.95
-0.40
0.10
0.52
0.83
1.05
1.23
1.42
1.68
1.99
2.29
2.51
2.60
2.53
2.38
2.23
2.18
2.26
2.44
2.66
2.83
2.91
2.89
2.79
2.60
2.33
1.97
1.56
1.16
0.83
0.61
0.46
0.31
0.09
-0.21
-0.52
-0.78
-0.93
-1.00
-1.04
-1.11
-1.24
-1.41
-1.65
-1.94
-2.29
-2.67
-3.02
-3.26
-3.35
-3.31
-3.13
-2.86
-2.50
-2.06
-1.57
-1.09
-0.68
-0.35
-0.10
0.17
0.51
0.92
1.32
1.62
1.76
1.75
1.71
1.76
1.99
2.38
2.86
3.29
3.58
3.71
3.72
3.69
3.70
3.77
3.86
3.93
3.95
3.90
3.82
3.72
3.62
3.51
3.35
3.11
2.76
2.32
1.83
1.35
0.92
0.57
0.30
0.09
-0.07
-0.24
-0.48
-0.83
-1.28
-1.80
-2.32
-2.80
-3.23
-3.66
-4.13
-4.65
-5.16
-5.56
-5.75
-5.66
-5.32
-4.78
-4.10
-3.36
-2.58
-1.81
-1.08
-0.41
0.20
0.79
1.38
1.99
2.58
3.11
3.52
3.77
3.86
3.82
3.71
3.57
3.46
3.38
3.31
3.17
2.92
2.58
2.19
1.88
1.70
1.67
1.68
1.60
1.33
0.86
0.29
-0.29
-0.81
-1.28
-1.70
-2.13
-2.56
-3.02
-3.55
-4.20
-5.01
-5.97
-6.99
-7.99
-8.90
-9.73
-10.50
-11.26
-12.00
-12.70
-13.32
-13.87
-14.36
-14.74
-14.87
-14.53
-13.50
-11.61
-8.90
-5.48
-1.59
2.58
6.86
11.16
15.41
19.53
23.44
27.06
30.31
33.07
35.20
36.56
37.04
36.55
35.12
32.85
29.88
26.35
22.39
18.12
13.67
9.13
4.63
0.23
-3.99
-7.91
-11.43
-14.40
-16.77
-18.57
-19.93
-21.04
-22.07
-23.11
-24.16
-25.18
-26.12
-26.96
-27.72
-28.47
-29.26
-30.14
-31.08
-32.04
-32.97
-33.84
-34.61
-35.29
-35.84
-36.19
-36.21
-35.70
-34.45
-32.27
-29.03
-24.78
-19.66
-13.91
-7.80
-1.55
4.64
10.58
16.09
20.95
24.98
28.11
30.37
31.94
33.02
33.72
34.00
33.65
32.37
29.93
26.28
21.63
16.39
11.09
6.22
2.08
-1.24
-3.81
-5.75
-7.12
-7.90
-8.02
-7.44
-6.21
-4.46
-2.35
-0.01
2.50
5.23
8.27
11.68
15.47
19.52
23.65
27.66
31.38
34.75
37.80
40.58
43.05
45.12
46.61
47.34
47.15
45.91
43.53
40.04
35.57
30.42
25.13
20.39
16.71
14.17
12.43
10.77
8.63
5.65
1.82
-2.63
-7.35
-12.13
-16.99
-21.96
-27.01
-31.69
-35.45
-37.80
-38.37
-36.93
-33.47
-28.27
-21.73
-14.39
-6.50
1.74
9.02
13.72
14.84
12.68
8.57
4.86
1.92
-0.17
-1.48
-2.16
-2.49
-2.51
-2.22
-1.70
-1.15
-0.88
-0.95
-1.37
-2.15
-3.17
-4.20
-5.07
-5.78
-6.48
-7.40
-8.55
-9.83
-11.14
-12.35
-13.33
-13.99
-14.34
-14.43
-14.37
-14.16
-13.81
-13.34
-12.79
-12.11
-11.24
-10.16
-8.89
-7.52
-6.12
-4.79
-3.57
-2.49
-1.51
-0.61
0.21
0.92
1.50
1.94
2.27
2.51
2.70
2.84
2.96
3.06
3.12
3.13
3.09
2.98
2.83
2.64
2.46
2.34
2.33
2.46
2.71
2.97
3.08
2.87
2.29
1.46
0.59
-0.06
-0.36
-0.33
-0.13
0.08
0.17
0.15
0.04
-0.13
-0.36
-0.70
-1.19
-1.80
-2.44
-3.01
-3.41
-3.60
-3.60
-3.47
-3.25
-2.99
-2.66
-2.23
-1.68
-1.02
-0.31
0.36
0.89
1.25
1.44
1.52
1.55
1.60
1.69
1.84
2.05
2.28
2.51
2.66
2.69
2.58
2.38
2.14
1.88
1.60
1.27
0.86
0.37
-0.16
-0.66
-1.04
-1.27
-1.38
-1.41
-1.40
-1.35
-1.25
-1.06
-0.77
-0.43
-0.14
-0.03
-0.18
-0.58
-1.11
-1.59
-1.86
-1.85
-1.68
-1.50
-1.47
-1.63
-1.90
-2.13
-2.23
-2.18
-2.07
-2.01
-2.06
-2.20
-2.38
-2.58
-2.80
-3.08
-3.38
-3.62
-3.66
-3.43
-2.91
-2.22
-1.51
-0.90
-0.43
-0.06
0.30
0.71
1.20
1.73
2.23
2.57
2.66
2.45
2.01
1.44
0.91
0.51
0.28
0.16
0.05
-0.13
-0.43
-0.85
-1.37
-1.96
-2.59
-3.19
-3.67
-3.92
-3.88
-3.54
-3.00
-2.35
-1.71
-1.11
-0.57
-0.03
0.50
1.03
1.49
1.86
2.09
2.21
2.22
2.14
1.95
1.65
1.27
0.89
0.56
0.32
0.15
-0.03
-0.25
-0.51
-0.75
-0.91
-0.99
-1.03
-1.09
-1.18
-1.26
-1.29
-1.27
-1.30
-1.55
-2.13
-3.02
-4.04
-4.96
-5.54
-5.69
-5.44
-4.92
-4.25
-3.56
-2.92
-2.37
-1.93
-1.61
-1.35
-1.07
-0.68
-0.13
0.53
1.19
1.72
2.02
2.08
1.99
1.86
1.81
1.87
2.08
2.42
2.85
3.34
3.82
4.20
4.37
4.27
3.93
3.46
3.03
2.76
2.68
2.75
2.89
3.02
3.12
3.15
3.09
2.90
2.55
2.06
1.49
0.98
0.65
0.61
0.81
1.13
1.37
1.32
0.91
0.20
-0.59
-1.24
-1.57
-1.59
-1.46
-1.39
-1.52
-1.87
-2.33
-2.76
-3.07
-3.25
-3.36
-3.49
-3.67
-3.95
-4.28
-4.65
-4.99
-5.24
-5.33
-5.20
-4.83
-4.25
-3.55
-2.79
-2.07
-1.48
-1.04
-0.72
-0.47
-0.17
0.23
0.75
1.31
1.81
2.16
2.38
2.58
2.88
3.35
3.94
4.50
4.89
5.04
4.99
4.88
4.84
4.90
5.06
5.26
5.45
5.62
5.80
5.96
6.02
5.88
5.46
4.75
3.85
2.91
2.07
1.39
0.86
0.40
-0.09
-0.64
-1.24
-1.82
-2.31
-2.65
-2.82
-2.86
-2.85
-2.91
-3.11
-3.49
-4.02
-4.59
-5.07
-5.35
-5.39
-5.22
-4.89
-4.48
-4.02
-3.54
-3.07
-2.64
-2.26
-1.93
-1.58
-1.15
-0.60
0.03
0.64
1.11
1.37
1.43
1.38
1.31
1.28
1.28
1.26
1.21
1.17
1.22
1.42
1.76
2.14
2.40
2.43
2.21
1.83
1.41
1.08
0.86
0.71
0.55
0.35
0.12
-0.05
-0.10
-0.02
0.10
0.14
0.02
-0.28
-0.67
-1.00
-1.15
-1.13
-1.05
-1.08
-1.33
-1.83
-2.45
-3.04
-3.45
-3.68
-3.77
-3.82
-3.88
-3.90
-3.81
-3.53
-3.10
-2.60
-2.19
-1.91
-1.71
-1.49
-1.10
-0.53
0.14
0.74
1.13
1.24
1.14
0.97
0.88
0.93
1.11
1.35
1.58
1.78
2.00
2.26
2.62
3.05
3.52
3.96
4.34
4.66
4.97
5.32
5.74
6.22
6.69
7.04
7.23
7.30
7.35
7.56
8.05
8.83
9.79
10.74
11.50
11.99
12.25
12.34
12.27
11.92
11.10
9.63
7.48
4.85
2.06
-0.51
-2.58
-4.03
-4.89
-5.24
-5.19
-4.83
-4.29
-3.75
-3.44
-3.52
-4.02
-4.80
-5.60
-6.14
-6.27
-6.01
-5.52
-4.99
-4.55
-4.21
-3.92
-3.60
-3.26
-2.93
-2.70
-2.59
-2.54
-2.45
-2.21
-1.78
-1.22
-0.69
-0.34
-0.26
-0.47
-0.92
-1.50
-2.16
-2.89
-3.72
-4.71
-5.84
-7.07
-8.27
-9.31
-10.03
-10.37
-10.30
-9.85
-9.14
-8.31
-7.54
-6.98
-6.73
-6.77
-6.99
-7.22
-7.30
-7.14
-6.73
-6.18
-5.61
-5.17
-4.95
-5.01
-5.37
-5.95
-6.61
-7.16
-7.38
-7.13
-6.38
-5.22
-3.81
-2.35
-0.99
0.14
1.00
1.56
1.88
2.07
2.26
2.62
3.25
4.15
5.21
6.28
7.17
7.76
8.02
8.01
7.85
7.65
7.52
7.48
7.51
7.52
7.40
7.07
6.47
5.61
4.58
3.53
2.63
2.02
1.69
1.52
1.26
0.66
-0.41
-1.95
-3.81
-5.77
-7.64
-9.28
-10.65
-11.67
-12.33
-12.60
-12.53
-12.25
-11.92
-11.67
-11.56
-11.50
-11.36
-10.98
-10.27
-9.27
-8.10
-6.94
-5.97
-5.27
-4.84
-4.53
-4.14
-3.50
-2.53
-1.28
0.15
1.61
3.04
4.42
5.80
7.17
8.49
9.67
10.64
11.35
11.85
12.18
12.37
12.41
12.32
12.10
11.82
11.53
11.28
11.07
10.89
10.67
10.35
9.90
9.34
8.70
8.05
7.41
6.83
6.30
5.80
5.33
4.89
4.46
4.02
3.55
3.05
2.57
2.13
1.76
1.42
1.07
0.65
0.18
-0.31
-0.77
-1.19
-1.66
-2.27
-3.10
-4.08
-5.06
-5.86
-6.34
-6.45
-6.31
-6.03
-5.72
-5.41
-5.05
-4.54
-3.86
-3.08
-2.31
-1.71
-1.34
-1.16
-1.02
-0.77
-0.33
0.28
0.95
1.56
2.06
2.50
2.95
3.47
4.01
4.45
4.66
4.59
4.33
4.07
4.00
4.23
4.71
5.26
5.69
5.87
5.80
5.55
5.25
4.97
4.73
4.51
4.33
4.18
4.02
3.76
3.28
2.46
1.28
-0.17
-1.74
-3.24
-4.55
-5.65
-6.62
-7.53
-8.48
-9.46
-10.40
-11.18
-11.68
-11.83
-11.65
-11.18
-10.46
-9.50
-8.29
-6.89
-5.40
-3.98
-2.76
-1.76
-0.90
-0.04
0.91
1.99
3.11
4.17
5.12
5.98
6.77
7.52
8.23
8.85
9.35
9.72
10.01
10.31
10.68
11.12
11.56
11.90
12.04
11.99
11.82
11.64
11.55
11.55
11.54
11.37
10.92
10.16
9.11
7.80
6.24
4.40
2.24
-0.24
-2.95
-5.75
-8.49
-11.07
-13.44
-15.58
-17.48
-19.13
-20.52
-21.66
-22.63
-23.55
-24.51
-25.54
-26.54
-27.32
-27.65
-27.37
-26.39
-24.79
-22.76
-20.55
-18.41
-16.52
-14.93
-13.58
-12.34
-11.04
-9.56
-7.86
-5.98
-4.05
-2.19
-0.53
0.85
1.96
2.87
3.71
4.56
5.48
6.41
7.26
7.98
8.56
9.11
9.74
10.48
11.25
11.84
12.08
11.91
11.46
10.96
10.65
10.62
10.80
10.99
11.02
10.79
10.35
9.80
9.24
8.69
8.06
7.31
6.45
5.56
4.76
4.17
3.79
3.48
