1513808632.00
64.000000
-0.00
-0.00
-0.00
-0.00
-0.00
-0.00
-0.00
-0.00
-0.00
-0.00
0.00
0.01
0.01
-0.00
-0.03
-0.05
-0.05
0.00
0.13
0.36
0.66
1.01
1.37
1.72
2.06
2.40
2.79
3.24
3.80
4.42
5.06
5.66
6.20
6.68
7.15
7.68
8.31
9.14
10.09
11.04
11.88
12.56
13.14
13.76
14.65
15.96
17.91
20.32
22.90
25.38
27.59
29.59
31.71
34.37
37.89
42.65
48.29
54.29
60.06
65.25
69.91
74.52
79.78
86.20
94.31
103.61
113.29
122.47
130.57
137.63
144.26
151.79
158.91
167.88
179.30
193.26
208.58
222.33
230.18
227.49
210.88
179.47
135.63
83.22
26.57
-31.09
-88.19
-144.48
-200.07
-254.69
-307.49
-357.01
-402.31
-442.68
-477.52
-505.97
-526.61
-537.69
-537.46
-524.82
-499.56
-462.88
-416.88
-364.19
-307.44
-248.86
-190.17
-132.66
-77.41
-25.36
22.39
64.83
101.14
130.89
154.11
171.21
182.88
189.86
192.86
192.46
189.16
183.46
175.72
166.51
156.47
146.18
136.12
126.60
117.76
109.62
102.14
95.26
88.95
83.18
77.94
73.19
68.91
65.06
61.57
58.44
55.64
53.18
51.09
49.36
47.98
46.94
46.18
45.66
45.33
45.17
45.18
45.36
45.72
46.25
46.98
47.82
48.72
49.60
50.40
51.04
51.40
51.34
50.70
49.77
48.69
47.54
46.38
45.26
44.23
43.34
42.65
42.23
42.17
42.49
43.24
44.45
46.17
48.44
51.29
54.74
58.76
63.35
68.41
73.88
79.68
85.77
92.11
98.71
105.59
112.77
120.28
128.09
136.13
144.29
152.42
160.28
167.62
174.13
179.50
183.45
185.72
186.11
184.53
180.97
175.53
168.38
159.76
149.96
139.28
128.03
116.50
104.94
93.57
82.56
72.03
62.07
52.74
44.05
36.01
28.61
21.82
15.61
9.96
4.82
0.18
-4.02
-7.78
-11.17
-14.18
-16.86
-19.25
-21.35
-23.21
-24.85
-26.30
-27.59
-28.72
-29.73
-30.61
-31.38
-32.04
-32.59
-33.04
-33.38
-33.62
-33.77
-33.84
-33.83
-33.75
-33.60
-33.40
-33.17
-32.93
-32.71
-32.52
-32.33
-32.01
-31.43
-30.48
-29.00
-26.88
-24.08
-20.66
-16.76
-12.60
-8.42
-4.50
-1.12
1.47
3.05
3.46
2.61
0.54
-2.58
-6.41
-10.60
-14.73
-18.51
-21.83
-24.76
-27.51
-30.34
-33.43
-36.77
-40.21
-43.53
-46.58
-49.51
-52.66
-56.45
-61.34
-67.52
-74.79
-82.73
-90.75
-98.47
-105.93
-113.54
-122.01
-131.95
-143.60
-156.66
-170.48
-184.29
-197.60
-210.39
-223.06
-236.29
-250.82
-267.44
-286.83
-309.26
-334.02
-358.94
-380.43
-394.31
-397.24
-387.96
-367.86
-340.38
-309.56
-278.74
-249.81
-223.51
-200.00
-179.54
-162.41
-148.50
-136.88
-125.97
-114.06
-100.24
-84.80
-69.10
-54.97
-43.88
-36.26
-31.34
-27.28
-21.86
-13.34
-1.25
13.28
27.81
39.63
46.77
48.87
47.20
43.98
41.33
40.42
41.22
42.74
43.62
42.72
39.51
34.25
27.91
21.91
17.61
15.73
16.04
17.49
18.79
19.28
19.47
20.92
25.38
33.62
44.74
56.31
65.37
69.74
69.03
64.63
58.96
54.51
52.89
54.51
58.69
63.90
68.17
69.41
65.93
57.03
43.43
27.07
10.47
-4.27
-16.32
-26.37
-36.25
-47.63
-60.98
-75.11
-87.63
-96.22
-99.86
-99.56
-97.94
-97.65
-99.62
-101.78
-99.70
-88.72
-66.50
-34.59
2.10
37.62
67.47
90.00
105.88
116.39
121.92
121.60
114.28
99.88
80.33
59.22
40.35
26.32
17.80
13.82
12.51
12.07
11.42
10.20
8.83
7.95
7.97
8.81
9.81
10.03
8.73
5.78
1.81
-2.05
-4.76
-5.83
-5.52
-4.67
-4.35
-5.32
-7.70
-10.93
-13.91
-15.51
-15.07
-12.76
-9.58
-6.95
-6.09
-7.43
-10.39
-13.75
-16.19
-17.01
-16.43
-15.43
-15.26
-16.82
-20.29
-25.14
-30.22
-34.03
-35.05
-32.19
-25.21
-15.05
-3.76
5.76
10.56
8.47
-0.87
-15.83
-33.14
-49.14
-61.20
-68.68
-73.05
-76.83
-82.01
-88.54
-94.13
-95.25
-88.91
-73.93
-51.19
-22.83
8.76
41.55
73.54
102.13
124.22
136.91
138.90
131.43
118.01
103.17
90.71
82.41
77.90
75.66
74.05
72.05
69.46
66.40
63.03
59.30
55.07
50.31
45.22
40.37
36.27
33.37
31.78
31.41
31.62
31.64
30.65
28.18
24.33
19.76
15.53
12.56
11.39
11.75
12.94
14.05
14.48
14.12
13.27
12.48
12.02
11.97
12.05
11.93
11.40
10.44
9.26
8.05
7.10
6.47
6.21
6.26
6.61
7.33
8.34
9.45
9.96
9.08
6.08
0.94
-5.48
-11.59
-15.67
-16.75
-14.80
-10.91
-6.44
-2.53
0.43
2.73
4.81
7.00
9.12
10.82
11.75
11.87
11.44
10.82
10.40
10.11
9.76
8.93
7.52
5.72
3.97
2.52
0.89
-1.97
-7.40
-15.86
-26.25
-36.16
-42.77
-44.38
-41.29
-35.72
-30.59
-28.40
-30.32
-36.27
-45.22
-55.08
-62.63
-63.49
-53.25
-29.01
8.62
54.95
102.28
142.26
168.64
178.69
173.13
154.75
127.34
94.89
61.49
31.35
8.24
-5.33
-8.99
-4.65
4.16
13.09
17.99
15.49
3.66
-17.35
-45.00
-74.41
-99.60
-115.48
-119.88
-114.68
-105.21
-98.20
-99.04
-109.40
-125.85
-140.69
-144.52
-129.90
-94.50
-42.49
16.84
72.31
114.70
139.35
145.85
135.96
111.73
75.29
30.51
-15.38
-51.97
-68.69
-59.15
-24.61
25.90
78.91
121.23
144.47
146.70
131.62
105.94
76.62
48.87
25.60
7.84
-4.70
-12.84
-17.29
-18.59
-17.39
-14.57
-11.37
-9.13
-8.54
-9.61
-11.60
-13.31
-13.75
-12.59
-10.28
-7.85
-6.37
-6.39
-7.78
-9.69
-11.08
-11.20
-9.94
-7.82
-5.68
-4.23
-3.73
-3.98
-4.41
-4.43
-3.75
-2.44
-0.91
0.32
0.82
0.52
-0.39
-1.50
-2.34
-2.62
-2.27
-1.36
-0.12
1.28
2.62
3.68
4.24
4.14
3.44
2.41
1.52
1.24
1.75
2.84
3.96
4.47
3.97
2.56
0.78
-0.61
-1.08
-0.51
0.69
1.81
2.24
1.75
0.44
-1.27
-2.95
-4.29
-5.03
-4.93
-3.73
-1.48
1.18
2.89
2.12
-1.93
-8.61
-15.56
-19.65
-18.45
-11.64
-1.34
8.65
14.61
14.64
9.21
0.78
-7.78
-14.29
-17.69
-17.67
-14.12
-7.17
2.31
12.14
19.04
19.66
12.26
-2.00
-19.33
-34.85
-44.95
-48.75
-48.21
-46.60
-46.89
-50.15
-55.74
-62.27
-68.75
-75.15
-81.87
-89.20
-96.22
-101.30
-102.32
-97.97
-89.18
-79.07
-72.20
-72.63
-82.25
-99.86
-122.36
-145.58
-166.17
-182.80
-195.95
-206.51
-214.22
-217.23
-212.91
-200.86
-183.16
-164.42
-150.49
-146.41
-154.75
-174.48
-201.70
-230.93
-258.09
-279.75
-292.35
-292.25
-276.52
-244.59
-199.22
-146.65
-85.63
-18.73
51.11
122.33
194.59
266.96
336.44
398.15
446.89
479.76
497.38
501.88
495.55
479.78
454.89
420.76
377.93
328.43
275.20
222.56
175.48
138.43
113.80
100.95
96.64
96.41
96.43
94.82
91.21
86.27
80.88
75.42
69.54
62.68
54.72
46.20
38.18
31.50
26.42
22.77
20.06
17.68
15.11
12.09
8.61
4.95
1.54
-1.27
-3.13
-3.88
-3.74
-3.15
-2.76
-3.11
-4.48
-6.62
-8.99
-10.71
-11.04
-9.60
-6.48
-2.25
2.04
5.05
5.34
1.71
-6.01
-16.45
-26.71
-32.82
-31.17
-20.63
-3.89
12.76
21.35
15.83
-5.38
-38.43
-75.16
-105.87
-122.57
-120.92
-100.55
-64.21
-16.09
38.20
91.79
137.25
168.15
180.66
175.36
156.93
129.00
96.01
60.53
22.19
-20.64
-68.48
-119.29
-169.49
-214.08
-248.08
-267.00
-268.22
-249.78
-212.00
-157.98
-93.82
-26.51
37.20
92.39
137.39
172.92
200.12
219.95
231.80
229.25
207.08
162.82
98.60
21.41
-56.53
-128.61
-191.27
-242.57
-281.44
-305.06
-311.08
-298.63
-268.52
-223.39
-167.38
-103.85
-35.03
37.66
114.24
193.18
270.45
339.85
394.41
428.33
439.94
432.02
403.80
359.19
304.36
246.25
191.10
143.29
104.58
75.00
53.29
37.40
26.04
18.07
12.40
8.04
4.43
1.30
-1.10
-2.36
-2.22
-0.25
3.79
9.65
16.62
23.89
30.54
35.80
39.10
41.20
41.42
39.35
34.85
27.93
18.87
8.11
-3.70
-15.70
-26.97
-36.96
-44.97
-50.72
-54.39
-56.51
-57.82
-58.95
-60.14
-61.22
-62.26
-63.03
-63.61
-64.58
-66.81
-71.30
-79.00
-90.88
-104.87
-120.51
-137.51
-155.52
-173.51
-189.47
-200.84
-204.99
-200.11
-185.50
-162.22
-131.79
-96.29
-58.24
-20.78
12.37
37.60
52.19
55.40
48.64
35.96
22.84
14.50
14.07
21.44
33.35
44.87
51.50
50.78
43.31
31.87
19.79
9.37
1.29
-4.93
-9.96
-13.84
-16.09
-16.21
-14.21
-10.88
-7.48
-5.25
-4.80
-6.05
-8.24
-10.36
-11.66
-11.73
-10.60
-8.58
-5.99
-3.07
-0.01
3.03
5.77
7.90
9.12
9.44
9.08
8.48
8.24
8.78
10.25
12.17
13.31
11.92
6.34
-4.10
-18.38
-33.71
-46.33
-52.83
-51.50
-42.92
-29.52
-14.52
-0.58
10.84
19.54
25.94
30.48
33.23
34.11
33.15
30.76
27.77
25.08
23.32
22.55
22.32
21.90
20.69
18.61
16.09
13.83
12.27
11.27
10.11
7.84
3.84
-1.93
-8.90
-16.28
-23.29
-29.46
-34.45
-37.95
-39.48
-38.59
-35.07
-29.15
-21.54
-13.21
-5.08
2.20
8.23
12.83
15.95
17.66
18.09
17.46
16.00
14.00
11.74
9.55
7.70
6.36
5.46
4.77
3.92
2.67
1.09
-0.47
-1.50
-1.62
-0.82
0.49
1.64
2.02
1.37
-0.12
-1.88
-3.29
-3.95
-3.86
-3.35
-2.90
-2.90
-3.42
-4.23
-4.95
-5.19
-4.68
-3.24
-0.79
2.64
6.93
11.74
16.55
20.85
24.30
27.02
29.59
32.81
37.36
43.41
50.43
57.29
62.54
64.76
62.95
56.85
46.93
34.41
20.99
8.54
-1.29
-7.48
-9.83
-9.08
-6.56
-3.74
-1.82
-1.39
-2.43
-4.43
-6.67
-8.36
-8.73
-7.29
-4.39
-1.69
-2.22
-9.29
-24.78
-47.55
-73.09
-94.97
-107.38
-107.53
-96.62
-78.82
-58.98
-40.60
-24.94
-11.69
-0.32
8.94
15.19
17.68
16.70
13.70
10.69
9.28
9.96
12.00
14.06
14.94
14.22
12.43
10.56
9.54
9.78
11.10
12.84
14.28
14.84
14.29
12.66
10.24
7.54
5.17
3.68
3.34
4.06
5.37
6.65
7.33
7.13
6.14
4.70
3.28
2.17
1.55
1.27
1.09
0.78
0.25
-0.35
-0.82
-0.96
-0.78
-0.40
-0.06
0.07
-0.02
-0.20
-0.36
-0.48
-0.61
-0.83
-1.16
-1.47
-1.57
-1.30
-0.65
0.28
1.28
2.12
2.62
2.65
2.19
1.33
0.31
-0.55
-0.95
-0.69
0.21
1.47
2.62
3.24
3.07
2.18
0.90
-0.27
-0.90
-0.84
-0.24
0.53
1.02
1.00
0.50
-0.24
-0.88
-1.22
-1.24
-1.08
-0.93
-0.94
-1.05
-1.16
-1.14
-0.92
-0.53
-0.13
0.13
0.12
-0.14
-0.51
-0.82
-0.92
-0.77
-0.45
-0.14
0.01
-0.08
-0.33
-0.57
-0.65
-0.48
-0.08
0.46
1.06
1.66
2.23
2.68
2.91
2.76
2.15
1.14
-0.05
-1.14
-1.82
-1.98
-1.67
-1.06
-0.37
0.21
0.60
0.75
0.70
0.49
0.20
-0.09
-0.27
-0.30
-0.17
0.07
0.34
0.54
0.67
0.72
0.75
0.76
0.68
0.38
-0.21
-1.07
-2.00
-2.67
-2.85
-2.47
-1.73
-1.00
-0.69
-1.08
-2.17
-3.76
-5.52
-7.07
-8.22
-8.89
-9.29
-9.77
-10.67
-12.23
-14.34
-16.59
-18.38
-19.24
-19.00
-17.98
-16.88
-16.46
-17.25
-19.22
-21.86
-24.26
-25.68
-25.69
-24.39
-22.29
-19.84
-17.25
-14.35
-10.91
-6.96
-2.98
0.55
3.68
7.15
12.24
19.82
29.58
39.84
48.41
53.65
55.26
54.15
51.26
46.50
38.45
25.39
6.84
-15.03
-36.01
-51.72
-59.75
-60.88
-58.39
-56.53
-58.24
-63.89
-70.67
-74.00
-69.25
-53.62
-27.28
6.63
42.68
74.92
98.98
114.15
122.93
129.75
138.40
150.30
164.38
178.08
189.03
192.43
185.51
167.52
139.97
105.31
65.59
22.29
-23.01
-68.07
-109.95
-145.14
-172.56
-191.75
-202.89
-206.04
-200.18
-184.00
-157.17
-121.97
-82.94
-46.09
-16.20
4.41
15.99
21.37
24.37
28.26
35.12
46.79
64.84
90.50
122.90
157.63
187.16
202.04
193.61
157.26
94.87
14.55
-71.31
-150.18
-212.13
-250.23
-260.65
-242.09
-195.84
-126.20
-41.28
47.53
126.34
179.66
197.07
177.59
129.38
65.08
-3.46
-68.67
-126.59
-176.07
-217.30
-250.39
-275.72
-294.38
-307.96
-317.79
-326.63
-332.95
-333.99
-327.05
-310.25
-283.46
-248.56
-208.73
-166.99
-125.51
-83.93
-41.30
3.15
49.51
96.99
144.10
187.29
224.54
255.50
282.83
310.06
340.85
378.16
423.15
473.99
525.61
570.88
594.35
584.80
538.02
459.48
362.90
264.68
177.49
106.78
51.75
8.47
-25.39
-50.55
-66.90
-75.18
-77.79
-78.31
-80.05
-84.66
-91.97
-99.46
-104.30
-104.55
-100.04
-92.15
-83.26
-75.73
-70.98
-69.20
-69.09
-68.58
-65.66
-59.24
-49.21
-36.54
-22.82
-9.73
1.33
9.63
15.36
19.97
23.61
26.03
26.46
23.70
16.57
4.51
-12.44
-33.37
-57.04
-81.92
-105.50
-124.06
-133.12
-128.88
-108.70
-76.28
-39.24
-6.47
15.07
22.94
19.31
9.01
-3.02
-13.78
-22.77
-30.42
-36.96
-41.86
-44.09
-43.13
-39.62
-35.11
-31.49
-30.37
-31.99
-35.39
-38.97
-41.34
-41.90
-40.99
-39.66
-39.20
-40.70
-44.46
-50.07
-56.68
-63.50
-70.12
-76.43
-82.48
-88.16
-93.09
-96.36
-97.37
-94.67
-87.36
-75.17
-58.49
-38.29
-15.90
7.16
29.36
49.34
66.10
78.92
87.58
92.40
94.17
93.82
92.25
90.05
87.40
84.27
80.43
75.86
70.93
66.29
62.62
60.34
59.35
59.14
58.92
57.84
55.36
51.46
46.64
41.71
37.70
35.51
35.47
36.98
37.92
35.11
25.18
5.88
-22.90
-58.65
-96.73
-131.58
-157.47
-170.40
-169.12
-154.78
-130.19
-99.08
-65.38
-32.79
-4.39
17.89
33.35
42.56
47.23
49.47
50.84
52.10
53.00
52.76
50.85
47.36
43.33
40.48
40.75
45.14
53.68
65.29
77.95
88.98
95.98
96.21
88.90
76.22
62.90
54.50
54.75
62.78
74.08
81.36
78.19
62.34
36.94
8.43
-16.51
-33.98
-43.93
-48.91
-52.22
-55.95
-60.41
-64.50
-67.39
-69.12
-70.63
-73.13
-76.75
-80.94
-85.16
-90.45
-98.28
-110.87
-129.44
-152.42
-175.09
-191.00
-194.44
-181.57
-154.11
-116.51
-74.38
-32.24
7.17
42.50
72.97
97.83
116.31
127.66
132.05
131.26
127.89
125.78
128.48
137.46
150.51
162.33
165.71
156.36
133.81
101.34
64.17
26.80
-8.49
-41.31
-71.56
-97.72
-116.36
-123.83
-118.24
-100.60
-74.79
-46.39
-20.87
-1.80
9.85
15.71
18.26
19.36
19.04
15.63
6.65
-9.28
-31.02
-54.88
-75.94
-90.11
-95.90
-94.79
-89.98
-84.87
-81.44
-79.58
-77.19
-72.18
-63.01
-49.34
-32.01
-12.45
7.56
26.31
42.46
55.04
63.56
68.31
70.29
70.83
71.66
74.14
78.77
85.35
92.81
99.33
102.75
101.83
95.97
87.02
78.85
75.77
80.10
90.40
101.08
105.72
99.32
80.86
53.88
24.27
-2.56
-24.04
-40.64
-54.44
-66.98
-78.53
-88.08
-94.17
-96.22
-94.30
-89.38
-83.32
-77.80
-74.16
-73.51
-75.98
-80.40
-84.70
-86.56
-84.69
-79.19
-71.47
-63.44
-56.80
-52.28
-49.61
-47.97
-46.02
-42.82
-37.58
-29.68
-18.87
-5.52
9.45
24.93
39.56
52.26
62.08
68.36
70.83
69.77
66.11
61.26
56.90
53.97
52.77
52.84
53.20
52.83
51.09
48.06
44.44
41.30
39.60
39.88
41.98
45.14
48.27
50.63
52.07
53.05
54.35
56.51
59.57
62.62
64.19
62.26
55.60
44.17
29.23
13.01
-2.36
-15.09
-24.53
-31.13
-36.06
-40.49
-45.62
-52.55
-61.94
-73.37
-84.57
-91.66
-89.69
-76.51
-53.47
-25.62
0.01
17.46
24.12
21.53
13.81
5.28
-1.60
-6.57
-10.59
-14.38
-17.63
-19.32
-18.61
-15.68
-12.00
-9.17
-8.59
-10.59
-14.39
-18.52
-21.60
-22.91
-22.66
-21.86
-21.75
-23.22
-26.41
-30.77
-35.34
-39.31
-42.34
-44.81
-47.56
-51.54
-57.34
-64.94
-73.79
-82.95
-91.46
-98.53
-103.62
-106.32
-106.38
-102.98
-95.17
-82.21
-63.93
-41.04
-15.17
11.44
36.47
58.11
75.56
88.87
98.80
106.23
111.65
115.02
115.95
114.15
109.73
103.53
96.79
90.87
86.99
86.06
88.66
94.77
103.22
111.26
114.82
109.69
93.34
66.51
33.50
0.78
-25.51
-41.88
-48.45
-48.08
-44.47
-40.26
-36.38
-32.70
-29.28
-27.13
-27.83
-32.45
-40.45
-49.63
-57.02
-60.22
-58.50
-52.95
-45.68
-38.69
-33.15
-29.15
-26.22
-23.85
-21.82
-20.08
-18.54
-16.81
-14.26
-10.30
-4.79
1.98
9.33
16.29
21.80
24.95
25.11
22.15
16.43
8.71
-0.06
-9.07
-17.72
-25.61
-32.30
-37.12
-39.22
-37.78
-32.41
-23.48
-12.26
-0.66
9.32
16.30
20.05
21.81
24.01
29.44
40.01
55.59
73.61
89.80
99.91
101.59
95.41
84.47
72.82
63.52
57.32
52.86
47.97
41.27
33.10
25.23
19.61
17.03
16.61
16.42
14.77
11.52
8.23
7.27
10.31
17.10
25.42
32.23
35.22
33.88
29.50
24.22
19.84
17.11
15.79
15.24
14.71
13.40
10.21
3.73
-7.30
-23.11
-42.34
-61.95
-78.05
-87.08
-86.96
-77.71
-61.39
-41.45
-21.85
-6.08
3.52
6.19
2.75
-4.67
-13.44
-21.24
-26.96
-31.10
-35.45
-42.35
-53.61
-69.47
-88.22
-106.60
-120.93
-128.25
-127.23
-118.12
-102.24
-81.24
-56.43
-28.75
1.08
32.12
63.18
92.72
118.92
139.57
151.80
152.42
138.85
110.44
69.79
22.81
-22.63
-59.11
-82.05
-91.15
-89.62
-82.22
-73.15
-64.65
-57.08
-49.95
-43.13
-37.41
-34.61
-36.75
-45.25
-60.52
-81.95
-108.26
-137.75
-168.47
-195.41
-212.99
-215.85
-200.83
-168.37
-122.46
-69.24
-15.08
34.81
77.02
109.57
131.93
144.71
149.47
148.30
143.53
137.14
130.51
124.33
118.51
112.64
106.35
99.47
92.26
85.25
79.00
73.90
69.99
66.94
64.29
61.63
58.74
55.69
52.86
50.70
49.63
49.78
51.05
53.22
55.90
58.62
60.92
62.31
62.16
60.48
56.42
49.55
39.83
27.69
13.84
-0.70
-14.94
-28.23
-39.97
-49.91
-57.78
-63.32
-66.33
-66.68
-64.64
-60.84
-56.32
-52.30
-49.92
-49.69
-51.50
-54.61
-57.95
-60.70
-62.36
-63.02
-63.14
-63.39
-64.45
-66.89
-71.08
-76.74
-82.57
-86.23
-84.94
-76.63
-61.05
-40.21
-17.58
3.06
19.17
30.14
36.94
41.11
43.59
44.65
44.07
41.71
38.03
34.00
30.75
28.92
28.52
28.93
29.45
29.46
28.69
27.18
25.17
23.01
21.00
19.26
17.73
16.22
14.51
12.53
10.40
8.41
6.83
5.76
5.04
4.43
3.60
2.34
0.64
-1.26
-2.86
-3.67
-3.30
-1.80
0.34
2.37
3.48
3.24
1.79
-0.27
-2.11
-3.09
-3.02
-2.18
-1.09
-0.28
0.01
-0.20
-0.59
-0.84
-0.70
-0.23
0.32
0.62
0.46
-0.10
-0.80
-1.28
-1.36
-1.04
-0.59
-0.29
-0.26
-0.44
-0.59
-0.47
-0.06
0.51
1.00
1.21
1.12
0.94
0.90
1.14
1.58
1.93
1.89
1.28
0.26
-0.88
-1.74
-2.12
-2.01
-1.62
-1.12
-0.57
0.10
0.92
1.76
2.35
2.38
1.74
0.58
-0.69
-1.63
-1.98
-1.73
-1.08
-0.32
0.27
0.56
0.47
0.11
-0.39
-0.86
-1.15
-1.17
-0.88
-0.36
0.32
0.99
1.48
1.63
1.34
0.70
-0.11
-0.80
-1.15
-1.08
-0.70
-0.24
0.13
0.29
0.25
0.07
-0.19
-0.48
-0.75
-0.85
-0.66
-0.12
0.65
1.41
1.88
1.93
1.66
1.29
1.05
1.04
1.10
1.02
0.65
-0.01
-0.75
-1.28
-1.47
-1.31
-0.93
-0.54
-0.24
-0.07
0.04
0.10
0.14
0.12
-0.03
-0.32
-0.70
-1.08
-1.32
-1.32
-1.07
-0.66
-0.27
-0.00
0.12
0.18
0.27
0.45
0.67
0.86
0.91
0.79
0.50
0.07
-0.49
-1.11
-1.70
-2.04
-1.96
-1.38
-0.45
0.52
1.20
1.41
1.21
0.80
0.44
0.25
0.18
0.13
0.01
-0.13
-0.18
-0.01
0.33
0.70
0.88
0.75
0.37
-0.06
-0.26
-0.10
0.37
0.91
1.27
1.30
1.03
0.71
0.54
0.67
1.01
1.35
1.41
1.07
0.40
-0.37
-0.95
-1.19
-1.12
-0.95
-0.88
-1.03
-1.33
-1.57
-1.52
-1.08
-0.32
0.54
1.22
1.56
1.54
1.29
1.01
0.81
0.69
0.54
0.24
-0.18
-0.64
-0.94
-0.96
-0.74
-0.40
-0.12
0.02
0.06
0.08
0.09
0.06
-0.10
-0.43
-0.86
-1.22
-1.33
-1.13
-0.71
-0.27
0.02
0.10
0.09
0.16
0.39
0.69
0.83
0.59
-0.12
-1.08
-2.00
-2.51
-2.48
-2.01
-1.36
-0.85
-0.63
-0.73
-0.98
-1.26
-1.42
-1.42
-1.27
-0.99
-0.62
-0.17
0.36
0.93
1.46
1.85
1.98
1.83
1.47
1.07
0.87
0.96
1.29
1.63
1.75
1.53
1.08
0.63
0.42
0.52
0.78
0.90
0.67
0.05
-0.74
-1.42
-1.71
-1.58
-1.15
-0.60
-0.13
0.12
0.17
0.03
-0.21
-0.49
-0.75
-0.94
-1.06
-1.09
-1.04
-0.90
-0.61
-0.21
0.25
0.65
0.89
0.92
0.80
0.69
0.75
1.07
1.66
2.33
2.88
3.08
2.84
2.16
1.16
0.06
-0.91
-1.61
-1.98
-2.12
-2.14
-2.13
-2.08
-1.94
-1.61
-1.08
-0.44
0.19
0.72
1.11
1.38
1.59
1.72
1.70
1.45
1.00
0.47
0.03
-0.20
-0.27
-0.31
-0.51
-0.87
-1.28
-1.45
-1.21
-0.54
0.32
1.00
1.17
0.71
-0.22
-1.35
-2.38
-3.17
-3.71
-4.05
-4.21
-4.06
-3.46
-2.34
-0.85
0.66
1.74
2.15
1.93
1.40
0.95
0.74
0.69
0.48
-0.09
-0.99
-1.85
-2.20
-1.73
-0.50
1.06
2.43
3.22
3.38
3.13
2.80
2.58
2.41
2.10
1.42
0.36
-0.84
-1.76
-2.01
-1.46
-0.33
0.92
1.80
1.98
1.44
0.48
-0.48
-1.04
-1.03
-0.46
0.40
1.31
1.98
2.26
2.07
1.53
0.77
-0.02
-0.63
-0.95
-0.91
-0.62
-0.23
0.05
0.07
-0.21
-0.66
-1.06
-1.17
-0.82
-0.06
0.89
1.69
2.00
1.66
0.82
-0.07
-0.45
0.06
1.37
2.86
3.69
3.15
1.14
-1.71
-4.20
-5.22
-4.22
-1.53
1.73
4.18
4.73
3.04
-0.30
-3.96
-6.40
-6.41
-3.60
1.19
6.15
8.96
7.54
1.05
-9.50
-21.01
-29.11
-29.63
-20.65
-3.99
14.47
26.00
22.40
-0.05
-37.95
-80.87
-114.67
-126.52
-109.67
-66.16
-6.15
55.34
103.08
125.60
117.90
82.59
29.26
-27.47
-71.61
-90.31
-77.86
-37.81
18.20
74.66
117.64
138.93
137.59
118.45
88.93
56.21
25.43
-0.39
-19.36
-30.27
-32.88
-28.42
-19.81
-10.94
-5.48
-5.35
-10.04
-16.88
-22.39
-23.98
-20.97
-14.81
-8.27
-3.99
-3.41
-6.18
-10.49
-14.13
-15.44
-13.96
-10.44
-6.41
-3.36
-2.20
-2.94
-4.81
-6.70
-7.73
-7.50
-6.25
-4.58
-3.14
-2.37
-2.33
-2.78
-3.30
-3.51
-3.16
-2.26
-1.02
0.20
1.04
1.31
1.05
0.55
0.15
0.09
0.41
0.89
1.28
1.43
1.39
1.38
1.53
1.82
2.05
1.98
1.49
0.68
-0.18
-0.84
-1.15
-1.18
-1.15
-1.19
-1.35
-1.47
-1.32
-0.78
0.06
0.93
1.48
1.53
1.10
0.45
-0.09
-0.28
-0.09
0.29
0.64
0.81
0.75
0.51
0.12
-0.40
-1.04
-1.70
-2.21
-2.39
-2.12
-1.49
-0.66
0.16
0.80
1.25
1.56
1.75
1.81
1.67
1.32
0.89
0.55
0.45
0.58
0.80
0.89
0.73
0.32
-0.20
-0.62
-0.78
-0.64
-0.27
0.24
0.78
1.32
1.82
2.27
2.58
2.70
2.55
2.12
1.41
0.47
-0.61
-1.71
-2.62
-3.08
-2.86
-1.94
-0.58
0.59
0.86
-0.23
-2.63
-5.65
-8.15
-9.03
-7.67
-4.22
0.31
4.44
6.80
6.70
4.31
0.66
-2.97
-5.56
-6.69
-6.60
-5.79
-4.78
-4.06
-4.20
-5.89
-9.68
-15.41
-21.93
-27.19
-29.14
-26.53
-19.60
-9.85
0.69
10.28
17.83
22.92
25.40
25.24
22.65
18.29
13.33
9.16
6.89
6.86
8.64
11.13
13.18
13.90
12.97
10.74
7.99
5.68
4.46
4.48
5.28
6.17
6.49
5.93
4.62
2.87
1.00
-0.80
-2.36
-3.53
-4.05
-3.73
-2.55
-0.74
1.22
2.80
3.60
3.45
2.39
0.70
-1.32
-3.34
-5.08
-6.39
-7.24
-7.65
-7.66
-7.34
-6.66
-5.64
-4.37
-3.03
-1.89
-1.08
-0.68
-0.61
-0.66
-0.69
-0.69
-0.71
-0.84
-1.09
-1.32
-1.39
-1.20
-0.83
-0.42
-0.18
-0.21
-0.49
-0.85
-1.14
-1.25
-1.18
-0.98
-0.70
-0.40
-0.17
-0.10
-0.31
-0.93
-1.96
-3.33
-4.82
-6.16
-7.08
-7.41
-7.11
-6.32
-5.22
-4.01
-2.74
-1.38
0.19
2.08
4.18
6.21
7.77
8.48
8.15
6.91
5.06
3.06
1.45
0.69
1.10
2.69
5.07
7.40
8.57
7.69
4.51
-0.31
-5.37
-9.01
-10.04
-8.16
-4.12
0.73
4.90
7.41
7.95
6.94
5.30
4.00
3.82
5.10
7.61
10.67
13.46
15.31
15.84
15.05
13.09
10.32
7.24
4.49
2.80
2.71
4.37
7.34
10.70
13.60
15.76
17.68
20.23
23.96
28.53
32.71
35.07
34.78
32.10
28.36
25.32
24.06
24.18
23.78
20.25
11.54
-2.79
-20.88
-38.76
-51.54
-55.54
-50.37
-39.65
-29.60
-26.54
-34.13
-51.75
-74.86
-96.95
-112.68
-119.97
-120.35
-117.24
-113.65
-110.81
-107.83
-102.19
-91.24
-73.09
-47.26
-14.46
24.20
67.47
113.24
156.04
186.58
195.58
179.80
143.42
94.89
43.21
-4.04
-41.85
-68.66
-83.31
-86.30
-80.42
-70.54
-62.24
-59.66
-63.28
-71.98
-82.99
-91.95
-93.61
-82.05
-52.34
-2.84
63.00
136.47
205.48
258.46
287.94
292.13
274.25
240.60
198.05
153.43
112.58
79.24
53.97
33.76
12.98
-13.72
-48.24
-88.06
-126.58
-156.27
-171.96
-172.50
-160.47
-140.38
-116.48
-91.68
-67.53
-44.85
-24.92
-10.00
-2.68
-4.45
-14.56
-29.63
-44.55
-54.22
-55.42
-47.93
-34.65
-20.05
-8.32
-1.84
-0.51
-2.24
-4.25
-4.33
-1.81
2.51
7.09
10.40
11.75
11.47
10.80
10.97
12.64
15.44
18.07
19.28
18.54
16.62
15.26
16.30
20.58
27.05
32.84
34.83
31.70
25.45
20.94
23.34
34.95
53.48
72.60
85.11
86.38
76.09
57.05
32.55
4.04
-28.34
-63.11
-95.37
-116.96
-120.29
-103.12
-70.93
-34.84
-6.09
9.34
13.03
11.62
11.98
16.64
22.63
24.15
16.78
0.64
-19.48
-36.76
-45.95
-45.42
-37.33
-26.01
-15.48
-8.06
-4.12
-2.73
-2.71
-3.53
-4.90
-6.60
-8.14
-8.66
-7.53
-4.74
-0.91
3.05
6.32
8.69
10.44
11.97
13.35
13.76
11.35
3.96
-9.69
-28.85
-50.19
-68.69
-79.42
-79.46
-69.01
-50.87
-29.06
-7.39
11.18
24.63
31.51
31.12
24.02
12.53
0.42
-8.25
-10.67
-6.52
2.28
12.60
21.48
27.43
30.36
31.25
31.22
31.07
31.05
31.15
31.28
31.48
31.81
32.21
32.35
31.64
29.64
26.27
22.06
18.01
15.20
14.28
15.10
16.73
17.85
17.42
15.14
11.50
7.73
5.17
4.67
6.01
8.08
9.27
8.53
5.71
1.28
-3.62
-7.79
-10.49
-11.59
-11.15
-9.25
-5.86
-1.81
0.25
-2.84
-13.05
-30.00
-50.43
-68.98
-80.29
-80.76
-70.12
-52.09
-31.36
-11.26
6.71
22.51
36.60
48.90
59.32
67.83
73.97
78.88
85.40
95.90
110.83
128.08
139.56
137.79
126.87
111.77
94.82
79.35
66.58
54.79
40.37
20.18
-5.56
-33.30
-58.84
-78.13
-88.67
-91.25
-89.18
-86.46
-86.09
-88.50
-92.18
-95.70
-97.30
-95.21
-88.86
-79.15
-68.55
-60.65
-58.81
-65.16
-79.84
-99.44
-117.24
-125.32
-117.08
-89.51
-44.17
13.24
74.34
129.63
170.79
192.18
191.63
170.76
134.79
91.32
48.79
14.24
-8.58
-19.54
-21.46
-18.42
-14.16
-11.05
-9.84
-10.11
-10.86
-11.16
-10.51
-9.15
-7.81
-7.65
-9.59
-13.79
-19.52
-25.35
-29.78
-31.94
-31.86
-30.55
-29.90
-32.24
-39.79
-53.82
-73.68
-96.57
-118.11
-133.62
-139.94
-136.76
-126.44
-112.70
-98.46
-83.77
-66.06
-42.13
-10.04
29.22
71.66
111.97
145.08
167.90
180.73
185.69
184.84
179.36
168.92
152.28
128.62
98.54
64.50
31.67
5.38
-11.05
-16.65
-12.77
-2.53
10.27
21.14
25.46
20.58
5.22
-20.63
-54.34
-90.92
-124.41
-146.99
-152.00
-144.58
-131.42
-115.23
-98.32
-81.09
-62.43
-40.64
-14.97
12.67
37.92
56.90
66.93
67.35
61.04
53.24
49.78
54.47
66.75
81.81
93.58
96.80
89.09
72.66
53.13
36.42
25.86
19.77
12.27
-2.80
-28.72
-63.90
-101.69
-133.22
-151.07
-151.58
-135.35
-105.48
-65.39
-18.10
32.76
81.74
121.56
144.89
147.78
131.66
103.06
70.08
38.25
8.41
-21.47
-51.83
-78.29
-92.18
-85.60
-57.78
-18.14
16.94
32.14
21.25
-9.51
-45.40
-71.39
-79.68
-72.01
-56.36
-40.25
-25.63
-8.70
15.85
49.54
87.25
119.13
135.93
133.68
115.17
87.55
57.44
27.72
-2.65
-35.82
-71.31
-103.86
-125.00
-126.47
-104.34
-61.20
-5.44
51.49
97.99
124.68
125.96
100.80
53.73
-4.92
-60.37
-96.98
-103.50
-78.01
-29.74
23.69
63.01
74.91
56.79
16.35
-33.10
-78.19
-109.61
-122.57
-115.39
-88.69
-45.57
6.73
56.71
91.17
99.81
79.93
38.33
-11.20
-53.25
-76.29
-76.15
-55.82
-22.23
17.29
57.22
93.72
123.31
141.60
143.70
126.40
90.48
41.62
-11.23
-59.28
-96.75
-121.65
-134.09
-133.33
-117.26
-84.15
-35.65
20.71
73.02
109.41
122.81
113.56
88.26
55.90
23.98
-3.30
-24.70
-40.24
-49.80
-53.07
-50.28
-42.75
-32.97
-23.76
-17.06
-13.21
-10.88
-7.77
-2.15
6.09
15.34
22.89
26.36
24.87
19.30
11.68
4.12
-2.19
-7.23
-11.64
-16.06
-20.53
-24.42
-26.91
-27.51
-26.38
-24.41
-22.82
-22.58
-24.05
-26.83
-29.79
-31.41
-30.29
-25.66
-17.97
-8.76
-0.06
6.45
10.36
12.86
16.29
23.12
34.90
51.72
72.04
93.27
112.12
125.15
129.12
121.90
103.29
75.50
42.99
10.96
-16.36
-37.37
-53.26
-66.77
-79.81
-91.65
-98.57
-95.49
-78.86
-48.82
-9.60
32.37
71.05
102.71
126.18
141.37
147.68
143.44
127.04
98.76
61.97
22.79
-12.14
-38.03
-53.52
-60.22
-61.60
-60.82
-59.74
-58.84
-57.59
-55.50
-52.49
-49.01
-45.65
-42.92
-40.81
-38.91
-36.73
-34.00
-30.80
-27.56
-24.82
-22.91
-21.80
-21.10
-20.35
-19.15
-17.44
-15.39
-13.32
-11.55
-10.27
-9.57
-9.28
-8.95
-7.84
-5.11
-0.31
6.28
13.50
19.68
23.34
23.88
21.73
17.95
13.63
9.39
5.35
1.53
-1.82
-4.05
-4.40
-2.53
0.92
4.45
6.16
4.69
-0.04
-6.75
-13.22
-17.36
-18.35
-17.31
-16.66
-18.99
-25.52
-35.84
-48.42
-61.41
-72.75
-79.92
-79.74
-69.11
-46.86
-15.21
19.87
50.60
70.60
77.61
74.02
65.05
55.63
48.04
41.71
34.88
26.55
17.59
9.92
5.11
3.49
3.99
4.66
3.96
1.37
-2.46
-6.01
-7.92
-7.58
-5.42
-2.59
-0.50
-0.03
-1.31
-3.64
-5.92
-7.25
-7.16
-5.83
-3.90
-2.17
-1.24
-1.25
-1.99
-2.94
-3.65
-3.80
-3.38
-2.60
-1.82
-1.34
-1.29
-1.55
-1.87
-1.97
-1.71
-1.11
-0.38
0.18
0.38
0.14
-0.45
-1.16
-1.77
-2.08
-1.99
-1.58
-1.01
-0.55
-0.39
-0.63
-1.14
-1.63
-1.77
-1.32
-0.34
0.82
1.66
1.76
0.89
-0.81
-2.94
-4.97
-6.38
-6.90
-6.45
-5.24
-3.89
-3.40
-4.81
-8.77
-14.96
-22.01
-27.87
-30.65
-29.38
-24.39
-17.06
-9.07
-1.76
4.25
8.91
12.37
14.74
15.96
16.02
15.12
13.73
12.31
11.22
10.57
10.21
9.85
9.26
8.27
7.00
5.75
4.84
4.51
4.74
5.31
5.82
5.89
5.38
4.40
3.26
2.36
2.00
2.26
2.92
3.63
3.98
3.77
3.01
1.95
0.89
0.09
-0.34
-0.39
-0.21
0.11
0.45
0.74
0.93
0.95
0.80
0.46
-0.02
-0.52
-0.90
-1.01
-0.79
-0.24
0.45
1.04
1.29
1.10
0.54
-0.16
-0.68
-0.82
-0.52
0.07
0.69
1.09
1.15
0.86
0.36
-0.15
-0.52
-0.66
-0.60
-0.45
-0.34
-0.34
-0.47
-0.63
-0.77
-0.87
-1.02
-1.29
-1.68
-2.06
-2.24
-2.05
-1.44
-0.55
0.39
1.18
1.70
1.96
1.99
1.88
1.65
1.36
1.05
0.82
0.72
0.74
0.80
0.79
0.67
0.43
0.18
0.00
-0.09
-0.11
-0.13
-0.21
-0.29
-0.26
-0.01
0.54
1.33
2.17
2.80
3.00
2.67
1.88
0.82
-0.24
-1.11
-1.64
-1.79
-1.56
-1.02
-0.27
0.51
1.09
1.26
0.91
0.13
-0.82
-1.57
-1.82
-1.49
-0.71
0.25
1.05
1.53
1.65
1.50
1.26
0.99
0.74
0.48
0.22
-0.02
-0.20
-0.29
-0.32
-0.36
-0.47
-0.64
-0.89
-1.12
-1.32
-1.42
-1.39
-1.24
-0.98
-0.65
-0.28
0.10
0.49
0.89
1.32
1.73
2.04
2.14
1.95
1.44
0.70
-0.11
-0.80
-1.29
-1.61
-1.89
-2.25
-2.69
-3.08
-3.16
-2.75
-1.85
-0.68
0.39
1.03
1.13
0.87
0.61
0.67
1.19
1.99
2.75
3.17
3.07
2.52
1.74
0.97
0.37
0.01
-0.13
-0.14
-0.10
-0.09
-0.16
-0.33
-0.52
-0.67
-0.71
-0.68
-0.64
-0.64
-0.64
-0.50
-0.11
0.51
1.16
1.52
1.37
0.66
-0.32
-1.20
-1.64
-1.55
-1.13
-0.68
-0.48
-0.57
-0.76
-0.82
-0.58
-0.09
0.44
0.78
0.85
0.72
0.58
0.55
0.69
0.89
1.02
0.97
0.73
0.36
0.04
-0.11
-0.02
0.24
0.52
0.67
0.61
0.39
0.16
0.04
0.05
0.09
0.05
-0.09
-0.28
-0.39
-0.36
-0.25
-0.22
-0.40
-0.86
-1.47
-2.04
-2.33
-2.19
-1.61
-0.74
0.13
0.74
0.95
0.80
0.51
0.34
0.46
0.87
1.38
1.79
2.00
1.98
1.81
1.47
0.94
0.14
-0.82
-1.69
-2.12
-1.88
-1.01
0.16
1.17
1.65
1.45
0.77
-0.06
-0.70
-0.96
-0.87
-0.57
-0.27
-0.07
0.03
0.06
0.07
0.06
0.00
-0.16
-0.46
-0.92
-1.45
-1.88
-2.02
-1.77
-1.20
-0.52
-0.01
0.15
-0.04
-0.39
-0.60
-0.50
-0.02
0.67
1.36
1.80
1.90
1.68
1.23
0.65
0.06
-0.43
-0.74
-0.82
-0.74
-0.57
-0.42
-0.31
-0.19
0.02
0.35
0.69
0.86
0.70
0.20
-0.53
-1.19
-1.53
-1.43
-0.98
-0.42
0.03
0.19
0.10
-0.17
-0.44
-0.59
-0.58
-0.38
-0.04
0.36
0.75
1.08
1.37
1.66
2.04
2.47
2.93
3.25
3.30
3.01
2.38
1.58
0.80
0.23
-0.07
-0.11
0.04
0.28
0.57
0.85
1.11
1.30
1.42
1.42
1.32
1.13
0.82
0.43
0.03
-0.27
-0.32
-0.08
0.35
0.73
0.75
0.26
-0.66
-1.77
-2.78
-3.47
-3.76
-3.69
-3.25
-2.43
-1.27
0.04
1.23
1.97
2.07
1.60
0.86
0.24
0.01
0.24
0.80
1.45
2.02
2.47
2.88
3.36
3.97
4.64
5.21
5.50
5.39
4.84
3.94
2.81
1.55
0.25
-1.02
-2.15
-3.03
-3.58
-3.84
-3.93
-4.04
-4.31
-4.71
-5.10
-5.28
-5.13
-4.68
-4.07
-3.51
-3.08
-2.78
-2.52
-2.19
-1.80
-1.41
-1.15
-1.05
-1.07
-1.06
-0.90
-0.53
-0.02
0.52
0.93
1.16
1.23
1.25
1.31
1.46
1.57
1.49
1.09
0.42
-0.36
-0.93
-1.05
-0.65
0.09
0.80
1.13
0.87
0.07
-1.01
-2.01
-2.60
-2.60
-2.04
-1.10
-0.04
0.86
1.39
1.45
1.08
0.46
-0.20
-0.70
-0.97
-1.04
-1.02
-1.03
-1.11
-1.16
-1.01
-0.60
0.04
0.72
1.28
1.65
1.90
2.13
2.38
2.54
2.44
2.02
1.43
0.95
0.80
0.92
0.97
0.46
-0.89
-3.00
-5.32
-7.22
-8.19
-8.15
-7.36
-6.26
-5.21
-4.36
-3.72
-3.26
-3.13
-3.55
-4.73
-6.55
-8.53
-9.91
-9.95
-8.33
-5.29
-1.64
1.70
4.18
5.87
7.31
9.04
11.25
13.61
15.68
17.19
18.31
19.44
20.77
22.00
22.33
20.88
17.11
11.25
4.05
-3.39
-10.13
-15.50
-19.15
-20.90
-20.68
-18.72
-15.54
-12.17
-9.94
-10.05
-12.96
-17.72
-22.01
-22.79
-17.81
-6.90
7.45
20.92
29.25
30.13
24.25
14.73
5.31
-1.47
-5.10
-6.71
-7.78
-9.03
-10.37
-11.37
-12.03
-12.74
-13.58
-13.53
-10.78
-3.57
8.35
22.93
36.55
45.73
48.72
46.15
40.12
32.54
24.02
14.06
2.41
-9.55
-18.35
-19.88
-11.35
6.88
31.11
55.46
73.84
81.63
77.00
61.51
39.94
19.67
8.40
11.26
28.00
51.87
71.55
75.87
58.84
22.32
-24.70
-70.72
-107.03
-130.43
-142.85
-148.66
-151.72
-153.93
-155.13
-153.65
-147.19
-133.50
-110.83
-79.32
-42.15
-5.79
21.83
34.28
29.70
11.80
-11.30
-29.78
-35.58
-24.81
1.22
36.56
72.58
100.79
115.30
114.51
101.15
80.32
57.41
36.48
19.77
8.14
2.02
1.66
6.64
15.17
23.91
29.06
28.10
20.89
9.81
-1.32
-8.81
-10.69
-7.38
-1.26
4.53
7.56
6.99
3.66
-0.57
-3.71
-4.63
-3.35
-0.81
1.71
3.20
3.21
1.91
-0.07
-1.94
-3.12
-3.33
-2.69
-1.60
-0.47
0.35
0.69
0.60
0.23
-0.25
-0.68
-0.97
-1.02
-0.83
-0.48
-0.10
0.14
0.11
-0.19
-0.69
-1.20
-1.56
-1.64
-1.44
-1.05
-0.64
-0.41
-0.51
-0.93
-1.44
-1.78
-1.70
-1.17
-0.36
0.38
0.80
0.79
0.48
0.06
-0.31
-0.55
-0.67
-0.66
-0.50
-0.13
0.47
1.22
1.95
2.50
2.79
2.81
2.59
2.21
1.71
1.17
0.65
0.29
0.13
0.19
0.36
0.47
0.44
0.30
0.17
0.21
0.49
0.94
1.34
1.47
1.24
0.64
-0.17
-1.04
-1.83
-2.45
-2.83
-2.92
-2.68
-2.10
-1.29
-0.41
0.34
0.82
1.00
0.95
0.78
0.54
0.26
-0.09
-0.51
-0.93
-1.24
-1.31
-1.08
-0.62
-0.08
0.37
0.57
0.49
0.20
-0.15
-0.41
-0.51
-0.42
-0.17
0.22
0.74
1.32
1.86
2.22
2.26
1.97
1.47
0.92
0.50
0.24
0.08
-0.07
-0.30
-0.61
-0.92
-1.18
-1.36
-1.43
-1.37
-1.11
-0.63
-0.00
0.59
0.91
0.81
0.30
-0.37
-0.91
-1.07
-0.81
-0.28
0.28
0.67
0.77
0.57
0.12
-0.54
-1.30
-2.07
-2.66
-2.89
-2.63
-1.86
-0.78
0.30
1.09
1.48
1.53
1.46
1.45
1.53
1.57
1.36
0.86
0.19
-0.39
-0.64
-0.52
-0.19
0.08
0.09
-0.19
-0.64
-1.06
-1.25
-1.12
-0.64
0.12
1.05
1.94
2.55
2.68
2.20
1.19
-0.09
-1.23
-1.86
-1.82
-1.16
-0.26
0.50
0.82
0.70
0.38
0.17
0.31
0.78
1.36
1.74
1.76
1.43
0.88
0.27
-0.31
-0.86
-1.36
-1.75
-1.92
-1.77
-1.34
-0.74
-0.16
0.28
0.53
0.55
0.37
-0.03
-0.64
-1.35
-2.00
-2.38
-2.38
-2.03
-1.44
-0.76
-0.12
0.44
0.87
1.13
1.16
0.96
0.65
0.39
0.34
0.50
0.77
0.95
0.89
0.55
0.03
-0.55
-1.05
-1.41
-1.62
-1.65
-1.47
-1.07
-0.49
0.17
0.75
1.15
1.30
1.20
0.95
0.63
0.37
0.24
0.31
0.54
0.87
1.19
1.38
1.38
1.26
1.12
1.11
1.25
1.49
1.64
1.54
1.10
0.35
-0.53
-1.37
-2.05
-2.49
-2.70
-2.65
-2.35
-1.85
-1.25
-0.69
-0.32
-0.18
-0.19
-0.23
-0.22
-0.13
-0.04
0.02
0.07
0.16
0.42
0.87
1.36
1.69
1.67
1.20
0.37
-0.61
-1.48
-1.97
-1.94
-1.43
-0.63
0.19
0.78
1.00
0.88
0.55
0.14
-0.29
-0.77
-1.34
-1.93
-2.36
-2.39
-1.89
-0.95
0.19
1.21
1.89
2.17
2.16
1.96
1.63
1.17
0.56
-0.11
-0.66
-0.85
-0.56
0.20
1.19
2.08
2.59
2.58
2.13
1.38
0.54
-0.27
-1.01
-1.67
-2.14
-2.29
-1.95
-1.15
-0.09
0.87
1.37
1.27
0.70
0.00
-0.51
-0.66
-0.53
-0.25
0.03
0.30
0.57
0.83
0.98
0.87
0.42
-0.23
-0.83
-1.11
-0.94
-0.40
0.29
0.89
1.27
1.40
1.32
1.07
0.68
0.19
-0.32
-0.71
-0.84
-0.74
-0.56
-0.54
-0.89
-1.60
-2.47
-3.15
-3.31
-2.80
-1.74
-0.40
0.83
1.68
2.00
1.85
1.39
0.80
0.28
-0.10
-0.32
-0.43
-0.49
-0.54
-0.52
-0.36
-0.02
0.42
0.81
0.97
0.76
0.20
-0.56
-1.30
-1.82
-2.05
-1.96
-1.61
-1.06
-0.39
0.29
0.86
1.17
1.19
0.99
0.70
0.46
0.34
0.35
0.37
0.33
0.19
-0.05
-0.29
-0.47
-0.53
-0.46
-0.31
-0.14
0.05
0.24
0.48
0.75
1.02
1.22
1.29
1.23
1.04
0.83
0.65
0.52
0.45
0.40
0.37
0.30
0.16
-0.13
-0.59
-1.12
-1.55
-1.67
-1.42
-0.88
-0.28
0.14
0.23
0.00
-0.39
-0.77
-1.02
-1.12
-1.11
-1.07
-0.98
-0.80
-0.43
0.20
1.04
1.98
2.75
3.11
2.91
2.21
1.21
0.17
-0.65
-1.19
-1.47
-1.57
-1.55
-1.42
-1.17
-0.79
-0.41
-0.15
-0.13
-0.30
-0.52
-0.59
-0.37
0.07
0.56
0.79
0.64
0.14
-0.48
-0.96
-1.11
-0.97
-0.70
-0.45
-0.31
-0.15
0.14
0.61
1.16
1.56
1.59
1.22
0.58
-0.05
-0.41
-0.37
-0.01
0.48
0.85
0.93
0.70
0.26
-0.20
-0.52
-0.62
-0.53
-0.32
-0.09
0.12
0.30
0.44
0.56
0.65
0.69
0.67
0.59
0.43
0.16
-0.25
-0.80
-1.40
-1.89
-2.02
-1.65
-0.76
0.41
1.48
2.09
2.05
1.49
0.75
0.24
0.25
0.80
1.63
2.33
2.56
2.19
1.38
0.44
-0.31
-0.69
-0.75
-0.67
-0.64
-0.68
-0.76
-0.75
-0.64
-0.54
-0.59
-0.84
-1.22
-1.55
-1.62
-1.43
-1.08
-0.78
-0.65
-0.71
-0.84
-0.91
-0.88
-0.75
-0.57
-0.34
-0.04
0.33
0.68
0.87
0.74
0.32
-0.22
-0.55
-0.46
0.10
0.88
1.52
1.65
1.13
0.01
-1.42
-2.78
-3.69
-3.91
-3.35
-2.15
-0.61
0.82
1.74
1.94
1.52
0.79
0.11
-0.32
-0.51
-0.58
-0.59
-0.49
-0.16
0.43
1.13
1.64
1.71
1.29
0.64
0.11
-0.04
0.16
0.41
0.34
-0.16
-0.88
-1.45
-1.56
-1.16
-0.51
0.02
0.15
-0.18
-0.79
-1.44
-1.97
-2.35
-2.62
-2.76
-2.65
-2.11
-1.01
0.60
2.50
4.27
5.61
6.32
6.43
6.17
5.83
5.63
5.61
5.59
5.23
4.24
2.52
0.28
-2.09
-4.15
-5.59
-6.36
-6.55
-6.33
-5.77
-4.86
-3.58
-2.08
-0.64
0.45
1.05
1.25
1.30
1.40
1.58
1.71
1.68
1.44
1.17
1.08
1.25
1.57
1.76
1.57
0.95
0.12
-0.59
-0.97
-1.10
-1.31
-1.92
-3.08
-4.61
-6.11
-7.08
-7.17
-6.35
-4.82
-3.03
-1.42
-0.37
-0.05
-0.32
-0.81
-0.96
-0.23
1.63
4.38
7.41
9.88
11.14
10.99
9.72
7.88
6.04
4.51
3.31
2.23
1.12
-0.05
-1.10
-1.80
-2.04
-1.89
-1.57
-1.34
-1.39
-1.72
-2.20
-2.61
-2.73
-2.49
-1.95
-1.30
-0.71
-0.34
-0.17
-0.05
0.17
0.59
1.09
1.43
1.33
0.68
-0.37
-1.46
-2.16
-2.21
-1.65
-0.82
-0.16
0.02
-0.28
-0.81
-1.19
-1.20
-0.83
-0.31
0.06
0.07
-0.26
-0.80
-1.30
-1.63
-1.76
-1.76
-1.69
-1.61
-1.49
-1.32
-1.10
-0.85
-0.62
-0.45
-0.34
-0.25
-0.15
-0.02
0.18
0.44
0.76
1.08
1.33
1.43
1.38
1.18
0.91
0.63
0.42
0.29
0.23
0.18
0.09
-0.08
-0.38
-0.74
-1.07
-1.21
-1.04
-0.50
0.33
1.24
2.01
2.42
2.35
1.77
0.80
-0.39
-1.54
-2.36
-2.58
-2.11
-1.02
0.40
1.72
2.57
2.76
2.34
1.61
0.91
0.56
0.64
1.06
1.52
1.75
1.60
1.13
0.55
0.09
-0.14
-0.20
-0.24
-0.43
-0.78
-1.17
-1.42
-1.41
-1.17
-0.88
-0.72
-0.75
-0.91
-0.98
-0.83
-0.44
0.07
0.47
0.59
0.41
0.05
-0.30
-0.43
-0.31
-0.04
0.26
0.46
0.54
0.53
0.55
0.64
0.76
0.81
0.66
0.28
-0.29
-0.84
-1.20
-1.27
-1.09
-0.74
-0.42
-0.25
-0.32
-0.62
-1.04
-1.44
-1.67
-1.65
-1.44
-1.17
-0.97
-0.87
-0.83
-0.74
-0.57
-0.43
-0.49
-0.83
-1.39
-1.91
-2.07
-1.71
-0.89
0.07
0.80
1.09
0.97
0.70
0.53
0.64
0.98
1.41
1.75
1.88
1.79
1.51
1.07
0.53
-0.07
-0.64
-1.06
-1.23
-1.07
-0.62
0.00
0.56
0.84
0.70
0.14
-0.66
-1.40
-1.77
-1.58
-0.87
0.14
1.10
1.68
1.72
1.21
0.35
-0.60
-1.36
-1.76
-1.66
-1.10
-0.18
0.90
1.99
2.88
3.47
3.68
3.53
3.11
2.56
2.02
1.63
1.41
1.32
1.29
1.22
1.05
0.73
0.23
-0.39
-1.01
-1.42
-1.44
-1.02
-0.27
0.52
1.02
1.05
0.65
0.00
-0.65
-1.10
-1.34
-1.44
-1.55
-1.77
-2.13
-2.55
-2.94
-3.16
-3.13
-2.79
-2.16
-1.31
-0.40
0.42
1.00
1.27
1.27
1.09
0.85
0.68
0.63
0.67
0.73
0.73
0.61
0.38
0.06
-0.32
-0.65
-0.86
-0.84
-0.57
-0.12
0.37
0.72
0.78
0.54
0.08
-0.44
-0.83
-1.00
-0.97
-0.80
-0.60
-0.38
-0.12
0.19
0.53
0.81
0.93
0.83
0.57
0.27
0.12
0.19
0.46
0.78
0.97
0.91
0.55
-0.01
-0.65
-1.19
-1.49
-1.48
-1.18
-0.74
-0.34
-0.11
-0.07
-0.14
-0.16
-0.04
0.22
0.53
0.78
0.91
0.87
0.71
0.45
0.15
-0.16
-0.41
-0.57
-0.59
-0.48
-0.26
0.00
0.27
0.52
0.75
0.97
1.14
1.21
1.07
0.73
0.29
-0.09
-0.21
-0.01
0.39
0.78
0.90
0.64
0.06
-0.61
-1.16
-1.46
-1.49
-1.34
-1.08
-0.79
-0.47
-0.14
0.16
0.37
0.46
0.40
0.26
0.08
-0.09
-0.26
-0.47
-0.73
-1.00
-1.13
-1.03
-0.67
-0.17
0.29
0.53
0.54
0.46
0.50
0.81
1.37
1.97
2.35
2.32
1.87
1.15
0.40
-0.20
-0.60
-0.86
-1.12
-1.45
-1.87
-2.24
-2.33
-1.89
-0.89
0.47
1.77
2.55
2.55
1.78
0.59
-0.53
-1.17
-1.14
-0.60
0.15
0.78
1.06
0.95
0.55
0.01
-0.54
-1.01
-1.33
-1.45
-1.30
-0.87
-0.24
0.44
0.94
1.09
0.83
0.26
-0.44
-1.06
-1.48
-1.72
-1.84
-1.90
-1.90
-1.79
-1.53
-1.12
-0.60
-0.04
0.52
1.01
1.36
1.47
1.32
0.92
0.41
0.01
-0.09
0.17
0.73
1.42
2.06
2.53
2.79
2.85
2.76
2.57
2.31
1.98
1.55
0.99
0.33
-0.36
-0.96
-1.36
-1.49
-1.43
-1.28
-1.15
-1.11
-1.16
-1.17
-1.03
-0.66
-0.05
0.66
1.27
1.57
1.40
0.80
-0.03
-0.81
-1.28
-1.35
-1.13
-0.84
-0.66
-0.69
-0.85
-0.99
-0.96
-0.66
-0.18
0.33
0.66
0.68
0.40
-0.01
-0.33
-0.42
-0.29
-0.10
-0.05
-0.22
-0.49
-0.67
-0.58
-0.23
0.21
0.54
0.60
0.40
0.07
-0.26
-0.51
-0.67
-0.73
-0.66
-0.36
0.18
0.88
1.59
2.14
2.43
2.41
2.10
1.52
0.75
-0.16
-1.07
-1.77
-2.11
-2.04
-1.66
-1.15
-0.68
-0.32
-0.09
0.04
0.06
-0.03
-0.14
-0.18
-0.03
0.30
0.66
0.83
0.64
0.14
-0.48
-0.93
-1.03
-0.79
-0.41
-0.12
-0.06
-0.19
-0.40
-0.55
-0.59
-0.56
-0.52
-0.54
-0.61
-0.68
-0.65
-0.44
-0.07
0.36
0.70
0.84
0.74
0.45
0.08
-0.29
-0.60
-0.84
-0.96
-0.95
-0.78
-0.49
-0.13
0.21
0.42
0.52
0.58
0.72
0.99
1.37
1.71
1.89
1.84
1.57
1.21
0.88
0.68
0.58
0.56
0.59
0.73
0.99
1.29
1.47
1.28
0.64
-0.33
-1.32
-1.97
-2.07
-1.70
-1.15
-0.75
-0.71
-0.97
-1.33
-1.57
-1.57
-1.32
-0.93
-0.49
-0.01
0.47
0.92
1.25
1.31
1.03
0.44
-0.28
-0.83
-0.98
-0.67
-0.11
0.37
0.45
0.03
-0.76
-1.56
-2.09
-2.15
-1.83
-1.35
-0.90
-0.59
-0.39
-0.22
-0.04
0.13
0.27
0.40
0.58
0.86
1.25
1.61
1.78
1.65
1.22
0.59
-0.05
-0.51
-0.67
-0.52
-0.17
0.27
0.63
0.81
0.79
0.61
0.28
-0.09
-0.46
-0.70
-0.70
-0.37
0.34
1.31
2.26
2.85
2.79
2.02
0.74
-0.64
-1.65
-1.99
-1.62
-0.75
0.27
1.09
1.43
1.32
0.88
0.37
0.02
-0.07
0.07
0.34
0.59
0.71
0.69
0.53
0.24
-0.17
-0.68
-1.21
-1.59
-1.62
-1.18
-0.30
0.77
1.64
1.97
1.70
1.01
0.25
-0.32
-0.63
-0.83
-1.16
-1.68
-2.24
-2.62
-2.63
-2.29
-1.83
-1.43
-1.13
-0.85
-0.42
0.23
0.98
1.63
2.03
2.17
2.11
1.95
1.72
1.41
1.01
0.51
-0.00
-0.43
-0.71
-0.87
-0.88
-0.73
-0.37
0.22
0.93
1.61
2.01
1.98
1.49
0.68
-0.22
-0.96
-1.40
-1.56
-1.55
-1.56
-1.70
-1.98
-2.26
-2.41
-2.29
-1.90
-1.37
-0.87
-0.54
-0.42
-0.44
-0.43
-0.26
0.08
0.46
0.71
0.73
0.57
0.43
0.49
0.80
1.21
1.48
1.44
1.12
0.74
0.56
0.66
0.91
1.00
0.71
0.10
-0.55
-0.86
-0.62
0.05
0.80
1.23
1.11
0.51
-0.32
-1.09
-1.66
-1.98
-2.10
-2.03
-1.74
-1.21
-0.51
0.21
0.74
0.97
0.91
0.72
0.55
0.54
0.65
0.81
0.98
1.12
1.28
1.48
1.62
1.60
1.34
0.86
0.30
-0.18
-0.45
-0.49
-0.38
-0.24
-0.14
-0.08
-0.10
-0.20
-0.44
-0.89
-1.51
-2.13
-2.54
-2.57
-2.17
-1.50
-0.82
-0.36
-0.25
-0.38
-0.55
-0.54
-0.23
0.28
0.77
1.06
1.07
0.88
0.66
0.56
0.66
0.87
1.10
1.31
1.50
1.68
1.82
1.81
1.48
0.79
-0.15
-1.06
-1.61
-1.60
-1.05
-0.19
0.61
1.08
1.13
0.85
0.45
0.07
-0.25
-0.51
-0.74
-0.90
-0.91
-0.69
-0.34
0.06
0.37
0.53
0.59
0.64
0.74
0.88
0.91
0.71
0.24
-0.37
-0.95
-1.27
-1.29
-1.06
-0.68
-0.25
0.15
0.44
0.54
0.30
-0.34
-1.27
-2.22
-2.81
-2.78
-2.11
-1.01
0.11
0.92
1.27
1.16
0.74
0.20
-0.32
-0.66
-0.69
-0.40
0.11
0.63
0.94
0.95
0.79
0.64
0.69
0.92
1.13
1.10
0.77
0.30
-0.06
-0.10
0.14
0.43
0.49
0.20
-0.31
-0.76
-0.86
-0.54
0.03
0.57
0.84
0.79
0.52
0.21
-0.02
-0.16
-0.22
-0.21
-0.09
0.17
0.59
1.08
1.50
1.72
1.66
1.31
0.74
0.03
-0.73
-1.45
-1.98
-2.20
-2.07
-1.65
-1.08
-0.55
-0.16
0.11
0.37
0.70
1.08
1.38
1.44
1.17
0.63
-0.00
-0.47
-0.59
-0.32
0.20
0.74
1.07
1.05
0.66
0.01
-0.74
-1.44
-2.01
-2.38
-2.47
-2.24
-1.64
-0.81
0.04
0.60
0.63
0.15
-0.59
-1.24
-1.44
-1.10
-0.38
0.38
0.87
0.95
0.72
0.39
0.16
0.12
0.20
0.28
0.30
0.23
0.12
0.04
0.04
0.10
0.18
0.25
0.33
0.46
0.70
1.02
1.36
1.58
1.54
1.17
0.50
-0.32
-1.05
-1.56
-1.79
-1.80
-1.69
-1.54
-1.35
-1.08
-0.74
-0.40
-0.14
-0.01
0.03
0.12
0.38
0.82
1.32
1.70
1.85
1.79
1.63
1.48
1.31
1.02
0.57
0.02
-0.37
-0.34
0.21
1.17
2.16
2.80
2.87
2.41
1.66
0.88
0.22
-0.35
-0.93
-1.59
-2.23
-2.68
-2.76
-2.42
-1.77
-1.00
-0.36
0.01
0.07
-0.11
-0.40
-0.64
-0.69
-0.48
-0.02
0.56
1.11
1.42
1.39
0.98
0.27
-0.62
-1.56
-2.43
-3.08
-3.38
-3.24
-2.70
-1.93
-1.21
-0.79
-0.70
-0.83
-0.86
-0.49
0.39
1.68
3.07
4.16
4.66
4.48
3.78
2.85
1.98
1.36
1.02
0.83
0.63
0.29
-0.23
-0.83
-1.34
-1.63
-1.62
-1.32
-0.81
-0.20
0.41
0.92
1.23
1.25
0.99
0.50
-0.02
-0.38
-0.43
-0.23
0.02
0.06
-0.25
-0.85
-1.46
-1.77
-1.58
-0.92
-0.05
0.68
1.03
0.89
0.41
-0.18
-0.65
-0.88
-0.83
-0.59
-0.29
-0.06
0.02
-0.03
-0.10
-0.06
0.17
0.52
0.83
0.92
0.71
0.26
-0.23
-0.55
-0.57
-0.33
0.04
0.36
0.54
0.55
0.41
0.20
-0.04
-0.29
-0.53
-0.77
-1.04
-1.39
-1.84
-2.32
-2.72
-2.90
-2.78
-2.37
-1.76
-1.05
-0.38
0.20
0.65
0.92
1.02
0.99
0.94
0.93
0.99
1.07
1.05
0.86
0.53
0.18
-0.03
0.02
0.31
0.71
1.08
1.28
1.28
1.10
0.79
0.41
-0.01
-0.45
-0.87
-1.21
-1.43
-1.53
-1.60
-1.67
-1.76
-1.79
-1.68
-1.40
-1.04
-0.73
-0.55
-0.47
-0.32
0.01
0.59
1.25
1.73
1.81
1.45
0.82
0.22
-0.09
-0.01
0.37
0.87
1.30
1.53
1.48
1.18
0.70
0.13
-0.40
-0.79
-0.99
-1.09
-1.20
-1.49
-2.03
-2.82
-3.75
-4.58
-5.07
-5.06
-4.56
-3.75
-3.05
-2.85
-3.33
-4.43
-5.90
-7.32
-8.35
-8.95
-9.12
-9.02
-8.75
-8.44
-8.52
-9.40
-11.25
-13.50
-14.85
-13.80
-9.46
-2.30
6.05
13.22
17.54
18.94
19.00
20.25
24.60
32.43
42.49
52.78
61.43
67.48
70.31
69.19
62.99
50.81
32.60
10.16
-13.01
-32.90
-46.25
-52.08
-51.93
-48.84
-45.94
-45.08
-46.36
-48.39
-49.29
-47.47
-42.31
-34.33
-24.70
-14.86
-5.95
1.53
7.54
12.35
16.23
19.27
21.47
22.67
22.73
21.58
19.52
17.27
15.78
16.02
18.49
22.97
28.59
34.11
38.19
39.79
38.37
33.92
27.10
19.15
11.73
6.44
4.10
4.21
4.76
3.16
-2.68
-13.48
-28.54
-46.63
-66.63
-87.60
-108.04
-125.12
-134.33
-130.84
-111.65
-77.51
-33.40
12.55
51.66
76.84
84.22
74.03
50.98
24.03
4.47
2.23
21.29
56.56
94.30
117.05
111.38
74.66
17.03
-42.56
-84.84
-97.42
-78.73
-37.09
13.94
60.07
89.90
96.24
77.10
35.45
-20.76
-79.57
-128.52
-158.38
-165.81
-153.80
-129.04
-98.21
-66.05
-34.93
-5.99
19.31
39.48
54.42
66.67
81.20
103.59
136.34
172.42
198.62
201.43
174.88
123.54
59.91
-1.28
-47.59
-75.00
-85.14
-83.36
-76.68
-71.02
-70.05
-73.65
-81.28
-92.19
-105.16
-117.24
-123.44
-117.75
-95.53
-57.13
-8.66
38.91
74.65
92.41
93.10
82.33
65.97
46.46
21.89
-10.27
-50.31
-93.93
-130.44
-146.89
-136.33
-103.24
-61.04
-24.15
0.79
16.89
33.35
58.60
96.08
143.26
192.77
236.22
258.05
250.54
215.13
160.65
99.26
40.26
-12.15
-58.67
-101.41
-141.09
-174.92
-199.00
-212.21
-215.75
-214.75
-212.20
-209.65
-206.37
-199.67
-184.73
-156.60
-114.59
-60.15
0.51
60.70
114.77
159.38
193.64
218.95
243.40
267.39
289.10
305.85
315.68
317.28
310.31
295.38
265.33
223.53
174.38
122.54
71.76
25.15
-15.29
-48.42
-73.91
-91.95
-101.92
-105.57
-104.91
-101.85
-97.71
-93.34
-89.19
-85.44
-82.08
-77.93
-73.23
-68.34
-63.64
-59.30
-55.39
-51.93
-48.86
-46.11
-42.93
-39.41
-35.80
-32.33
-29.10
-26.20
-23.65
-21.42
-19.46
-17.40
-15.24
-13.09
-11.02
-9.09
-7.31
-5.72
-4.33
-3.14
-2.09
-1.15
-0.37
0.25
0.78
1.22
1.54
1.68
1.55
1.05
0.15
-1.10
-2.77
-4.66
-6.57
-8.49
-10.49
-12.72
-15.42
-18.66
-22.49
-26.70
-31.02
-35.12
-39.08
-43.06
-47.42
-52.74
-59.27
-67.10
-75.79
-84.86
-93.61
-102.06
-110.49
-119.29
-129.10
-139.46
-149.56
-157.36
-161.22
-159.42
-151.43
-137.80
-120.01
-100.09
-78.82
-56.70
-32.62
-5.88
23.72
54.88
85.84
114.73
139.92
160.89
176.73
186.91
190.65
187.98
179.67
168.53
157.73
147.66
136.62
120.80
97.98
70.09
43.91
28.15
29.06
48.28
80.54
117.00
148.46
169.08
177.86
176.83
169.81
158.64
143.98
124.52
99.89
71.09
40.80
12.84
-9.91
-25.53
-34.54
-38.84
-42.08
-48.43
-61.60
-83.87
-114.63
-150.82
-186.81
-216.61
-234.48
-237.45
-225.78
-201.93
-169.67
-132.37
-93.23
-55.00
-20.39
8.12
28.77
40.88
45.65
45.37
43.16
41.29
40.88
41.80
42.85
42.79
40.72
36.76
31.84
27.34
24.29
23.03
23.13
23.58
23.32
21.72
18.92
15.70
13.12
11.89
12.12
13.24
14.19
14.07
12.47
9.74
6.93
5.21
5.42
7.46
10.53
13.45
15.43
16.48
17.43
19.79
24.69
32.46
42.10
51.73
58.80
61.01
56.58
44.35
24.21
-2.29
-31.35
-57.23
-73.63
-76.53
-66.07
-46.69
-25.46
-8.89
-0.42
0.44
-3.10
-7.53
-10.90
-13.11
-15.03
-17.23
-19.25
-20.04
-18.83
-15.83
-12.24
-9.61
-9.12
-10.67
-13.38
-15.74
-16.72
-16.05
-14.47
-13.30
-13.71
-16.37
-20.75
-26.10
-31.09
-34.96
-37.17
-37.97
-37.61
-36.14
-33.41
-28.55
-20.84
-9.45
5.77
23.74
42.33
57.93
66.57
64.79
51.11
26.83
-3.98
-35.12
-60.81
-76.42
-80.09
-73.01
-58.18
-38.84
-17.32
4.22
24.36
40.68
51.54
55.55
53.22
46.41
37.71
29.61
22.72
17.24
11.96
6.67
1.29
-3.73
-7.45
-10.14
-11.93
-14.42
-18.09
-23.28
-28.58
-31.33
-29.02
-18.98
-1.34
22.35
47.55
69.46
83.48
86.74
78.71
59.53
31.51
-2.89
-38.94
-71.21
-94.32
-104.11
-100.41
-85.47
-64.43
-41.17
-19.12
0.69
17.80
31.73
43.03
52.29
62.77
76.44
94.49
113.88
128.64
132.58
121.28
95.71
59.79
20.56
-16.36
-46.77
-68.85
-82.44
-88.20
-89.11
-87.90
-88.06
-90.54
-94.13
-96.07
-93.83
-88.47
-83.45
-84.65
-94.94
-113.34
-134.19
-150.24
-156.51
-151.49
-138.75
-122.72
-107.69
-95.05
-84.61
-76.30
-70.44
-68.51
-69.62
-71.20
-68.36
-57.08
-36.69
-10.66
14.21
32.42
41.55
45.16
49.42
60.38
80.62
108.43
139.60
168.96
194.10
214.37
231.76
248.02
263.78
278.68
291.41
301.42
308.09
312.04
310.34
301.58
284.96
260.06
227.87
189.41
146.71
101.59
56.81
14.99
-20.78
-47.31
-64.70
-73.83
-76.60
-74.03
-67.50
-58.10
-48.14
-40.70
-38.89
-44.95
-57.27
-71.35
-80.36
-79.49
-68.16
-50.89
-35.23
-27.40
-30.09
-40.25
-52.30
-60.75
-63.35
-61.76
-59.23
-58.57
-59.52
-60.47
-58.67
-53.23
-45.56
-38.35
-34.48
-34.50
-37.12
-38.71
-36.10
-27.60
-14.26
-0.37
8.43
6.29
-9.11
-36.18
-68.85
-99.60
-123.29
-138.86
-150.07
-161.34
-175.02
-188.09
-194.11
-187.16
-165.71
-135.02
-104.05
-81.48
-70.66
-69.18
-70.51
-67.59
-57.10
-39.02
-16.77
5.94
25.88
41.61
53.33
62.02
69.94
78.20
87.52
96.55
102.98
104.44
99.71
90.13
77.99
67.03
59.41
56.54
58.45
64.59
74.01
84.08
91.91
93.03
84.61
66.02
40.36
13.31
-9.80
-25.22
-33.75
-38.11
-42.12
-47.47
-53.33
-57.14
-56.35
-51.33
-43.88
-37.62
-34.45
-34.38
-35.07
-33.39
-27.91
-18.88
-9.53
-2.61
-0.05
-0.74
-1.55
1.03
9.11
20.80
32.44
38.85
37.43
28.75
16.78
7.09
3.00
5.42
11.01
15.69
16.04
11.68
4.90
-1.28
-4.38
-5.23
-5.65
-8.09
-12.49
-16.28
-15.59
-7.80
4.75
16.38
18.93
7.50
-17.47
-49.41
-78.80
-97.57
-101.68
-93.38
-77.49
-59.89
-44.14
-31.50
-21.89
-14.48
-9.57
-6.59
-5.12
-3.47
-0.23
5.21
12.52
20.17
27.26
32.93
37.29
40.02
40.10
36.06
26.95
14.77
3.58
-0.55
6.98
27.69
59.12
96.58
136.14
176.08
217.23
259.21
298.52
327.32
336.03
317.48
270.31
200.36
117.59
32.62
-47.44
-119.47
-183.23
-238.94
-284.38
-315.75
-329.10
-322.73
-298.18
-259.91
-213.90
-165.71
-119.60
-77.67
-40.82
-9.28
16.63
36.47
49.96
57.20
59.20
57.55
54.33
51.23
49.11
47.95
47.11
45.76
43.33
39.83
35.74
31.88
28.83
26.82
25.64
24.79
23.77
22.30
20.41
18.36
16.57
15.30
14.62
14.40
14.43
14.53
14.54
14.51
14.51
14.68
15.06
15.66
16.41
17.26
18.19
19.21
20.36
21.75
23.43
25.39
27.61
30.03
32.61
35.43
38.52
42.01
46.06
50.74
56.03
61.63
67.13
71.98
75.69
77.70
77.51
74.75
69.18
60.61
48.99
34.46
17.48
-0.68
-18.84
-35.63
-49.79
-60.50
-67.65
-71.80
-73.92
-75.48
-76.74
-77.74
-78.03
-77.02
-74.44
-70.69
-66.77
-63.97
-63.27
-64.71
-67.63
-70.62
-72.39
-72.15
-70.11
-67.29
-64.97
-64.33
-66.17
-71.12
-79.15
-88.95
-97.40
-99.93
-91.91
-70.90
-38.38
0.14
36.94
65.25
81.75
87.36
85.87
81.53
77.02
72.92
68.65
63.76
58.82
55.12
53.70
54.58
56.63
58.23
57.92
55.32
51.11
46.70
43.51
42.32
43.02
44.69
46.12
46.36
45.14
42.91
40.55
38.96
38.62
39.44
40.90
42.26
42.98
42.86
42.11
41.17
40.45
40.16
40.27
40.48
40.44
39.85
38.57
36.66
34.24
31.43
28.26
24.69
20.60
15.79
10.11
3.46
-4.23
-13.00
-22.89
-33.99
-46.33
-60.03
-75.25
-92.16
-110.90
-131.63
-154.45
-179.44
-206.64
-235.91
-266.97
-299.36
-332.32
-364.73
-395.05
-421.38
-441.58
-453.93
-456.53
-447.89
-427.25
-394.77
-351.60
-299.79
-242.01
-181.26
-120.52
-62.37
-8.88
38.48
78.96
112.47
139.43
160.60
176.93
189.33
198.60
205.25
209.56
211.57
211.20
208.28
202.67
194.34
183.35
169.92
154.34
137.00
118.33
98.84
79.04
59.44
40.46
22.43
5.55
-10.11
-24.57
-37.91
-50.21
-61.54
-71.88
-81.29
-89.83
-97.63
-104.89
-111.84
-118.69
-125.51
-132.20
-138.50
-144.04
-148.46
-151.51
-152.96
-152.66
-150.31
-145.51
-137.66
-126.03
-110.07
-89.58
-65.11
-37.75
-8.95
19.81
47.37
73.01
96.53
117.95
137.28
154.34
168.79
180.38
189.14
195.59
200.79
206.17
213.33
223.86
239.08
259.65
284.90
312.37
337.80
356.09
362.79
355.71
335.80
306.71
273.34
240.11
209.76
183.20
160.20
140.20
122.88
108.04
95.32
83.95
72.93
61.45
49.33
37.09
25.68
16.03
8.57
3.05
-1.33
-5.45
-9.91
-14.80
-19.70
-24.00
-27.19
-29.09
-29.92
-30.10
-30.14
-30.41
-31.10
-32.19
-33.49
-34.77
-35.83
-36.60
-37.16
-37.64
-38.16
-38.74
-39.23
-39.39
-38.95
-37.80
-35.98
-33.80
-31.63
-29.88
-28.77
-28.33
-28.42
-28.75
-29.03
-29.00
-28.51
-27.53
-26.20
-24.85
-23.93
-23.89
-24.93
-26.88
-29.19
-31.17
-32.31
-32.55
-32.27
-32.10
-32.54
-33.62
-34.92
-35.85
-35.93
-35.20
-34.13
-33.39
-33.48
