1513745989.00
64.000000
-0.00
-0.00
-0.00
-0.00
-0.00
-0.00
-0.00
-0.00
-0.00
-0.00
0.00
0.01
0.01
-0.00
-0.03
-0.05
-0.05
0.00
0.13
0.36
0.66
1.01
1.37
1.72
2.06
2.40
2.79
3.24
3.80
4.42
5.06
5.66
6.20
6.68
7.15
7.68
8.31
9.14
10.09
11.04
11.88
12.56
13.14
13.76
14.65
15.96
17.91
20.32
22.90
25.38
27.58
29.57
31.68
34.32
37.81
42.54
48.15
54.10
59.83
64.97
69.58
74.14
79.34
85.71
93.76
103.00
112.62
121.73
129.77
136.75
143.30
150.75
157.77
166.64
177.95
191.79
206.97
220.57
228.25
225.36
208.53
176.87
132.76
80.05
23.07
-34.94
-92.44
-149.16
-205.23
-260.37
-313.74
-363.87
-409.83
-450.91
-486.50
-515.74
-537.23
-549.22
-549.96
-538.37
-514.21
-478.67
-433.88
-382.45
-327.02
-269.84
-212.63
-156.66
-102.95
-52.37
-5.90
35.58
71.43
101.35
125.50
144.38
158.69
169.15
176.37
180.75
182.57
182.07
179.51
175.23
169.65
163.18
156.15
148.81
141.30
133.69
126.02
118.33
110.69
103.16
95.80
88.68
81.83
75.25
68.95
62.95
57.25
51.86
46.78
42.03
37.58
33.45
29.61
26.07
22.81
19.83
17.13
14.69
12.52
10.60
8.92
7.46
6.21
5.16
4.28
3.55
2.95
2.48
2.11
1.82
1.60
1.45
1.34
1.28
1.25
1.25
1.27
1.31
1.36
1.43
1.52
1.63
1.75
1.90
2.07
2.26
2.48
2.73
3.00
3.31
3.66
4.04
4.46
4.92
5.42
5.97
6.56
7.20
7.88
8.62
9.41
10.25
11.14
12.09
13.10
14.16
15.29
16.46
17.69
18.95
20.23
21.55
22.93
24.37
25.85
27.28
28.52
29.36
29.61
29.13
27.84
25.73
22.86
19.30
15.05
10.12
4.57
-1.55
-8.06
-14.67
-21.06
-26.84
-31.74
-35.64
-38.57
-40.74
-42.30
-43.30
-43.54
-42.73
-40.52
-36.81
-31.95
-26.66
-21.93
-18.56
-16.94
-16.78
-17.24
-17.37
-16.53
-14.81
-13.06
-12.45
-13.94
-17.71
-22.95
-28.06
-31.43
-32.15
-30.63
-28.42
-27.41
-29.12
-34.04
-41.51
-49.98
-57.59
-62.44
-63.04
-58.59
-49.10
-36.16
-23.07
-14.07
-12.62
-19.63
-32.29
-44.77
-50.43
-44.02
-23.96
7.66
46.69
89.18
132.65
175.67
216.86
250.40
270.02
270.52
249.93
210.34
157.35
98.06
39.11
-14.33
-58.80
-91.69
-111.95
-120.09
-117.96
-107.74
-90.71
-66.61
-34.52
5.29
50.23
94.67
131.74
155.89
164.86
159.74
143.50
118.74
86.34
45.88
-3.16
-59.80
-120.37
-178.30
-225.73
-255.65
-264.21
-252.25
-224.75
-188.85
-151.04
-114.66
-79.62
-44.08
-7.68
26.26
50.88
59.01
47.68
21.43
-7.98
-26.13
-22.30
5.35
49.05
95.39
131.82
152.16
157.93
155.75
152.29
150.76
150.11
147.43
140.61
129.82
116.76
102.58
86.71
66.96
41.45
10.40
-23.40
-55.69
-83.00
-104.13
-120.33
-133.59
-145.06
-153.97
-158.29
-155.81
-145.06
-125.53
-97.24
-61.00
-18.93
24.33
61.38
83.52
83.80
60.49
18.62
-31.01
-75.55
-104.21
-111.39
-97.12
-65.50
-22.19
27.39
78.54
126.98
167.90
195.96
206.01
194.40
160.58
107.53
41.87
-27.52
-91.04
-140.49
-171.12
-183.21
-182.47
-178.23
-180.24
-194.52
-220.79
-252.55
-280.33
-296.05
-296.52
-283.95
-263.41
-239.34
-213.10
-183.04
-146.58
-102.86
-54.45
-6.88
33.32
61.58
77.23
83.86
87.87
95.44
109.66
128.62
146.25
155.11
150.44
132.76
108.24
86.29
75.75
81.86
105.01
141.73
186.79
234.95
281.78
323.44
356.25
376.46
380.79
367.52
337.74
295.52
247.12
199.31
157.24
123.03
95.27
69.61
40.00
0.65
-52.20
-118.39
-192.79
-265.91
-325.85
-361.75
-366.90
-340.94
-290.26
-226.33
-162.65
-110.95
-78.19
-64.98
-66.26
-73.68
-79.07
-77.35
-67.73
-53.01
-37.22
-23.61
-13.40
-6.41
-2.34
-1.47
-4.52
-11.29
-19.92
-26.87
-28.42
-22.24
-8.61
9.64
28.62
44.92
57.10
65.53
71.87
77.79
84.22
91.14
97.83
103.60
108.06
111.39
114.03
116.62
119.72
123.56
127.98
132.05
134.49
133.77
128.87
119.51
106.25
90.15
72.09
52.51
31.22
7.96
-17.22
-43.53
-69.66
-94.20
-116.03
-134.55
-149.30
-159.71
-164.79
-163.56
-155.60
-141.69
-124.09
-105.87
-90.14
-78.80
-72.22
-69.21
-67.81
-66.27
-63.54
-59.64
-55.22
-51.13
-47.88
-45.58
-43.95
-42.57
-41.12
-39.19
-36.40
-32.26
-26.50
-19.33
-11.66
-5.08
-1.07
-0.43
-2.59
-5.84
-7.91
-7.12
-3.18
2.72
8.49
12.37
13.71
13.46
13.35
15.04
19.19
25.17
31.65
37.31
41.71
45.17
48.55
52.36
56.50
60.23
62.57
62.91
61.10
57.59
53.03
48.07
43.23
38.72
34.70
31.23
28.48
26.62
25.89
26.33
27.85
30.21
33.09
36.39
40.06
44.12
48.24
51.70
53.50
52.72
49.24
43.87
38.39
34.74
34.51
38.12
44.87
53.24
61.37
67.74
71.09
70.54
65.36
55.23
40.45
22.19
2.48
-16.61
-33.52
-47.92
-60.34
-71.67
-82.20
-91.22
-97.39
-99.35
-96.95
-91.37
-85.11
-81.14
-82.06
-89.51
-103.60
-123.07
-145.17
-166.44
-183.24
-192.97
-194.77
-189.87
-181.34
-172.86
-167.58
-166.50
-168.14
-168.93
-164.75
-152.76
-132.91
-108.52
-85.04
-68.04
-60.55
-61.62
-66.39
-68.07
-60.76
-41.46
-11.14
26.30
65.73
103.10
136.61
166.87
196.06
226.23
258.18
290.52
320.02
342.39
353.59
351.25
335.77
310.58
281.11
253.08
230.34
213.51
199.82
184.47
162.52
130.53
87.53
34.89
-23.61
-81.97
-131.91
-163.97
-170.43
-148.61
-103.52
-46.85
6.76
45.33
63.52
62.93
49.01
26.78
-1.12
-33.58
-68.48
-101.62
-128.01
-145.10
-155.07
-163.66
-176.28
-193.73
-211.07
-220.14
-214.40
-192.70
-159.74
-123.58
-91.93
-70.04
-60.08
-62.19
-74.97
-95.04
-116.46
-131.13
-131.23
-111.95
-73.79
-22.66
32.07
80.84
116.78
136.85
141.31
131.99
110.84
79.27
38.93
-6.95
-53.14
-93.29
-122.19
-137.79
-142.00
-138.98
-132.66
-124.68
-114.36
-100.74
-84.58
-69.31
-59.33
-57.39
-62.45
-69.84
-73.43
-68.15
-52.03
-26.22
6.02
40.95
75.39
107.30
135.75
160.47
181.67
199.31
212.97
221.92
225.67
224.52
219.79
213.32
206.40
199.14
190.36
178.94
164.95
149.90
135.71
122.98
110.40
95.26
75.76
52.33
27.95
6.23
-10.80
-23.80
-35.56
-48.67
-63.94
-79.88
-94.01
-104.50
-111.08
-114.69
-116.12
-115.40
-111.94
-105.58
-97.28
-89.13
-83.27
-80.81
-81.09
-81.81
-79.96
-73.03
-60.22
-42.91
-24.57
-9.53
-1.14
-0.55
-6.15
-14.70
-22.88
-28.61
-31.51
-32.17
-31.58
-30.45
-29.27
-27.85
-24.97
-17.77
-2.56
23.36
59.62
101.54
141.38
170.97
184.95
182.30
165.89
140.67
111.45
82.33
56.67
37.70
28.04
28.53
37.10
48.91
58.07
59.66
51.56
34.57
11.50
-14.19
-39.77
-63.76
-85.94
-106.39
-124.74
-139.18
-146.68
-143.91
-128.72
-101.50
-65.46
-25.90
11.64
42.98
66.38
82.24
92.14
97.88
100.77
102.00
102.66
104.02
107.11
112.26
118.63
124.31
127.09
125.32
119.11
110.38
102.35
98.35
100.39
108.41
120.17
131.99
139.53
139.16
128.83
109.20
84.03
59.13
40.29
30.37
27.92
27.64
23.42
11.59
-7.00
-27.56
-44.19
-52.82
-52.89
-46.55
-37.00
-26.82
-17.77
-11.54
-10.16
-15.76
-29.09
-48.86
-72.02
-95.41
-117.34
-138.01
-158.51
-178.99
-197.84
-212.08
-219.52
-220.56
-218.75
-219.17
-225.46
-237.59
-251.12
-259.16
-255.03
-234.98
-199.06
-150.61
-94.90
-37.58
16.05
61.78
96.60
119.30
130.36
131.71
126.07
116.10
104.11
91.94
81.31
73.47
68.88
66.79
65.42
63.08
59.37
55.96
55.76
61.18
72.15
85.57
96.74
101.80
100.32
95.68
93.44
98.18
111.07
129.20
147.23
160.16
165.21
162.59
154.11
141.81
126.64
108.55
87.18
62.64
35.88
8.07
-19.92
-48.23
-77.63
-108.75
-140.89
-171.14
-194.97
-207.68
-206.96
-194.16
-174.09
-152.59
-133.55
-117.08
-100.14
-79.17
-53.20
-25.44
-2.12
10.23
7.52
-10.86
-42.88
-85.01
-133.02
-181.54
-223.71
-251.58
-258.01
-238.91
-194.48
-129.03
-49.43
36.33
120.04
193.38
248.21
277.68
277.67
248.40
194.76
125.67
51.83
-16.44
-71.27
-108.27
-126.55
-127.56
-113.38
-85.72
-45.92
3.68
58.14
109.57
148.53
167.30
162.96
138.67
102.29
63.27
29.22
4.25
-11.11
-18.93
-22.74
-27.02
-36.67
-56.50
-89.92
-137.45
-195.62
-257.20
-312.91
-353.66
-373.46
-370.74
-348.58
-313.19
-271.69
-230.02
-191.69
-157.82
-127.60
-99.32
-70.87
-39.79
-3.54
39.94
90.99
147.17
203.02
251.48
286.04
303.07
303.04
289.91
269.43
246.94
226.07
208.15
192.64
177.94
162.26
144.77
126.40
109.99
99.60
98.94
109.68
130.39
156.74
182.72
202.45
211.55
208.10
192.70
168.05
138.09
106.80
77.14
50.31
25.79
1.54
-24.93
-55.54
-90.58
-127.75
-161.79
-185.03
-189.54
-170.14
-127.64
-69.75
-9.50
39.10
65.79
67.19
46.88
12.87
-25.81
-61.87
-90.72
-110.23
-119.90
-120.35
-113.16
-100.89
-86.78
-74.10
-65.26
-61.11
-60.87
-62.53
-63.46
-61.37
-54.90
-44.10
-30.21
-15.10
-0.42
13.03
25.42
37.52
49.89
62.52
74.62
85.14
93.25
98.72
101.97
103.76
105.06
106.64
109.01
112.29
116.27
120.48
124.51
128.31
132.16
136.48
140.97
144.24
143.54
135.49
117.32
88.03
49.12
4.18
-42.01
-84.86
-120.80
-147.58
-163.99
-169.51
-164.26
-149.11
-126.07
-98.21
-69.34
-43.21
-22.76
-9.70
-4.29
-5.71
-12.40
-22.58
-34.52
-46.68
-57.83
-66.94
-73.35
-76.74
-77.35
-75.85
-73.20
-70.22
-67.36
-64.65
-61.99
-59.89
-59.74
-63.75
-73.79
-90.17
-110.66
-130.80
-145.66
-151.92
-149.71
-142.64
-136.19
-134.85
-139.77
-147.86
-153.01
-148.76
-131.02
-99.76
-58.67
-13.67
29.25
65.70
93.53
113.02
126.47
137.80
151.36
170.62
196.33
225.44
251.51
266.76
265.16
244.66
207.98
161.20
111.27
63.74
21.59
-14.50
-45.18
-71.24
-93.24
-111.34
-125.59
-136.07
-142.72
-145.31
-143.39
-136.93
-126.75
-115.29
-106.51
-105.00
-114.27
-134.76
-162.85
-191.26
-211.44
-216.22
-202.25
-170.71
-126.85
-78.31
-33.24
1.38
21.30
25.87
18.26
4.28
-9.53
-18.36
-20.62
-17.64
-11.90
-4.61
5.44
21.10
44.47
74.69
107.16
134.94
151.83
154.86
145.50
128.71
111.04
98.50
95.25
103.21
121.99
149.14
180.29
210.02
233.17
246.52
250.00
246.54
240.74
236.43
234.99
234.52
230.84
219.46
197.71
166.04
127.97
89.06
55.02
30.10
15.81
10.79
11.39
12.88
11.00
3.14
-10.96
-29.54
-49.57
-67.89
-82.09
-91.03
-94.99
-95.36
-94.41
-94.91
-99.93
-112.56
-135.37
-169.58
-213.77
-263.17
-309.55
-342.90
-354.12
-338.18
-296.27
-235.79
-168.03
-104.24
-52.30
-15.04
8.72
21.84
26.41
22.91
11.16
-7.85
-30.54
-51.14
-63.43
-63.33
-50.37
-27.53
0.23
28.13
52.87
72.92
87.83
97.52
101.77
100.05
91.63
75.74
52.13
21.73
-12.57
-46.04
-73.13
-89.16
-91.74
-81.02
-59.10
-29.02
5.48
39.97
69.49
89.68
98.81
99.08
96.43
97.54
106.17
120.53
133.46
135.80
120.86
87.91
42.50
-6.22
-49.90
-84.67
-112.11
-136.82
-162.49
-189.23
-213.70
-232.19
-244.12
-253.31
-265.90
-285.95
-311.91
-336.32
-349.58
-344.97
-322.25
-287.33
-248.75
-213.36
-183.76
-158.81
-135.67
-112.00
-86.84
-60.14
-32.29
-3.55
25.83
55.58
85.27
114.37
142.66
170.33
198.21
227.80
261.39
301.51
349.69
404.92
462.64
515.01
553.06
569.85
563.11
536.35
497.31
454.92
416.22
384.74
360.74
342.88
329.80
320.84
315.62
313.22
311.70
308.41
300.90
287.81
269.27
246.76
222.24
197.46
173.40
150.32
128.02
106.44
86.04
67.78
52.90
42.41
36.67
35.24
37.00
40.51
44.48
47.99
50.67
52.53
53.67
54.11
53.64
51.88
48.39
42.84
35.14
25.18
13.25
-0.01
-13.66
-26.75
-38.58
-48.80
-57.45
-64.97
-72.24
-80.02
-88.61
-97.75
-106.82
-115.15
-122.32
-128.37
-133.86
-140.22
-148.47
-158.63
-169.64
-179.84
-187.85
-193.20
-196.51
-199.66
-206.85
-221.33
-244.05
-273.45
-306.78
-341.40
-375.78
-409.39
-443.10
-482.02
-530.00
-588.37
-655.58
-728.29
-801.80
-869.55
-922.60
-952.78
-960.24
-947.66
-918.83
-877.22
-826.06
-768.28
-706.00
-639.46
-570.56
-509.54
-464.29
-437.09
-423.93
-418.26
-415.02
-412.19
-409.08
-360.05
-246.05
-78.67
105.33
269.47
395.59
482.92
531.75
558.11
571.90
570.49
551.57
517.37
475.30
433.61
397.57
368.99
348.49
333.76
316.84
292.70
261.17
226.50
194.08
167.44
147.68
135.18
128.73
123.61
116.70
107.41
97.41
88.81
82.57
78.42
76.14
76.56
79.13
83.48
89.26
96.17
103.80
111.36
117.95
123.40
131.54
145.78
167.76
196.23
227.81
258.64
285.56
306.98
323.15
341.66
370.22
412.47
466.48
526.71
588.09
648.12
706.19
761.29
817.64
876.33
933.42
981.82
1015.87
1034.98
1042.70
1043.07
988.89
852.06
635.61
376.99
126.63
-79.26
-229.47
-332.46
-405.57
-461.95
-506.85
-535.92
-542.25
-522.20
-477.23
-412.55
-336.12
-257.85
-187.00
-128.33
-83.82
-54.06
-39.05
-37.76
-47.76
-65.74
-88.53
-113.26
-133.82
-143.81
-139.96
-124.23
-103.24
-85.85
-79.88
-89.36
-113.25
-144.68
-174.35
-195.06
-204.96
-207.77
-210.80
-222.28
-248.68
-292.80
-352.40
-420.28
-485.26
-534.47
-556.42
-545.08
-503.05
-442.02
-380.16
-336.58
-324.07
-343.97
-385.73
-431.24
-462.47
-467.98
-445.37
-399.96
-340.92
-276.89
-212.87
-150.29
-88.82
-28.81
28.80
84.74
142.33
206.13
279.22
360.34
442.63
515.29
567.24
588.93
577.62
542.04
498.76
462.12
438.33
423.63
411.56
395.83
371.40
336.43
290.67
234.71
170.71
104.05
43.60
-0.44
-20.85
-17.13
4.30
32.32
55.44
66.30
64.32
54.58
44.28
38.40
37.84
40.60
43.62
44.38
41.30
33.70
21.28
4.05
-17.74
-43.54
-72.22
-102.50
-133.78
-166.97
-204.52
-249.86
-305.70
-371.99
-444.30
-513.59
-568.49
-599.06
-600.57
-574.90
-529.50
-473.81
-415.62
-358.81
-303.18
-245.97
-183.83
-114.25
-36.71
46.83
131.37
209.46
272.58
313.92
330.66
325.09
303.57
274.20
243.96
217.11
195.07
177.25
162.42
149.17
136.03
121.53
104.36
83.83
60.06
33.90
6.23
-22.35
-52.39
-85.92
-125.93
-175.15
-234.14
-299.81
-364.85
-419.31
-453.35
-460.96
-442.37
-403.65
-353.75
-301.27
-251.97
-208.09
-169.68
-135.65
-105.43
-79.32
-57.59
-39.19
-22.17
-4.55
14.67
34.88
55.19
74.42
91.54
106.22
119.43
132.41
145.67
158.44
168.42
173.84
173.43
166.58
149.09
119.01
78.52
33.50
-6.02
-38.38
-64.18
-84.18
-100.20
-112.70
-121.04
-124.51
-123.04
-117.50
-109.76
-100.82
-91.22
-81.36
-71.26
-60.39
-48.27
-34.91
-20.90
-7.54
4.60
15.27
24.22
31.39
36.93
40.97
43.40
43.85
41.66
36.83
29.70
20.73
10.56
-0.05
-10.36
-19.84
-28.18
-35.37
-41.29
-45.79
-48.83
-50.38
-50.47
-49.16
-46.58
-42.93
-38.44
-33.28
-27.55
-21.39
-14.93
-8.33
-1.88
4.18
9.49
13.74
16.62
17.85
17.25
14.69
10.16
3.71
-4.43
-13.99
-24.56
-35.68
-46.85
-57.55
-67.31
-75.71
-82.48
-87.44
-90.57
-91.93
-91.66
-89.95
-86.99
-82.99
-78.17
-72.79
-67.12
-61.45
-56.02
-50.95
-46.27
-41.84
-37.49
-33.03
-28.32
-23.35
-18.16
-12.80
-7.19
-1.14
5.70
13.69
23.07
33.85
45.73
58.20
70.71
82.94
94.83
106.71
119.02
132.14
146.04
160.28
174.16
186.93
198.25
208.23
217.56
227.11
237.74
250.30
265.02
281.21
297.25
311.00
320.42
324.50
323.57
319.40
314.80
312.26
313.01
316.51
320.93
323.85
323.32
318.37
309.41
299.03
290.47
286.48
288.11
294.46
302.77
309.59
311.64
306.92
297.56
286.40
275.51
264.92
253.49
240.19
225.46
210.97
198.62
194.87
203.45
223.97
251.44
279.17
302.11
318.67
330.10
338.54
353.88
382.70
425.77
477.17
527.79
570.32
602.04
624.91
643.32
672.88
725.27
803.41
899.11
997.19
1082.83
1146.63
1186.50
1137.05
962.37
663.96
287.15
-101.48
-446.97
-722.07
-923.82
-1061.72
-1149.83
-1191.32
-1189.92
-1152.94
-1093.01
-1025.12
-961.36
-909.52
-871.60
-846.79
-825.03
-798.07
-762.65
-721.85
-682.61
-648.01
-620.82
-600.98
-586.87
-571.16
-548.33
-517.17
-481.70
-448.45
-421.64
-401.27
-382.20
-357.89
-321.79
-272.63
-214.55
-154.78
-101.30
-57.21
-24.83
-6.05
-3.30
-17.43
-46.37
-84.02
-121.27
-149.76
-164.78
-167.57
-162.80
-155.37
-147.47
-138.14
-125.12
-107.06
-85.58
-63.87
-45.73
-33.04
-25.36
-20.59
-16.17
-12.71
-10.70
-10.86
-11.80
-11.42
-7.36
1.64
14.67
29.39
42.91
53.47
60.79
68.42
80.82
101.46
130.96
166.52
203.58
237.66
266.37
289.57
311.96
339.33
376.57
425.99
486.84
555.81
627.61
695.20
731.75
714.85
633.78
497.31
331.22
165.88
23.82
-85.63
-164.27
-219.55
-256.36
-276.92
-281.99
-273.61
-256.54
-237.26
-221.45
-212.26
-209.71
-209.48
-206.34
-196.68
-180.16
-159.62
-139.38
-123.09
-112.57
-107.47
-104.60
-100.36
-92.24
-79.82
-64.76
-49.75
-37.13
-28.17
-22.73
-19.19
-15.58
-10.54
-3.79
3.85
10.76
15.42
16.47
13.72
7.79
-0.20
-9.03
-17.74
-25.86
-33.61
-40.71
-48.12
-56.17
-64.68
-72.87
-79.63
-83.95
-85.28
-84.13
-81.75
-79.78
-79.36
-80.79
-83.25
-85.15
-85.87
-83.58
-78.13
-70.47
-62.25
-55.10
-50.64
-50.02
-53.54
-59.79
-65.01
-64.00
-51.53
-25.13
12.87
55.06
91.38
113.06
116.28
103.73
82.40
59.78
40.41
24.33
8.55
-9.88
-31.73
-55.41
-78.40
-99.09
-117.03
-131.80
-141.81
-143.82
-134.15
-111.48
-78.49
-41.35
-7.54
17.22
30.72
34.23
30.87
24.12
16.30
8.79
2.91
0.36
3.30
13.62
32.17
55.23
78.60
97.09
105.89
102.11
85.81
60.16
30.44
2.07
-21.31
-38.41
-50.19
-58.50
-64.06
-65.83
-61.47
-48.70
-26.81
2.98
38.04
74.97
110.07
139.98
161.96
174.29
177.18
173.02
166.31
162.24
164.50
173.36
185.36
194.68
195.66
185.12
163.15
132.53
97.05
59.94
23.21
-12.01
-44.84
-74.35
-99.56
-120.19
-136.74
-150.38
-162.13
-172.22
-179.95
-184.22
-184.79
-182.74
-180.61
-181.07
-185.59
-193.31
-200.83
-203.48
-197.24
-180.68
-155.61
-126.57
-98.89
-76.82
-62.18
-54.23
-50.61
-48.39
-45.13
-39.11
-29.48
-16.01
1.10
21.46
44.79
70.82
99.23
129.06
158.62
185.38
206.62
220.31
225.68
223.50
215.58
204.26
191.69
179.43
168.05
157.07
145.08
130.24
111.29
88.44
63.82
40.93
23.44
13.82
12.42
17.53
25.89
33.89
38.47
38.10
33.16
25.88
19.61
17.42
20.86
28.83
37.84
42.92
39.35
24.22
-2.50
-37.63
-75.67
-109.98
-134.86
-146.93
-146.06
-134.89
-117.30
-96.73
-74.72
-51.08
-24.91
3.82
33.48
61.12
83.66
99.42
108.42
112.13
112.04
108.86
102.23
91.44
76.33
57.75
37.61
17.94
0.50
-13.87
-24.96
-33.10
-38.98
-43.43
-47.54
-52.22
-58.18
-65.37
-73.12
-80.24
-85.53
-88.29
-88.47
-86.82
-84.35
-82.14
-80.66
-79.67
-78.36
-75.74
-71.42
-65.64
-59.39
-53.72
-49.53
-47.28
-47.20
-49.52
-54.09
-60.39
-67.09
-72.64
-75.84
-76.72
-76.64
-77.42
-80.09
-83.46
-84.30
-78.16
-61.44
-32.78
6.19
51.52
98.47
142.84
182.30
216.16
245.06
269.71
290.12
305.30
313.55
313.49
304.55
287.56
264.04
235.72
203.65
168.22
129.67
88.63
46.62
5.26
-34.33
-72.43
-110.32
-149.30
-189.32
-228.04
-261.51
-285.15
-295.82
-292.52
-276.88
-252.21
-222.53
-191.79
-163.03
-138.54
-119.32
-105.32
-95.23
-87.01
-78.41
-67.72
-54.48
-39.22
-23.44
-8.52
4.55
15.81
25.97
35.71
45.23
53.43
58.49
58.12
50.96
37.09
18.45
-1.55
-19.18
-31.22
-36.30
-34.79
-28.74
-20.56
-12.02
-3.57
5.65
16.49
29.02
41.55
51.38
55.66
53.04
44.30
32.15
20.39
12.30
10.01
13.76
22.62
35.04
49.68
66.00
84.02
104.12
126.00
148.47
169.30
186.12
197.41
203.18
205.14
205.64
206.79
209.44
213.37
217.74
221.96
225.86
229.24
231.24
229.73
221.92
205.13
178.07
141.33
97.14
48.62
-1.25
-49.76
-94.77
-134.26
-166.57
-190.67
-206.64
-215.87
-220.52
-222.93
-224.51
-225.62
-225.50
-223.01
-217.14
-207.25
-193.16
-174.80
-152.47
-126.82
-99.26
-71.80
-46.62
-25.55
-9.40
1.89
9.10
12.86
13.49
10.94
5.35
-2.39
-10.67
-17.41
-21.19
-21.59
-19.45
-16.10
-12.57
-9.07
-4.96
0.35
6.94
13.98
20.34
25.23
28.85
32.13
36.02
40.80
45.53
48.74
49.24
47.20
44.25
42.56
43.59
46.75
49.61
48.38
39.42
20.53
-8.26
-45.15
-88.07
-135.62
-186.97
-240.19
-290.98
-332.56
-357.24
-359.09
-336.31
-292.19
-233.39
-166.81
-96.94
-25.91
44.16
108.78
160.63
192.17
198.95
182.24
149.21
111.41
81.93
70.29
77.94
98.10
122.02
143.95
162.63
179.40
195.75
211.69
225.49
235.04
238.47
236.12
229.89
221.98
214.02
206.58
199.16
190.28
178.47
162.19
141.69
118.38
94.05
70.00
46.40
21.91
-6.75
-37.84
-71.77
-108.35
-146.66
-185.16
-222.17
-256.04
-285.81
-311.15
-332.34
-351.10
-369.33
-389.19
-412.81
-441.28
-473.85
-507.34
-536.55
-555.70
-560.96
-551.29
-528.84
-498.25
-464.71
-432.27
-402.89
-376.43
-351.63
-327.39
-302.91
-277.64
-251.05
-222.36
-190.64
-155.18
-115.91
-73.66
-30.46
11.50
50.25
84.74
115.07
142.32
167.97
193.31
218.85
244.11
268.00
289.40
307.66
322.97
336.20
348.61
361.63
376.78
395.71
419.82
449.39
482.51
514.54
538.60
547.45
535.84
502.34
449.60
383.07
309.03
232.90
158.78
89.78
28.81
-21.18
-57.74
-79.77
-88.07
-85.04
-73.70
-56.58
-35.46
-11.80
12.27
33.39
47.66
52.19
46.88
35.07
22.62
15.43
16.89
26.39
40.00
52.80
61.45
65.80
68.45
73.00
81.67
93.82
106.00
113.41
112.04
100.19
78.72
49.93
16.58
-18.57
-52.18
-79.79
-96.58
-99.62
-90.67
-77.17
-69.92
-77.96
-103.17
-138.41
-170.24
-185.76
-179.21
-154.83
-123.94
-98.41
-84.37
-80.02
-78.56
-73.67
-64.15
-54.23
-49.86
-53.78
-62.74
-68.93
-65.06
-49.40
-27.68
-10.70
-8.79
-26.47
-60.63
-102.20
-140.57
-167.50
-179.39
-176.73
-162.32
-139.16
-108.64
-70.77
-24.71
29.80
90.82
152.82
207.01
243.81
256.68
246.91
223.50
200.86
193.16
209.05
248.65
304.42
364.58
417.41
455.51
474.48
472.61
450.19
410.09
358.42
303.74
254.48
215.76
189.43
171.80
156.52
137.42
111.14
78.09
41.48
5.35
-37.85
-89.57
-146.32
-199.43
-240.22
-264.99
-276.39
-281.22
-286.51
-295.94
-305.75
-309.39
-298.42
-267.20
-215.51
-148.93
-77.04
-10.14
44.07
84.14
108.48
119.54
121.07
116.70
109.27
100.85
92.83
86.01
81.41
78.66
76.76
73.62
66.96
55.72
40.70
24.26
8.93
-3.40
-12.74
-19.93
-26.17
-32.07
-37.58
-42.91
-49.48
-59.91
-76.48
-99.48
-125.83
-150.24
-167.53
-175.07
-174.14
-169.12
-165.35
-166.77
-174.51
-187.09
-201.85
-216.71
-231.04
-245.49
-261.04
-277.67
-293.53
-304.69
-305.83
-291.64
-258.34
-204.61
-131.75
-43.34
55.08
156.02
250.30
327.84
379.66
400.36
390.08
354.87
304.65
249.91
198.35
153.11
112.94
74.08
33.06
-11.15
-56.09
-96.65
-126.97
-142.97
-143.99
-133.03
-115.56
-97.15
-82.09
-72.56
-69.35
-72.68
-82.80
-99.52
-121.09
-143.51
-161.03
-168.02
-161.22
-141.40
-113.11
-82.91
-56.61
-36.93
-22.78
-10.53
3.48
20.64
39.25
55.46
65.51
67.47
62.02
51.53
38.68
25.22
11.75
-1.70
-14.64
-25.23
-30.30
-25.93
-8.71
23.01
67.97
121.52
176.04
222.49
252.51
260.56
245.17
208.94
157.41
97.38
35.45
-22.53
-71.67
-108.04
-129.24
-135.41
-129.84
-118.53
-108.25
-103.73
-105.22
-108.24
-105.74
-91.64
-64.32
-27.96
8.74
35.66
44.45
30.47
-6.68
-63.51
-133.00
-205.09
-267.89
-309.96
-323.12
-304.90
-259.38
-196.21
-127.95
-66.93
-22.26
2.04
7.88
2.46
-3.85
-0.77
18.35
54.14
101.12
150.10
191.93
220.78
235.24
237.55
231.58
220.84
207.68
193.41
179.01
165.68
155.03
148.75
148.06
153.38
164.24
179.64
198.37
219.09
240.28
259.65
273.96
279.28
271.90
249.63
212.86
164.82
110.61
55.85
4.99
-39.68
-78.30
-113.08
-147.84
-187.24
-235.59
-294.93
-362.99
-432.21
-490.81
-525.99
-528.23
-495.04
-432.30
-352.86
-273.06
-208.35
-169.73
-161.36
-180.00
-216.25
-257.17
-289.90
-305.01
-298.58
-272.15
-230.66
-179.60
-123.01
-63.50
-3.51
53.17
101.46
136.53
156.28
162.98
162.80
163.32
170.27
185.26
205.36
224.84
237.80
240.57
232.88
217.40
198.29
179.27
162.31
147.16
132.18
115.72
97.56
79.58
64.85
56.15
54.42
58.59
66.70
77.45
90.71
106.82
125.36
144.35
161.26
174.27
183.04
188.13
189.09
183.04
164.92
130.32
79.22
18.30
-40.24
-83.23
-102.27
-97.67
-78.19
-56.97
-45.56
-49.25
-65.71
-87.37
-105.90
-116.44
-119.61
-120.00
-123.00
-131.61
-144.91
-159.09
-169.76
-174.08
-171.48
-163.27
-151.47
-138.12
-124.91
-113.05
-102.93
-93.88
-84.37
-72.80
-58.64
-42.90
-27.76
-15.01
-4.44
6.64
22.28
45.32
75.21
107.33
134.69
150.61
151.39
137.53
113.17
84.55
57.96
38.08
26.88
23.57
25.09
27.31
26.29
19.63
7.36
-8.00
-22.18
-30.24
-27.55
-10.86
20.81
65.17
115.82
162.55
193.35
198.32
174.21
127.25
72.28
27.53
7.14
14.91
42.69
74.40
93.67
91.13
67.76
32.85
-1.52
-26.39
-39.09
-42.63
-42.56
-43.29
-46.24
-50.40
-54.31
-58.05
-63.81
-74.77
-92.81
-116.37
-140.04
-156.68
-160.99
-152.74
-137.40
-123.23
-116.45
-117.30
-119.76
-115.20
-97.96
-69.11
-35.89
-7.23
11.74
22.63
32.23
47.61
71.15
98.64
121.67
132.38
127.81
111.15
89.62
70.61
58.26
52.26
49.41
46.53
42.90
41.08
45.35
59.21
82.72
111.62
138.53
155.42
156.31
138.93
104.84
58.91
8.50
-37.40
-69.57
-81.25
-71.13
-45.34
-15.89
4.29
7.66
-3.71
-19.38
-26.56
-17.90
4.09
28.48
42.44
38.48
18.10
-10.13
-36.29
-54.71
-66.23
-76.44
-91.28
-113.42
-141.02
-169.11
-192.41
-207.72
-214.72
-215.41
-212.67
-208.74
-204.41
-198.70
-189.54
-174.72
-152.82
-123.90
-89.59
-52.64
-16.13
17.54
47.60
75.12
102.67
132.90
167.06
203.92
239.92
270.63
292.63
304.91
308.84
306.93
300.67
289.25
269.73
239.16
197.39
148.72
101.34
64.20
43.18
38.24
43.08
47.63
41.88
19.60
-19.79
-71.33
-126.52
-175.84
-211.04
-226.76
-221.45
-197.67
-161.65
-122.13
-88.30
-67.50
-63.14
-73.75
-93.48
-114.00
-127.28
-128.27
-116.47
-95.71
-72.51
-53.51
-43.49
-44.36
-55.29
-73.59
-95.64
-117.54
-135.71
-147.44
-151.42
-148.26
-140.46
-131.57
-125.13
-123.28
-125.95
-130.86
-134.34
-132.59
-123.03
-105.12
-80.32
-51.48
-21.76
6.50
32.28
55.90
78.56
101.73
126.76
154.54
185.33
218.57
252.82
285.98
315.66
339.85
357.26
367.56
371.17
368.88
361.54
349.87
334.51
316.17
295.59
273.41
250.01
225.36
198.96
170.08
138.18
103.28
66.33
29.23
-5.55
-35.55
-58.80
-74.23
-81.77
-82.30
-77.61
-70.18
-62.91
-58.64
-59.35
-65.52
-75.95
-88.28
-99.95
-109.25
-115.65
-119.56
-121.66
-122.37
-121.94
-120.85
-120.10
-120.99
-124.37
-129.88
-135.80
-139.64
-139.10
-133.16
-122.24
-107.91
-92.13
-76.65
-62.59
-50.39
-39.96
-30.79
-22.45
-14.83
-8.34
-3.61
-0.98
-0.06
0.24
1.09
3.03
5.49
7.10
6.38
2.63
-3.73
-11.39
-18.69
-24.27
-27.33
-27.81
-26.25
-23.78
-21.84
-21.68
-23.88
-27.79
-31.75
-33.66
-32.17
-27.42
-21.28
-16.55
-15.66
-19.50
-26.79
-34.64
-39.63
-39.11
-32.13
-19.81
-5.17
7.71
14.48
12.07
-0.08
-19.21
-39.57
-53.90
-55.53
-40.55
-9.07
34.79
84.28
131.87
170.92
196.73
206.60
199.74
176.63
138.95
89.49
32.60
-25.44
-76.63
-112.16
-124.93
-112.05
-77.06
-29.82
16.28
49.14
62.62
58.89
47.51
40.46
46.75
68.42
100.46
134.14
162.06
182.08
197.76
215.46
239.46
268.46
295.25
309.94
304.86
278.41
235.82
186.09
137.67
94.34
54.45
12.78
-36.03
-94.70
-162.94
-238.25
-317.44
-396.97
-472.66
-539.10
-590.22
-620.99
-629.06
-615.90
-586.07
-545.59
-499.98
-453.29
-408.04
-365.72
-327.23
-292.61
-260.88
-230.06
-198.02
-163.63
-127.69
-92.74
-61.91
-37.58
-19.97
-7.03
4.80
19.08
37.82
60.80
85.59
108.80
127.49
140.49
148.97
156.39
167.63
187.50
218.60
259.44
303.73
341.29
360.89
354.08
318.36
258.79
186.89
117.30
63.61
35.11
35.35
62.36
110.15
170.36
233.84
291.78
336.63
362.86
367.59
351.04
316.76
271.36
223.12
180.16
148.32
130.05
124.38
127.97
136.38
145.22
150.62
149.63
140.73
124.37
103.21
81.38
62.55
48.20
37.31
27.64
17.93
9.21
3.99
3.95
7.43
8.85
0.88
-22.02
-60.23
-108.23
-156.55
-195.64
-219.34
-226.49
-220.11
-204.92
-184.91
-162.31
-138.05
-112.91
-88.44
-66.61
-48.72
-34.40
-21.56
-7.98
6.98
21.54
32.47
37.11
35.30
29.52
23.77
21.53
24.05
29.93
36.21
39.93
39.23
33.61
23.61
10.34
-4.59
-19.07
-31.21
-39.43
-43.03
-42.58
-39.96
-38.06
-40.08
-48.26
-62.68
-81.59
-101.34
-117.90
-128.46
-132.79
-133.38
-134.33
-139.16
-144.13
-143.47
-131.24
-105.58
-69.94
-30.85
5.81
36.94
62.45
84.11
103.14
119.64
132.55
141.00
145.11
146.06
145.56
145.35
146.63
149.34
152.17
153.14
151.15
146.27
139.50
132.39
126.50
123.06
122.43
124.06
126.39
128.44
129.69
129.81
128.33
124.54
117.44
105.21
89.59
70.73
49.36
26.47
2.83
-21.36
-45.94
-70.47
-94.06
-117.97
-142.95
-168.09
-191.88
-213.50
-233.17
-251.38
-268.01
-282.01
-295.84
-310.63
-325.08
-337.05
-345.66
-352.18
-359.38
-370.51
-388.03
-417.38
-458.36
-503.34
-540.26
-558.38
-552.73
-525.31
-483.45
-404.37
-287.52
-151.19
-21.35
84.38
161.36
212.62
243.29
258.74
264.17
259.39
245.90
227.58
209.02
192.90
179.32
167.14
155.63
144.96
131.98
115.80
98.10
81.84
68.97
59.65
52.96
47.96
44.72
40.97
35.72
29.51
23.91
19.91
17.33
15.28
13.16
10.60
6.16
-0.87
-10.38
-21.00
-31.54
-41.45
-50.76
-59.26
-66.74
-73.51
-79.66
-85.07
-87.73
-85.43
-76.05
-61.24
-41.93
-19.12
6.02
31.99
57.03
81.88
107.44
134.28
162.13
190.57
218.72
245.49
269.54
289.42
307.55
326.97
350.67
380.53
417.45
461.35
511.80
568.51
610.10
620.52
591.03
523.23
425.89
309.73
184.77
60.70
-52.75
-147.53
-216.29
-257.24
-274.07
-273.93
-264.27
-250.49
-236.08
-223.56
-215.37
-211.04
-209.03
-206.85
-202.27
-193.89
-181.42
-166.33
-151.29
-139.49
-132.27
-130.16
-132.47
-137.02
-140.07
-136.63
-122.66
-97.04
-62.98
-26.63
4.55
24.90
32.75
29.24
20.09
10.48
2.76
-3.77
-10.93
-19.75
-29.27
-36.93
-40.27
-38.12
-31.78
-24.01
-18.02
-15.55
-16.49
-18.75
-19.20
-15.20
-5.25
10.54
31.19
55.17
80.39
103.55
119.32
123.40
113.54
91.39
62.35
33.83
12.21
0.42
-2.71
-0.92
2.16
4.46
5.97
7.35
8.78
9.37
7.74
3.06
-4.26
-12.41
-19.27
-22.99
-23.01
-19.78
-14.48
-8.32
-2.23
3.48
9.12
15.05
21.37
27.53
32.60
35.42
34.93
30.35
21.29
8.16
-8.19
-25.15
-41.37
-55.65
-67.02
-75.10
-80.25
-83.62
-86.33
-89.30
-92.78
-96.24
-98.79
-99.56
-98.07
-94.68
-90.60
-86.85
-84.34
-85.17
-88.97
-95.53
-103.76
-110.97
-111.35
-101.70
-80.38
-49.40
-14.55
16.72
38.03
46.84
44.96
36.83
26.75
17.46
9.46
2.14
-4.70
-10.39
-13.54
-12.99
-8.92
-2.54
4.58
10.96
16.08
20.49
25.09
30.64
37.31
44.31
50.08
53.16
52.49
48.00
40.49
31.28
21.76
13.03
5.62
-0.54
-5.72
-10.24
-14.20
-17.55
-20.20
-22.28
-23.91
-25.51
-27.64
-30.76
-35.16
-40.85
-47.67
-55.38
-63.86
-72.69
-81.64
-90.60
-99.43
-108.05
-116.36
-124.32
-131.97
-139.48
-146.55
-152.98
-158.49
-162.71
-165.16
-165.27
-162.38
-155.58
-146.92
-137.17
-126.72
-115.63
-103.68
-90.53
-75.94
-60.01
-43.21
-26.41
-10.01
5.73
20.99
36.34
52.52
69.96
88.50
107.24
124.79
140.10
152.70
162.95
172.11
181.79
193.26
206.93
222.15
237.65
252.29
265.63
278.21
291.44
307.40
328.40
356.67
393.64
438.83
488.78
536.66
573.39
590.34
582.35
549.68
497.82
435.08
369.36
305.74
245.89
189.29
135.03
83.03
33.89
-12.06
-55.50
-98.05
-141.39
-186.14
-231.64
-276.69
-320.45
-363.09
-405.32
-447.15
-486.70
-519.90
-541.38
-546.01
-530.47
-494.03
-438.99
-370.56
-296.74
-227.62
-173.83
-144.04
-142.25
-166.00
-206.63
-251.68
-288.43
-307.36
-304.07
-279.69
-239.82
-192.71
-147.01
-109.62
-84.35
-71.27
-67.55
-69.13
-72.52
-75.62
-77.49
-77.37
-73.70
-64.20
-46.59
-19.87
14.97
55.15
97.10
137.82
175.44
209.48
240.41
269.16
296.95
325.46
356.86
393.36
436.02
483.17
529.73
567.89
589.46
588.89
565.38
523.14
469.33
411.14
353.21
297.05
242.01
187.07
132.25
78.82
28.86
-15.65
-53.33
-83.88
-108.49
-130.07
-152.95
-180.95
-215.42
-253.40
-287.83
-309.84
-312.43
-293.61
-257.41
-212.44
-168.71
-134.62
-115.18
-112.12
-124.70
-150.57
-185.90
-225.08
-260.72
-284.50
-289.14
-270.60
-229.71
-172.27
-107.47
-45.16
7.17
46.17
73.00
91.58
106.31
119.95
132.44
141.42
143.56
136.25
118.66
92.25
60.24
26.91
-3.45
-27.34
-42.77
-49.84
-50.47
-48.03
-46.02
-46.94
-51.41
-58.16
-64.82
-68.99
-69.13
-64.78
-56.55
-45.80
-34.49
-25.06
-20.05
-21.54
-30.20
-44.84
-62.28
-78.31
-88.93
-91.53
-85.43
-71.64
-52.27
-29.70
-6.32
15.76
34.62
48.80
57.71
61.90
63.20
64.03
66.65
72.08
79.87
88.22
94.70
97.00
93.47
83.46
67.44
47.34
26.43
9.03
-0.61
0.29
11.87
31.22
53.23
72.12
83.30
84.69
77.26
64.66
52.01
44.48
45.71
56.98
76.96
102.40
129.16
153.31
171.60
181.36
180.18
165.71
136.26
91.85
35.28
-27.51
-88.21
-137.79
-168.70
-176.81
-162.81
-132.19
-93.95
-58.00
-32.25
-20.46
-21.54
-30.79
-42.14
-50.56
-53.22
-49.55
-40.25
-26.35
-9.12
9.66
27.14
39.81
44.58
40.39
28.97
14.60
2.64
-2.51
1.11
12.30
27.50
42.23
52.78
57.33
56.06
50.49
42.32
32.61
21.52
8.78
-5.56
-20.68
-35.02
-46.98
-55.63
-61.24
-64.90
-67.93
-71.04
-74.00
-76.02
-76.32
-74.75
-71.78
-68.00
-63.59
-58.12
-50.99
-42.11
-32.54
-24.20
-19.23
-18.78
-22.44
-28.37
-34.09
-37.57
-38.02
-35.92
-32.48
-28.87
-25.64
-22.58
-19.06
-14.62
-9.49
-4.69
-1.73
-1.79
-5.22
-11.20
-18.14
-24.32
-28.43
-29.87
-28.61
-25.13
-20.17
-14.74
-9.92
-6.60
-5.28
-5.85
-8.02
-11.64
-17.08
-24.96
-35.48
-47.70
-59.35
-67.59
-70.21
-66.85
-59.17
-50.00
-41.89
-36.02
-31.89
-28.01
-23.11
-16.93
-10.49
-5.51
-3.69
-6.16
-13.50
-25.90
-43.20
-64.62
-87.95
-109.36
-123.78
-126.57
-115.39
-91.35
-58.68
-22.74
12.22
44.77
76.13
108.57
143.18
178.44
210.38
234.15
246.09
245.25
233.60
215.09
194.14
174.31
157.59
144.51
134.66
127.37
122.14
118.76
116.99
116.22
115.44
113.36
108.93
101.67
91.82
80.03
66.88
52.56
36.81
19.31
0.03
-20.34
-40.42
-58.36
-72.26
-80.65
-82.83
-79.04
-70.50
-59.28
-47.92
-38.92
-34.09
-34.12
-38.56
-46.00
-54.72
-63.02
-69.66
-73.75
-74.82
-72.76
-67.92
-61.26
-54.20
-48.41
-45.10
-44.43
-45.33
-45.57
-42.48
-34.08
-20.08
-2.08
16.74
32.74
43.11
46.53
43.59
36.22
26.90
17.77
10.40
5.60
3.70
4.96
9.05
15.72
24.61
35.51
48.15
62.03
75.92
87.80
95.65
97.23
92.33
82.73
71.82
63.30
60.19
63.84
73.89
89.19
105.44
118.32
123.48
118.02
101.90
78.07
51.20
25.33
3.09
-19.14
-45.71
-80.53
-124.18
-172.69
-218.46
-252.62
-268.14
-260.06
-231.28
-186.01
-129.86
-67.61
-2.13
65.37
133.79
189.04
238.37
272.92
287.32
280.54
257.33
226.85
199.01
180.50
172.16
171.00
168.56
159.66
142.77
119.84
94.14
67.78
40.46
9.89
-25.39
-67.77
-116.48
-168.99
-221.52
-269.19
-306.36
-327.42
-328.70
-309.00
-271.20
-218.83
-155.65
-85.24
-11.52
59.94
121.60
165.04
179.11
158.19
107.53
42.63
-17.99
-61.76
-86.23
-96.62
-100.43
-102.66
-104.05
-102.71
-96.99
-87.47
-76.63
-67.32
-61.24
-58.47
-57.74
-56.81
-53.74
-47.86
-40.10
-32.40
-26.53
-23.25
-22.17
-22.21
-21.78
-19.72
-15.75
-10.63
-5.64
-1.85
0.32
1.23
1.58
2.30
3.99
6.78
10.31
13.97
17.27
20.03
22.41
24.61
26.87
29.16
31.26
32.76
33.19
32.33
30.09
26.71
22.45
17.75
12.93
8.32
4.24
0.90
-1.48
-2.87
-3.21
-2.59
-1.05
1.17
3.86
6.89
10.14
13.57
17.14
20.90
24.88
29.25
33.84
38.55
43.39
48.31
53.38
58.58
64.03
69.82
76.18
82.84
89.66
96.63
103.72
110.98
118.41
126.09
134.12
142.67
150.92
158.27
164.55
169.69
173.60
175.82
175.42
170.76
164.67
157.48
149.30
140.41
131.27
122.29
113.76
105.82
98.60
92.34
85.76
78.06
69.21
59.65
49.79
39.59
28.65
16.52
3.05
-14.60
-37.96
-66.12
-96.28
-125.28
-150.70
-171.08
-185.62
-193.48
-200.00
-209.15
-221.40
-234.42
-245.95
-255.62
-264.53
-274.40
-285.28
-305.35
-338.86
-383.06
-429.66
-470.24
-499.74
-516.55
-521.85
-516.09
-512.22
-519.62
-539.77
-567.55
-597.56
-627.93
-659.71
-695.79
-672.65
-561.88
-379.90
-176.06
5.61
146.13
246.02
314.14
347.59
361.75
356.45
331.54
291.75
246.00
201.14
157.88
121.74
90.51
62.71
27.37
-20.90
-77.66
-130.35
-165.61
-175.52
-159.67
-125.69
-82.49
-44.89
-22.54
-16.92
-23.08
-34.59
-47.08
-58.28
-68.13
-74.88
-79.18
-80.61
-77.83
-69.47
-55.39
-37.12
-16.44
4.43
24.65
43.32
59.77
73.24
82.88
88.16
89.08
87.13
83.94
81.29
82.23
88.04
97.27
106.63
113.37
116.18
117.40
119.86
125.45
139.14
162.83
193.91
226.66
256.34
280.31
302.02
325.53
353.49
394.21
451.76
521.75
591.87
647.98
677.60
680.22
662.17
634.69
620.95
639.38
694.04
773.33
857.82
925.74
967.68
980.88
905.88
718.76
444.91
146.64
-118.67
-302.62
-426.47
-511.34
-571.35
-616.00
-647.70
-667.92
-685.11
-712.47
-759.19
-827.77
-904.94
-973.86
-1021.13
-1032.89
-1005.10
-946.31
-872.98
-800.16
-737.98
-684.06
-632.98
-580.77
-521.63
-453.12
-377.62
-300.42
-226.00
-157.97
-95.24
-37.31
14.63
60.74
101.19
135.51
163.18
184.82
201.47
216.06
230.39
244.91
260.04
276.29
294.29
315.23
340.79
372.22
410.06
452.49
495.32
532.87
559.50
571.01
565.64
544.62
511.84
473.08
434.48
400.89
374.57
354.61
337.66
319.36
296.35
267.31
233.39
197.22
161.80
129.32
100.62
75.44
52.50
30.46
8.36
-13.80
-35.11
-54.08
-69.46
-80.93
-89.07
-95.02
-99.52
-102.53
-103.24
-100.65
-94.47
-85.22
-74.28
-63.09
-52.85
-44.21
-37.51
-32.89
-30.16
-28.64
-26.61
-21.83
-12.05
3.84
25.37
50.41
75.87
98.56
115.67
125.17
125.52
116.01
96.97
70.32
39.64
9.42
-16.19
-34.92
-46.85
-54.24
-60.04
-66.70
-75.43
-86.14
-98.16
-110.51
-122.42
-133.02
-141.42
-146.53
-147.47
-144.01
-136.64
-126.53
-114.99
-103.24
-91.89
-81.18
-71.03
-61.49
-52.89
-45.80
-40.94
-38.64
-38.75
-40.25
-41.74
-41.80
-39.72
-35.85
-31.45
-28.13
-26.79
-27.29
-28.16
-27.61
-24.35
-18.25
-10.38
-2.12
5.35
11.93
17.94
23.91
29.69
34.43
37.12
37.08
34.82
31.68
29.75
30.80
35.87
44.73
55.92
67.31
76.62
82.54
84.98
85.31
85.54
87.49
92.05
98.71
105.92
111.09
111.35
103.73
85.89
56.45
15.59
-34.83
-91.92
-152.17
-212.97
-273.03
-332.73
-393.16
-454.65
-515.46
-570.99
-614.97
-640.99
-645.17
-627.25
-590.79
-541.74
-486.44
-430.17
-376.40
-327.28
-283.81
-246.18
-213.47
-183.53
-153.51
-120.98
-85.18
-47.35
-10.16
23.78
53.02
78.02
100.50
122.73
146.54
173.11
202.57
233.31
261.27
279.37
278.90
253.11
201.29
131.10
56.82
-5.96
-46.42
-62.01
-57.29
-39.40
-13.05
21.25
65.46
120.09
181.57
242.78
296.48
339.04
372.14
401.46
432.87
468.77
506.33
538.61
557.38
556.81
535.47
496.81
447.07
392.34
336.55
280.72
223.80
164.33
102.09
38.94
-21.10
-72.53
-109.99
-130.43
-134.88
-128.89
-120.60
-116.95
-120.09
-126.49
-129.50
-124.32
-112.08
-100.28
-98.61
-112.99
-141.32
-174.25
-199.99
-210.21
-203.27
-182.93
-154.60
-122.01
-87.03
-52.31
-23.56
-9.02
-15.55
-43.71
-85.15
-124.80
-147.33
-144.54
-119.41
-84.78
-56.91
-47.80
-60.05
-86.44
-114.13
-131.02
-130.81
-114.42
-87.85
-58.15
-29.66
-3.05
23.42
51.26
80.15
108.38
134.89
161.33
191.97
231.36
281.30
338.62
395.55
442.42
471.58
480.06
470.09
447.39
418.42
388.02
358.55
330.27
302.46
274.53
246.50
219.20
194.18
173.46
158.84
150.95
148.49
148.11
145.44
136.44
118.86
92.82
60.41
24.72
-11.45
-46.23
-78.80
-109.16
-137.96
-166.38
-195.81
-227.07
-259.45
-290.19
-314.76
-328.38
-327.72
-312.09
-283.55
-245.99
-203.83
-161.02
-120.81
-85.74
-57.81
-38.06
-26.26
-20.80
-19.13
-18.64
-17.45
-14.94
-11.53
-8.24
-6.13
-5.71
-6.54
-7.21
-5.64
0.13
10.84
25.17
39.41
48.30
46.57
30.80
0.62
-41.19
-89.67
-139.19
-184.60
-221.87
-247.95
-260.74
-259.42
-245.19
-221.83
-195.29
-172.21
-157.60
-153.07
-156.23
-161.84
-164.11
-159.09
-146.22
-128.29
-110.36
-97.44
-92.71
-96.40
-105.93
-117.29
-126.69
-132.09
-133.55
-132.91
-132.73
-135.35
-142.03
-152.52
-165.03
-176.33
-182.63
-180.46
-167.99
-145.59
-115.74
-81.96
-47.38
-13.86
18.39
50.19
82.77
116.95
152.88
189.85
226.46
260.81
290.88
315.10
332.75
344.20
350.58
353.47
354.35
354.34
354.16
354.10
354.23
354.39
354.18
352.91
349.47
342.28
329.47
309.43
281.36
246.12
206.17
165.19
127.07
94.80
69.82
51.75
38.94
29.14
20.32
11.14
1.12
-9.60
-20.78
-32.54
-45.47
-60.43
-78.23
-99.30
-123.63
-150.78
-179.81
-209.03
-236.01
-257.85
-272.03
-277.52
-275.17
-267.33
-256.60
-244.57
-231.50
-216.91
-200.74
-183.99
-168.44
-155.45
-144.92
-135.19
-123.83
-109.03
-90.63
-70.31
-50.81
-34.85
-23.96
-18.11
-15.82
-14.62
-12.01
-6.15
3.35
15.39
27.79
37.91
43.35
42.23
33.43
16.72
-6.66
-33.65
-59.51
-78.90
-87.84
-85.38
-74.25
-59.67
-47.16
-40.08
-38.60
-40.11
-40.95
-38.28
-31.20
-20.88
-9.69
-0.24
5.67
7.61
6.70
5.28
6.13
11.28
21.11
34.08
47.51
58.94
67.35
73.55
79.38
86.28
94.05
100.63
103.36
100.66
93.19
83.43
74.00
65.81
57.59
47.14
33.54
18.70
6.93
2.82
8.56
22.57
40.27
56.35
67.29
72.33
72.81
70.44
66.00
59.23
49.70
37.83
25.16
13.97
6.07
1.95
0.40
-1.00
-4.84
-12.96
-25.62
-41.52
-57.99
-71.61
-78.87
-77.18
-65.91
-47.44
-27.20
-12.42
-9.65
-21.96
-47.27
-78.68
-106.92
-123.72
-124.63
-110.11
-84.58
-54.48
-26.01
-3.76
9.80
14.18
10.54
1.21
-10.91
-22.87
-32.31
-37.81
-39.06
-36.76
-32.33
-27.41
-23.29
-20.60
-19.06
-17.66
-15.12
-10.56
-3.99
3.55
10.31
14.64
15.58
13.40
9.41
5.48
3.30
3.74
6.76
11.52
16.97
22.31
27.33
32.20
37.14
42.12
46.58
49.74
50.94
49.96
47.11
43.11
38.67
34.19
29.59
24.42
18.06
10.10
0.54
-10.05
-20.49
-29.13
-34.38
-35.16
-31.48
-24.51
-16.32
-9.27
-5.26
-5.26
-9.11
-15.81
-23.70
-31.07
-36.37
-38.64
-37.66
-33.89
-28.34
-22.25
-16.82
-12.82
-10.53
-9.72
-9.75
-9.81
-9.11
-7.15
-3.84
0.41
4.92
8.96
12.04
13.99
14.97
15.30
15.20
14.81
14.10
13.03
11.54
9.69
7.59
5.36
3.09
0.86
-1.23
-3.06
-4.45
-5.17
-5.04
-3.97
-2.13
0.07
1.98
2.90
2.19
-0.46
-4.91
-10.54
-16.26
-20.69
-22.49
-20.64
-14.73
-5.14
7.05
20.14
32.23
41.47
46.45
46.51
41.78
33.24
22.45
11.20
1.09
-6.78
-11.96
-14.57
-15.08
-14.08
-12.05
-9.37
-6.32
-3.20
-0.33
1.96
3.48
4.25
4.45
4.41
4.40
4.56
4.86
5.15
5.33
5.33
5.15
4.77
4.18
3.34
2.24
1.00
-0.18
-1.11
-1.65
-1.80
-1.73
-1.55
-1.33
-1.05
-0.62
0.02
0.78
1.49
1.91
1.84
1.26
0.30
-0.80
-1.78
-2.53
-3.05
-3.43
-3.73
-3.96
-3.99
-3.73
-3.13
-2.28
-1.40
-0.73
-0.49
-0.74
-1.42
-2.28
-2.96
-3.10
-2.36
-0.68
1.81
4.69
7.34
9.15
9.64
8.67
6.52
3.93
1.69
0.50
0.54
1.49
2.68
3.49
3.64
3.20
2.62
2.22
2.13
2.17
2.04
1.64
1.09
0.75
0.84
1.44
2.31
3.06
3.33
2.95
2.00
0.70
-0.70
-2.04
-3.23
-4.22
-4.94
-5.28
-5.17
-4.57
-3.55
-2.23
-0.80
0.56
1.65
2.31
2.52
2.37
2.08
1.92
2.10
2.63
3.40
4.24
4.96
5.51
5.83
5.93
5.78
5.38
4.82
4.24
3.84
3.74
3.95
4.31
4.61
4.66
4.37
3.80
3.01
2.16
1.33
0.56
-0.15
-0.81
-1.50
-2.24
-3.00
-3.63
-3.95
-3.83
-3.27
-2.43
-1.59
-1.02
-0.85
-1.00
-1.34
-1.76
-2.22
-2.81
-3.58
-4.45
-5.19
-5.52
-5.23
-4.36
-3.15
-1.92
-0.91
-0.24
0.17
0.49
0.82
1.20
1.50
1.64
1.60
1.46
1.33
1.31
1.35
1.33
1.18
0.88
0.54
0.35
0.46
0.87
1.48
2.08
2.48
2.61
2.46
2.04
1.44
0.75
0.10
-0.28
-0.23
0.34
1.31
2.33
2.94
2.77
1.72
0.03
-1.78
-3.16
-3.73
-3.39
-2.35
-0.95
0.44
1.51
2.05
1.90
1.04
-0.44
-2.27
-4.06
-5.46
-6.23
-6.32
-5.78
-4.69
-3.14
-1.30
0.56
2.11
3.00
3.11
2.56
1.70
0.99
0.72
0.98
1.64
2.43
3.06
3.37
3.29
2.92
2.43
1.98
1.65
1.48
1.35
1.09
0.64
0.05
-0.52
-0.85
-0.79
-0.35
0.34
1.09
1.72
2.18
2.52
2.83
3.11
3.25
3.00
2.18
0.78
-1.00
-2.75
-4.09
-4.83
-5.10
-5.17
-5.32
-5.67
-6.09
-6.32
-6.13
-5.46
-4.41
-3.22
-2.15
-1.37
-0.99
-0.98
-1.28
-1.73
-2.16
-2.37
-2.26
-1.86
-1.29
-0.71
-0.19
0.26
0.71
1.21
1.73
2.23
2.63
2.96
3.28
3.70
4.21
4.73
5.11
5.19
5.01
4.68
4.37
4.14
3.93
3.57
2.92
2.03
1.04
0.17
-0.49
-1.00
-1.53
-2.18
-2.94
-3.59
-3.89
-3.75
-3.22
-2.54
-1.94
-1.56
-1.41
-1.47
-1.66
-2.00
-2.45
-2.96
-3.38
-3.54
-3.30
-2.70
-1.91
-1.21
-0.83
-0.89
-1.25
-1.69
-1.93
-1.87
-1.55
-1.15
-0.83
-0.68
-0.64
-0.50
-0.14
0.52
1.46
2.51
3.53
4.39
5.03
5.40
5.58
5.59
5.46
5.20
4.79
4.20
3.40
2.48
1.54
0.79
0.36
0.27
0.44
0.70
0.92
1.02
1.08
1.13
1.27
1.42
1.51
1.45
1.21
0.84
0.46
0.11
-0.26
-0.76
-1.55
-2.69
-4.11
-5.62
-6.91
-7.77
-8.03
-7.77
-7.11
-6.27
-5.42
-4.63
-3.92
-3.24
-2.52
-1.68
-0.73
0.34
1.44
2.39
3.04
3.21
2.89
2.19
1.40
0.78
0.52
0.62
0.89
1.17
1.27
1.21
1.05
0.97
1.07
1.42
2.01
2.72
3.49
4.18
4.71
4.98
4.90
4.46
3.72
2.82
1.97
1.40
1.18
1.28
1.49
1.58
1.33
0.70
-0.18
-1.15
-1.97
-2.57
-2.95
-3.23
-3.58
-4.16
-5.01
-6.02
-6.98
-7.59
-7.61
-6.92
-5.61
-3.96
-2.32
-0.98
-0.02
0.62
1.04
1.30
1.38
1.22
0.77
0.13
-0.50
-0.90
-0.98
-0.79
-0.50
-0.31
-0.29
-0.34
-0.29
-0.02
0.49
1.07
1.55
1.78
1.71
1.49
1.25
1.17
1.26
1.49
1.72
1.85
1.78
1.51
1.12
0.73
0.51
0.59
0.96
1.53
2.08
2.46
2.57
2.48
2.27
2.13
2.12
2.28
2.56
2.82
2.99
2.98
2.72
2.07
0.95
-0.61
-2.48
-4.29
-5.66
-6.23
-5.88
-4.79
-3.38
-2.10
-1.28
-1.04
-1.22
-1.68
-2.21
-2.75
-3.30
-3.85
-4.35
-4.67
-4.76
-4.53
-4.02
-3.31
-2.52
-1.74
-0.99
-0.23
0.66
1.75
3.09
4.53
5.81
6.67
6.92
6.56
5.81
5.05
4.57
4.53
4.82
5.16
5.29
5.09
4.70
4.36
4.40
4.97
6.03
7.21
7.94
7.67
6.08
3.28
-0.23
-3.66
-6.30
-7.73
-7.92
-7.24
-6.09
-4.82
-3.61
-2.59
-1.87
-1.64
-1.98
-2.85
-4.04
-5.17
-5.99
-6.28
-6.09
-5.45
-4.54
-3.45
-2.31
-1.29
-0.51
-0.01
0.35
0.80
1.57
2.64
3.81
4.76
5.20
5.09
4.56
3.90
3.33
2.92
2.60
2.28
1.94
1.67
1.58
1.72
2.04
2.39
2.68
2.89
3.13
3.45
3.79
4.04
3.99
3.57
2.85
1.97
1.12
0.34
-0.36
-1.05
-1.69
-2.20
-2.43
-2.30
-1.81
-1.04
-0.14
0.80
1.71
2.49
2.96
2.94
2.21
0.74
-1.29
-3.53
-5.54
-6.99
-7.74
-7.92
-7.77
-7.47
-7.10
-6.58
-5.80
-4.70
-3.39
-2.11
-1.06
-0.37
0.02
0.32
0.74
1.31
1.95
2.43
2.58
2.39
2.00
1.66
1.56
1.82
2.29
2.82
3.21
3.38
3.36
3.26
3.16
3.11
3.10
3.05
2.92
2.68
2.38
2.08
1.84
1.63
1.40
1.07
0.59
0.02
-0.58
-1.17
-1.72
-2.28
-2.86
-3.46
-4.04
-4.58
-5.10
-5.64
-6.24
-6.84
-7.38
-7.78
-8.04
-8.30
-8.81
-9.80
-11.33
-13.30
-15.31
-16.95
-17.87
-18.00
-17.59
-17.13
-17.11
-17.87
-19.43
-21.55
-23.92
-26.24
-28.45
-30.67
-33.13
-36.05
-39.53
-43.46
-47.59
-51.71
-55.66
-59.52
-63.55
-68.04
-73.18
-78.89
-84.75
-90.14
-94.56
-97.79
-99.99
-101.53
-102.58
-102.95
-102.03
-98.90
-92.66
-82.57
-68.11
-48.94
-24.98
3.48
35.60
70.06
105.44
140.65
175.21
209.21
242.74
275.24
305.14
330.03
347.47
355.90
355.22
346.78
332.88
315.87
297.51
278.61
259.02
237.95
214.25
186.85
155.15
119.16
79.66
37.91
-4.73
-47.12
-88.48
-128.12
-164.88
-196.82
-221.45
-236.50
-240.92
-235.46
-222.65
-205.83
-188.11
-171.37
-156.13
-142.01
-128.51
-115.55
-103.55
-93.10
-84.43
-77.22
-70.72
-64.12
-56.98
-49.40
-42.00
-35.53
-30.46
-26.77
-23.95
-21.23
-17.97
-13.97
-9.49
-5.11
-1.50
0.97
2.31
2.89
3.24
3.81
4.76
6.00
7.18
7.96
8.11
7.66
6.84
5.91
5.13
4.51
4.03
3.56
3.03
2.44
1.79
1.09
0.32
-0.49
-1.29
-1.85
-1.95
-1.47
-0.47
0.74
1.76
2.22
1.98
1.14
0.04
-0.97
-1.57
-1.62
-1.18
-0.44
0.41
1.21
1.93
2.60
3.24
3.88
4.49
5.04
5.45
5.68
5.76
5.73
5.68
5.69
5.79
5.96
6.11
6.16
6.05
5.76
5.33
4.78
4.18
3.56
2.97
2.46
2.08
1.87
1.79
1.78
1.77
1.75
1.68
1.59
1.41
1.12
0.68
0.09
-0.57
-1.23
-1.77
-2.20
-2.55
-2.86
-3.17
-3.42
-3.56
-3.55
-3.39
-3.10
-2.73
-2.26
-1.67
-0.94
-0.09
0.72
1.33
1.59
1.52
1.23
0.95
0.87
1.03
1.43
1.91
2.42
2.88
3.32
3.73
4.13
4.54
4.96
5.41
5.84
6.17
6.24
5.94
5.28
4.42
3.59
3.02
2.83
2.93
3.09
3.15
2.99
2.68
2.33
2.09
1.97
1.94
1.92
1.84
1.69
1.49
1.24
0.89
0.40
-0.25
-1.03
-1.78
-2.34
-2.54
-2.38
-1.91
-1.36
-0.95
-0.88
-1.21
-1.86
-2.64
-3.33
-3.79
-3.98
-4.02
-4.06
-4.21
-4.49
-4.77
-4.89
-4.69
-4.09
-3.13
-1.97
-0.80
0.18
0.82
1.14
1.20
1.22
1.34
1.66
2.16
2.73
3.23
3.56
3.73
3.78
3.78
3.72
3.61
3.40
3.14
2.88
2.72
2.74
2.90
3.14
3.37
3.56
3.70
3.78
3.76
3.57
3.15
2.49
1.68
0.90
0.34
0.10
0.12
0.24
0.26
0.10
-0.30
-0.83
-1.46
-2.16
-2.96
-3.90
-4.93
-5.96
-6.76
-7.20
-7.18
-6.79
-6.20
-5.57
-5.05
-4.65
-4.40
-4.27
-4.22
-4.17
-3.91
-3.28
-2.13
-0.60
0.95
2.02
2.27
1.71
0.66
-0.38
-1.10
-1.49
-1.85
-2.48
-3.52
-4.74
-5.72
-6.02
-5.44
-4.12
-2.44
-0.86
0.32
1.03
1.34
1.43
1.34
1.10
0.61
-0.11
-1.00
-1.84
-2.43
-2.69
-2.70
-2.76
-3.18
-4.19
-5.74
-7.51
-8.99
-9.75
-9.61
-8.79
-7.82
-7.28
-7.59
-8.75
-10.51
-12.46
-14.26
-15.74
-16.81
-17.46
-17.56
-17.04
-15.84
-14.09
-11.99
-9.74
-7.34
-4.56
-1.02
3.68
9.72
16.95
24.91
32.92
40.34
46.61
51.30
54.05
54.51
52.47
48.00
41.63
34.28
27.05
20.78
15.88
12.27
9.60
7.55
5.98
4.92
4.37
4.13
3.77
2.86
1.05
-1.69
-5.13
-8.87
-12.44
-15.52
-17.92
-19.61
-20.67
-21.20
-21.24
-20.77
-19.71
-18.04
-15.90
-13.68
-11.94
-11.26
-11.95
-13.93
-16.58
-19.05
-20.42
-20.07
-17.84
-14.09
-9.49
-4.78
-0.57
2.82
5.35
7.24
8.76
10.21
11.74
13.39
15.11
16.78
18.29
19.54
20.46
20.93
20.88
20.24
19.08
17.68
16.36
15.44
15.05
15.08
15.22
15.10
14.46
13.21
11.51
9.60
7.77
6.26
5.20
4.63
4.50
4.66
4.89
4.90
4.39
3.11
1.02
-1.71
-4.64
-7.29
-9.26
-10.43
-10.96
-11.28
-11.78
-12.67
-13.84
-14.97
-15.67
-15.70
-15.08
-13.96
-12.64
-11.33
-10.09
-8.92
-7.78
-6.70
-5.72
-4.94
-4.36
-3.89
-3.43
-2.94
-2.60
-2.64
-3.34
-4.70
-6.51
-8.33
-9.74
-10.54
-10.81
-10.93
-11.25
-12.01
-13.10
-14.20
-14.85
-14.67
-13.52
-11.55
-9.18
-6.97
-5.47
-5.02
-5.65
-6.97
-8.20
-8.40
-6.63
-2.36
4.43
13.11
22.59
31.57
38.91
43.90
46.23
46.09
43.88
40.16
35.49
30.39
25.33
20.61
16.40
12.69
9.35
6.19
3.04
-0.17
-3.34
-6.31
-8.88
-10.89
-12.35
-13.33
-14.02
-14.53
-14.93
-15.23
-15.37
-15.29
-14.96
-14.39
-13.58
-12.54
-11.37
-10.19
-9.25
-8.66
-8.42
-8.30
-7.96
-7.06
-5.53
-3.53
-1.41
0.43
1.70
2.32
2.38
2.05
1.52
0.90
0.24
-0.38
-0.93
-1.34
-1.59
-1.68
-1.67
-1.64
-1.72
-2.00
-2.42
-2.92
-3.29
-3.35
-3.06
-2.47
-1.85
-1.49
-1.62
-2.25
-3.20
-4.16
-4.79
-4.94
-4.57
-3.87
-3.00
-2.17
-1.47
-0.93
-0.51
-0.18
0.11
0.43
0.77
1.15
1.51
1.80
1.96
1.96
1.84
1.64
1.41
1.13
0.77
0.32
-0.18
-0.62
-0.88
-0.84
-0.51
0.07
0.75
1.43
2.08
2.69
3.26
3.74
4.05
4.08
3.75
3.10
2.28
1.48
0.87
0.50
0.33
0.23
0.07
-0.22
-0.63
-1.09
-1.49
-1.78
-1.94
-2.01
-2.02
-2.00
-1.94
-1.81
-1.57
-1.18
-0.68
-0.13
0.36
0.68
0.77
0.68
0.56
0.49
0.58
0.78
1.01
1.13
1.06
0.79
0.42
0.04
-0.28
-0.50
-0.65
-0.76
-0.87
-0.98
-1.08
-1.12
-0.96
-0.53
0.23
1.16
2.03
2.53
2.48
1.86
0.87
-0.14
-0.88
-1.20
-1.12
-0.76
-0.25
0.30
0.81
1.12
1.10
0.57
-0.50
-1.94
-3.41
-4.53
-5.08
-4.96
-4.39
-3.63
-2.93
-2.41
-2.04
-1.75
-1.44
-1.07
-0.62
-0.17
0.27
0.67
1.01
1.27
1.44
1.55
1.62
1.72
1.85
2.01
2.21
2.34
2.38
2.22
1.86
1.32
0.68
0.07
-0.37
-0.51
-0.33
0.16
0.76
1.32
1.65
1.66
1.38
0.92
0.48
0.22
0.27
0.61
1.09
1.50
1.61
1.34
0.75
0.01
-0.70
-1.26
-1.69
-2.03
-2.36
-2.67
-2.85
-2.83
-2.58
-2.21
-1.83
-1.61
-1.55
-1.60
-1.61
-1.45
-1.12
-0.67
-0.26
-0.03
-0.06
-0.31
-0.67
-1.00
-1.21
-1.33
-1.39
-1.45
-1.50
-1.50
-1.40
-1.16
-0.82
-0.34
0.25
0.95
1.76
2.57
3.28
3.74
3.90
3.80
3.65
3.59
3.74
4.05
4.36
4.52
4.36
3.86
3.03
1.98
0.83
-0.29
-1.20
-1.77
-1.87
-1.58
-1.05
-0.59
-0.44
-0.75
-1.44
-2.29
-3.02
-3.42
-3.43
-3.15
-2.76
-2.42
-2.19
-2.07
-1.99
-1.94
-1.94
-2.06
-2.29
-2.54
-2.63
-2.34
-1.64
-0.65
0.35
1.06
1.27
1.01
0.46
-0.10
-0.44
-0.49
-0.28
0.05
0.35
0.54
0.59
0.58
0.58
0.66
0.78
0.91
1.00
1.08
1.22
1.47
1.90
2.43
2.93
3.27
3.40
3.38
3.33
3.36
3.49
3.68
3.83
3.84
3.63
3.14
2.35
1.30
0.11
-1.06
-2.02
-2.68
-3.05
-3.27
-3.52
-3.85
-4.14
-4.14
-3.58
-2.29
-0.39
1.81
3.87
5.42
6.28
6.45
6.10
5.49
5.00
5.12
6.33
8.89
12.55
16.49
19.48
20.41
18.69
14.62
9.24
3.83
-0.61
-3.82
-6.17
-8.33
-10.77
-13.50
-16.12
-18.10
-19.12
-19.21
-18.63
-17.66
-16.40
-14.67
-12.24
-9.10
-5.50
-2.05
0.59
1.99
2.12
1.31
0.12
-0.96
-1.65
-1.89
-1.89
-1.82
-1.91
-2.25
-2.89
-3.76
-4.74
-5.66
-6.32
-6.65
-6.58
-6.12
-5.31
-4.17
-2.75
-1.12
0.53
2.02
3.12
3.76
3.98
3.91
3.74
3.55
3.38
3.20
2.97
2.73
2.48
2.27
2.03
1.74
1.37
0.97
0.66
0.54
0.69
1.04
1.47
1.77
1.83
1.60
1.17
0.66
0.23
-0.02
-0.06
0.04
0.14
0.13
-0.11
-0.54
-1.02
-1.44
-1.66
-1.66
-1.52
-1.36
-1.28
-1.34
-1.50
-1.71
-1.94
-2.19
-2.51
-2.91
-3.35
-3.74
-3.93
-3.84
-3.43
-2.72
-1.81
-0.85
0.02
0.63
0.88
0.78
0.46
0.12
-0.04
0.07
0.40
0.78
1.03
1.06
0.86
0.51
0.10
-0.39
-0.95
-1.52
-2.00
-2.26
-2.16
-1.70
-1.00
-0.20
0.53
1.13
1.59
1.93
2.19
2.34
2.39
2.28
2.06
1.76
1.45
1.22
1.03
0.88
0.68
0.40
0.03
-0.39
-0.80
-1.22
-1.60
-1.97
-2.29
-2.52
-2.62
-2.57
-2.35
-2.04
-1.78
-1.73
-2.01
-2.61
-3.39
-4.07
-4.36
-4.05
-3.15
-1.89
-0.59
0.41
1.01
1.24
1.28
1.34
1.50
1.76
2.00
2.14
2.10
1.88
1.56
1.25
1.05
1.04
1.25
1.61
2.05
2.45
2.70
2.77
2.66
2.45
2.21
2.04
1.93
1.86
1.81
1.73
1.64
1.51
1.39
1.25
1.09
0.89
0.65
0.37
0.09
-0.17
-0.39
-0.52
-0.54
-0.40
-0.14
0.18
0.47
0.60
0.56
0.36
0.07
-0.18
-0.30
-0.30
-0.23
-0.24
-0.44
-0.89
-1.53
-2.24
-2.84
-3.18
-3.20
-2.98
-2.61
-2.24
-1.94
-1.68
-1.44
-1.21
-0.99
-0.83
-0.73
-0.61
-0.48
-0.27
-0.01
0.22
0.39
0.45
0.40
0.33
0.28
0.25
0.23
0.22
0.18
0.16
0.17
0.22
0.34
0.55
0.81
1.12
1.47
1.83
2.22
2.64
3.03
3.31
3.40
3.23
2.82
2.25
1.56
0.84
0.08
-0.72
-1.55
-2.37
-3.08
-3.60
-3.84
-3.80
-3.46
-2.92
-2.37
-1.98
-1.92
-2.24
-2.81
-3.42
-3.83
-3.84
-3.41
-2.66
-1.76
-0.88
-0.16
0.37
0.74
1.00
1.21
1.44
1.67
1.93
2.15
2.31
2.37
2.35
2.25
2.11
1.95
1.81
1.72
1.66
1.58
1.40
1.08
0.59
-0.01
-0.64
-1.23
-1.67
-1.95
-2.03
-1.92
-1.65
-1.24
-0.69
-0.01
0.79
1.69
2.61
3.40
3.93
4.09
3.92
3.56
3.18
2.90
2.77
2.69
2.51
2.11
1.46
0.63
-0.29
-1.16
-1.96
-2.68
-3.37
-4.07
-4.71
-5.19
-5.32
-5.05
-4.43
-3.66
-2.98
-2.58
-2.49
-2.56
-2.63
-2.50
-2.13
-1.56
-0.93
-0.34
0.13
0.47
0.65
0.61
0.35
-0.13
-0.68
-1.07
-1.07
-0.58
0.34
1.38
2.16
2.40
2.03
1.26
0.45
-0.09
-0.23
-0.04
0.26
0.48
0.59
0.63
0.78
1.15
1.69
2.31
2.83
3.16
3.25
3.20
3.05
2.90
2.75
2.55
2.30
2.00
1.69
1.44
1.29
1.27
1.37
1.56
1.75
1.85
1.73
1.29
0.51
-0.55
-1.80
-3.09
-4.29
-5.29
-5.98
-6.28
-6.15
-5.60
-4.75
-3.82
-3.01
-2.44
-2.11
-1.94
-1.80
-1.58
-1.21
-0.71
-0.15
0.40
0.90
1.33
1.72
2.08
2.43
2.70
2.79
2.65
2.26
1.73
1.18
0.77
0.57
0.55
0.63
0.76
0.93
1.20
1.67
2.42
3.44
4.63
5.79
6.62
6.92
6.57
5.68
4.50
3.30
2.29
1.53
0.93
0.38
-0.19
-0.75
-1.18
-1.44
-1.58
-1.74
-2.05
-2.57
-3.20
-3.77
-4.16
-4.29
-4.23
-4.15
-4.20
-4.43
-4.78
-5.08
-5.14
-4.90
-4.37
-3.69
-3.01
-2.41
-1.93
-1.58
-1.35
-1.25
-1.30
-1.46
-1.62
-1.64
-1.42
-0.99
-0.48
-0.06
0.15
0.16
0.11
0.14
0.39
0.86
1.45
2.02
2.46
2.75
2.90
2.95
2.91
2.75
2.48
2.14
1.85
1.74
1.87
2.22
2.65
2.97
3.05
2.87
2.54
2.20
1.88
1.57
1.18
0.65
0.05
-0.50
-0.80
-0.81
-0.54
-0.17
0.11
0.21
0.15
0.08
0.11
0.26
0.44
0.49
0.32
-0.03
-0.48
-0.88
-1.20
-1.47
-1.81
-2.33
-2.97
-3.60
-4.00
-4.06
-3.76
-3.23
-2.67
-2.27
-2.12
-2.26
-2.60
-2.98
-3.19
-3.06
-2.52
-1.63
-0.55
0.53
1.44
2.13
2.63
3.00
3.19
3.14
2.78
2.12
1.33
0.61
0.21
0.20
0.54
1.08
1.65
2.12
2.41
2.53
2.48
2.34
2.16
1.99
1.82
1.64
1.43
1.19
0.98
0.87
0.94
1.14
1.33
1.34
1.04
0.40
-0.49
-1.40
-2.15
-2.58
-2.64
-2.44
-2.12
-1.87
-1.84
-2.12
-2.73
-3.65
-4.76
-5.88
-6.86
-7.52
-7.83
-7.85
-7.71
-7.56
-7.52
-7.61
-7.76
-7.91
-7.98
-8.03
-8.12
-8.41
-8.99
-9.97
-11.32
-13.00
-14.92
-16.93
-18.95
-20.89
-22.71
-24.42
-26.02
-27.55
-29.10
-30.83
-32.81
-35.05
-37.37
-39.40
-40.69
-40.83
-39.69
-37.48
-34.77
-32.24
-30.49
-29.82
-30.14
-31.10
-32.11
-32.58
-32.04
-30.34
-27.56
-24.14
-20.70
-17.95
-16.43
-16.34
-17.40
-18.76
-19.28
-17.75
-13.35
-5.84
4.33
16.19
28.49
40.08
50.08
57.95
63.53
67.01
69.00
70.47
72.60
76.42
82.53
90.69
99.80
108.04
113.44
114.48
110.73
103.08
93.53
84.57
78.24
75.47
75.78
77.72
79.49
79.72
77.83
73.99
68.79
62.90
56.90
51.27
46.49
42.98
41.01
40.48
40.84
41.25
40.76
38.62
34.57
28.85
22.20
15.61
10.11
6.47
5.06
5.61
7.26
8.65
8.33
5.24
-0.95
-9.69
-19.90
-30.33
-40.15
-49.08
-57.24
-64.81
-71.65
-77.21
-80.75
-81.71
-79.98
-75.87
-69.82
-62.33
-54.04
-46.00
-39.78
-36.98
-38.53
-43.92
-51.15
-57.45
-60.47
-59.37
-55.04
-49.51
-44.72
-41.67
-40.10
-39.13
-37.86
-36.04
-33.91
-31.88
-30.12
-28.47
-26.56
-24.02
-20.81
-17.20
-13.71
-10.86
-8.91
-7.80
-7.12
-6.34
-5.03
-3.10
-0.85
1.21
2.62
3.24
3.24
3.06
3.08
3.50
4.22
4.97
5.48
5.62
5.44
5.12
4.84
4.75
4.85
5.04
5.15
5.01
4.54
3.77
2.85
1.99
1.34
0.94
0.74
0.58
0.37
0.06
-0.33
-0.74
-1.15
-1.51
-1.82
-2.02
-2.04
-1.82
-1.38
-0.82
-0.22
0.36
0.96
1.69
2.67
3.89
5.26
6.59
7.69
8.46
8.90
9.07
9.10
9.10
9.10
9.02
8.74
8.13
7.18
6.01
4.78
3.70
2.83
2.13
1.51
0.92
0.41
0.10
0.05
0.21
0.34
0.18
-0.50
-1.69
-3.20
-4.72
-5.92
-6.55
-6.58
-6.10
-5.39
-4.78
-4.52
-4.68
-5.17
-5.80
-6.32
-6.67
-6.81
-6.81
-6.71
-6.41
-5.86
-4.97
-3.80
-2.50
-1.29
-0.34
0.24
0.46
0.42
0.22
0.01
-0.07
0.06
0.42
0.94
1.46
1.91
2.30
2.68
3.15
3.72
4.25
4.51
4.32
3.67
2.73
1.85
1.31
1.31
1.77
2.50
3.21
3.69
3.78
3.42
2.60
1.39
-0.01
-1.39
-2.50
-3.16
-3.34
-3.20
-3.06
-3.33
-4.37
-6.39
-9.39
-13.02
-16.76
-19.97
-22.15
-23.08
-22.86
-21.80
-20.16
-18.05
-15.48
-12.57
-9.66
-7.27
-5.83
-5.26
-4.84
-3.40
0.10
6.00
13.55
21.12
26.73
28.82
26.76
20.98
12.78
3.75
-4.64
-11.35
-15.85
-18.03
-18.10
-16.61
-14.37
-12.31
-11.12
-10.86
-10.73
-9.26
-4.91
3.22
14.85
28.43
41.69
52.37
58.85
60.50
57.55
50.79
41.30
30.33
19.23
9.32
1.74
-2.84
-4.38
-3.44
-0.94
2.10
4.94
7.27
9.17
10.91
12.77
14.85
16.98
18.83
19.96
19.99
18.71
16.14
12.55
8.45
4.42
0.98
-1.57
-3.17
-3.98
-4.27
-4.39
-4.62
-5.18
-6.14
-7.38
-8.61
-9.40
-9.38
-8.36
-6.50
-4.15
-1.82
0.15
1.69
3.00
4.42
6.26
8.63
11.41
14.33
16.94
18.89
19.86
19.77
18.70
16.93
14.85
12.81
11.02
9.54
8.26
7.11
6.10
5.43
5.39
6.23
7.98
10.40
12.97
15.12
16.34
16.38
15.25
13.10
10.18
6.71
3.04
-0.48
-3.40
-5.35
-6.25
-6.37
-6.32
-6.79
-8.42
-11.48
-15.90
-21.30
-27.11
-32.71
-37.48
-40.91
-42.65
-42.67
-41.23
-38.84
-36.07
-33.31
-30.71
-28.11
-25.24
-21.77
-17.56
-12.70
-7.59
-3.04
-0.11
0.05
-3.36
-10.54
-20.75
-32.60
-44.39
-54.71
-62.94
-69.31
-74.65
-79.91
-85.69
-91.95
-98.09
-103.29
-106.85
-108.52
-108.46
-107.08
-104.72
-101.46
-97.08
-91.10
-83.05
-72.52
-59.27
-43.27
-24.75
-4.18
17.69
39.90
61.41
81.19
98.42
112.50
123.20
130.57
134.98
136.98
137.19
136.09
134.02
131.13
127.51
123.23
118.51
113.61
108.89
104.68
101.19
98.36
95.87
93.20
89.73
84.98
78.71
71.06
62.50
53.82
45.84
39.32
34.72
32.06
30.95
30.69
30.50
29.70
27.92
25.08
21.46
17.68
14.53
12.73
12.61
13.82
15.28
15.48
12.92
6.67
-3.33
-16.33
-30.95
-45.68
-59.11
-70.15
-78.11
-82.85
-84.76
-84.64
-83.52
-82.29
-81.52
-81.25
-80.97
-79.63
-75.85
-68.31
-56.19
-39.65
-20.07
0.17
18.45
32.61
41.71
46.05
46.75
45.18
42.37
38.87
34.85
30.46
25.86
21.25
16.73
12.22
7.55
2.47
-3.10
-9.07
-15.12
-20.75
-25.55
-29.22
-31.74
-33.31
-34.28
-34.88
-35.15
-34.99
-34.26
-32.99
-31.39
-29.83
-28.62
-27.95
-27.69
-27.56
-27.25
-26.52
-25.34
-23.74
-21.84
-19.72
-17.41
-14.89
-12.22
-9.53
-7.04
-4.99
-3.50
-2.58
-2.09
-1.84
-1.71
-1.66
-1.70
-1.83
-2.04
-2.27
-2.50
-2.74
-3.03
-3.36
-3.63
-3.65
-3.19
-2.15
-0.58
1.35
3.34
5.15
6.63
7.75
8.51
9.01
9.27
9.32
9.16
8.79
8.29
7.67
6.95
6.15
5.28
4.38
3.48
2.66
1.95
1.44
1.19
1.18
1.30
1.39
1.24
0.71
-0.23
-1.49
-2.82
-4.02
-4.92
-5.41
-5.45
-5.02
-4.14
-2.86
-1.31
0.37
2.03
3.55
4.88
5.98
6.85
7.45
7.72
7.61
7.16
6.48
5.76
5.16
4.76
4.52
4.34
4.18
4.00
3.83
3.69
3.53
3.31
2.94
2.41
1.75
1.08
0.46
-0.07
-0.54
-1.00
-1.47
-1.95
-2.40
-2.79
-3.09
-3.29
-3.39
-3.43
-3.48
-3.59
-3.73
-3.83
-3.80
-3.56
-3.18
-2.82
-2.66
-2.83
-3.29
-3.88
-4.35
-4.48
-4.17
-3.46
-2.46
-1.26
0.00
1.28
2.48
3.47
4.13
4.36
4.14
3.55
2.78
1.99
1.32
0.80
0.40
0.06
-0.32
-0.76
-1.29
-1.87
-2.43
-2.86
-3.10
-3.14
-2.99
-2.76
-2.50
-2.27
-2.03
-1.70
-1.25
-0.68
-0.05
0.62
1.26
1.85
2.33
2.65
2.72
2.51
2.08
1.58
1.22
1.09
1.22
1.47
1.65
1.59
1.26
0.73
0.16
-0.32
-0.66
-0.85
-0.97
-1.08
-1.23
-1.35
-1.32
-1.06
-0.55
0.10
0.66
0.93
0.75
0.14
-0.72
-1.56
-2.13
-2.30
-2.06
-1.54
-0.87
-0.18
0.48
1.08
1.63
2.16
2.64
3.04
3.25
3.23
2.96
2.53
2.08
1.71
1.48
1.33
1.13
0.73
0.08
-0.73
-1.54
-2.14
-2.40
-2.29
-1.89
-1.32
-0.72
-0.15
0.36
0.80
1.11
1.25
1.15
0.74
0.06
-0.81
-1.73
-2.47
-2.87
-2.77
-2.16
-1.17
-0.07
0.83
1.23
0.98
0.12
-1.12
-2.44
-3.51
-4.09
-4.10
-3.58
-2.72
-1.75
-0.87
-0.19
0.27
0.59
0.82
0.97
1.04
1.01
0.94
0.86
0.80
0.73
0.55
0.11
-0.65
-1.65
-2.73
-3.66
-4.32
-4.70
-4.89
-5.04
-5.20
-5.33
-5.29
-4.95
-4.29
-3.43
-2.58
-1.89
-1.44
-1.13
-0.78
-0.26
0.40
1.01
1.23
0.86
-0.13
-1.52
-2.90
-3.95
-4.47
-4.57
-4.48
-4.47
-4.68
-5.06
-5.49
-5.85
-6.18
-6.61
-7.30
-8.30
-9.51
-10.67
-11.54
-11.98
-11.99
-11.72
-11.30
-10.76
-10.01
-8.94
-7.43
-5.48
-3.20
-0.69
1.92
4.63
7.51
10.69
14.23
18.01
21.79
25.22
28.08
30.29
32.00
33.55
35.33
37.66
40.67
44.19
47.89
51.31
53.93
55.31
55.16
53.32
49.87
45.06
39.35
33.36
27.79
23.29
20.30
18.88
18.63
18.78
18.39
16.60
12.92
7.47
0.75
-6.41
-13.25
-19.18
-23.88
-27.19
-29.06
-29.52
-28.73
-27.00
-24.71
-22.14
-19.39
-16.33
-12.92
-9.35
-6.21
-4.22
-3.96
-5.52
-8.42
-11.82
-14.78
-16.70
-17.28
-16.89
-16.40
-17.21
-20.95
-29.00
-42.05
-59.40
-78.96
-97.42
-111.29
-117.79
-115.84
-106.24
-91.27
-73.92
-56.86
-41.99
-30.21
-21.84
-16.88
-15.23
-16.54
-19.96
-24.15
-27.51
-28.91
-28.06
-25.72
-23.14
-21.31
-20.45
-19.59
-17.07
-11.01
-0.28
15.21
34.32
55.00
74.87
91.70
103.93
110.79
112.42
109.53
103.26
94.86
85.43
75.93
67.02
59.20
52.64
47.35
43.04
39.29
35.53
31.11
25.57
18.52
9.91
-0.11
-11.06
-22.26
-32.87
-42.11
-49.57
-55.16
-59.19
-62.03
-63.83
-64.34
-63.04
-59.44
-53.41
-45.42
-36.36
-27.24
-18.88
-11.64
-5.44
0.13
5.41
10.54
15.33
19.52
22.97
25.86
28.50
31.02
33.15
34.22
33.63
31.23
27.71
24.25
22.05
21.65
22.73
24.36
25.50
25.57
24.40
22.13
18.83
14.43
8.87
2.35
-4.50
-10.83
-15.80
-18.95
-20.37
-20.57
-20.27
-20.04
-20.12
-20.38
-20.57
-20.45
-20.01
-19.35
-18.53
-17.46
-15.88
-13.60
-10.80
-8.18
-6.80
-7.79
-11.90
-19.16
-28.92
-39.94
-50.92
-60.80
-68.99
-75.29
-79.80
-82.66
-83.90
-83.57
-81.69
-78.59
-74.88
-71.37
-68.84
-67.62
-67.56
-67.89
-67.56
-65.52
-61.21
-54.62
-46.22
-36.50
-25.33
-11.77
5.84
29.21
59.48
96.49
138.66
183.23
226.61
265.07
295.12
314.01
320.15
313.56
296.05
270.93
242.19
213.25
186.00
160.40
135.15
108.68
80.33
50.98
22.70
-1.97
-21.19
-34.51
-42.84
-47.90
-51.44
-54.77
-58.68
-63.77
-70.72
-80.21
-92.62
-107.66
-124.06
-139.89
-153.02
-161.77
-165.44
-164.22
-158.99
-150.88
-140.87
-129.66
-117.56
-104.50
-90.21
-74.46
-57.33
-39.47
-22.09
-6.67
5.49
13.57
17.51
17.85
15.57
12.00
8.61
7.01
8.49
13.50
21.13
29.15
34.74
35.61
31.08
22.38
12.17
3.37
-2.08
-3.69
-2.31
0.61
3.84
6.74
9.20
11.39
13.40
15.17
16.62
17.75
18.72
19.78
21.13
22.68
24.01
24.43
23.19
19.83
14.35
7.26
-0.53
-8.01
-14.28
-18.83
-21.61
-23.01
-23.67
-24.21
-24.94
-25.72
-26.06
-25.42
-23.59
-20.91
-18.28
-16.81
-17.44
-20.57
-25.71
-31.52
-36.00
-37.02
-33.17
-24.52
-12.99
-2.06
4.23
2.68
-7.77
-25.51
-46.62
-66.06
-79.37
-83.91
-79.74
-69.42
-57.03
-46.83
-41.90
-43.69
-52.10
-66.13
-84.26
-104.41
-123.48
-137.16
-140.60
-129.62
-102.44
-60.53
-8.41
47.62
101.26
147.49
183.29
207.42
220.16
222.88
217.80
207.57
194.65
180.79
166.94
153.49
140.62
128.63
117.99
109.19
102.75
99.33
99.73
104.63
114.03
126.71
140.21
151.53
158.30
159.73
156.72
151.12
144.54
137.77
130.97
124.51
119.51
117.37
118.76
122.39
124.80
121.43
108.51
84.69
51.70
13.29
-26.84
-66.95
-107.85
-151.24
-197.37
-242.83
-280.52
-301.82
-300.12
-273.33
-224.32
-159.36
-85.87
-11.08
58.00
114.10
150.04
160.59
144.78
107.55
58.66
9.40
-31.66
-61.43
-82.69
-101.88
-125.96
-159.22
-201.39
-247.93
-291.46
-324.28
-340.51
-337.24
-314.97
-277.41
-231.28
-184.95
-146.71
-122.15
-111.87
-110.70
-109.07
-97.18
-69.97
-30.04
13.67
50.28
72.39
78.82
73.56
63.17
53.08
45.34
38.80
31.44
22.31
11.94
1.07
-10.84
-24.42
-39.31
-53.03
-61.15
-58.44
-41.03
-8.29
37.89
87.94
129.16
152.34
156.14
145.34
126.14
103.12
78.74
54.29
30.69
10.39
-3.90
-10.43
-9.41
-3.10
5.53
14.22
21.87
28.37
35.86
47.36
65.70
92.12
125.45
162.05
196.40
222.64
232.89
224.22
198.89
163.18
124.52
88.63
58.03
32.26
9.44
-12.27
-33.01
-52.17
-68.86
-82.04
-90.19
-91.12
-83.19
-67.08
-47.15
-30.04
-22.58
-28.54
-46.76
-71.99
-97.44
-117.79
-130.84
-137.35
-139.12
-137.88
-134.75
-130.51
-126.09
-122.39
-119.74
-117.29
-113.15
-104.90
-90.78
-70.50
-45.44
-18.27
7.90
30.19
46.56
55.97
58.57
55.50
48.72
40.78
34.26
31.15
32.23
36.92
43.72
51.13
58.32
65.28
72.34
79.35
85.44
89.08
89.14
85.60
79.75
73.43
68.01
63.80
60.13
56.50
53.20
51.36
52.12
55.63
60.71
65.27
67.46
65.99
60.14
49.16
32.33
10.09
-14.37
-34.10
-39.80
-23.17
18.81
81.57
153.83
221.63
273.57
304.37
315.48
312.34
300.60
283.11
259.48
227.81
187.13
139.14
87.97
38.62
-5.17
-42.14
-73.35
-100.68
-125.29
-147.22
-165.64
-179.92
-190.25
-197.22
-201.01
-200.92
-195.92
-185.61
-170.99
-154.22
-137.58
-122.39
-108.85
-96.80
-86.63
-79.40
-75.96
-75.57
-75.38
-71.45
-60.95
-43.92
-23.76
-5.82
4.92
5.98
-1.84
-15.16
-29.60
-41.51
-49.18
-53.20
-55.93
-60.46
-69.57
-85.05
-107.22
-134.88
-165.17
-193.57
-214.13
-220.34
-206.83
-171.30
-116.40
-50.12
15.69
68.52
98.85
103.03
84.13
50.59
13.32
-17.79
-36.73
-42.66
-39.48
-33.73
-31.69
-37.10
-49.81
-66.14
-80.79
-89.40
-90.49
-86.07
-80.68
-79.23
-84.78
-97.39
-114.10
-130.32
-141.64
-145.45
-141.67
-132.12
-119.26
-104.67
-88.27
-68.51
-43.71
-13.45
20.68
55.28
86.49
111.41
129.10
140.63
148.34
154.61
161.05
168.07
174.90
180.11
182.18
180.16
174.03
164.83
154.27
144.08
135.39
128.27
121.87
114.94
106.49
96.17
84.34
71.71
58.95
46.54
34.74
23.91
14.61
7.55
3.50
2.94
5.97
12.10
20.25
28.66
35.32
38.48
37.27
32.05
24.22
15.54
7.26
-0.22
-7.24
-13.97
-19.80
-23.19
-22.38
-16.42
-6.08
6.24
17.38
24.69
27.13
25.52
21.92
18.62
17.13
17.70
19.42
20.74
20.15
16.76
10.52
2.19
-6.95
-15.49
-22.18
-26.13
-26.87
-24.43
-19.38
-12.88
-6.58
-2.12
-0.63
-2.06
-5.20
-8.16
-9.43
-8.79
-7.62
-8.33
-13.20
-23.29
-37.86
-54.59
-70.30
-81.88
-86.91
-84.09
-73.63
-57.17
-37.64
-18.50
-2.77
7.99
14.05
16.98
18.66
20.15
21.36
21.55
20.28
18.17
16.85
18.17
23.18
31.48
41.35
50.58
57.30
60.66
61.01
59.51
57.64
56.59
56.91
58.31
59.94
60.91
60.82
60.10
59.71
60.71
63.50
67.46
70.94
71.86
68.36
59.47
45.57
28.38
10.56
-4.99
-16.03
-21.78
-23.01
-21.67
-20.03
-19.74
-21.50
-25.00
-29.36
-33.64
-37.07
-39.16
-39.67
-38.65
-36.37
-33.43
-30.59
-28.63
-28.19
-29.55
-32.69
-37.23
-42.54
-47.84
-52.46
-55.85
-57.71
-57.97
-56.79
-54.50
-51.58
-48.60
-45.99
-44.00
-42.61
-41.64
-40.93
-40.44
-40.14
-39.82
-38.99
-36.84
-32.77
-26.72
-19.48
-12.52
-7.35
-4.93
-5.15
-7.15
-9.70
-11.84
-13.25
-14.17
-15.07
-16.19
-17.39
-18.26
-18.46
-17.92
-17.03
-16.51
-16.99
-18.75
-21.39
-23.96
-25.29
-24.47
-21.28
-16.31
-10.75
-5.84
-2.53
-1.14
-1.55
-3.26
-5.62
-7.95
-9.56
-9.98
-9.04
-7.11
-4.96
-3.50
-3.37
-4.59
-6.66
-8.79
-10.36
-11.16
-11.45
-11.59
-11.74
-11.73
-11.10
-9.50
-6.99
-4.16
-1.93
-1.19
-2.29
-4.87
-8.01
-10.57
-11.67
-10.87
-8.26
-4.18
0.90
6.44
11.89
16.63
20.06
21.78
21.74
20.28
18.03
15.68
13.77
12.43
11.43
10.28
8.51
5.86
2.46
-1.24
-4.63
-7.16
-8.56
-8.84
-8.27
-7.22
-6.10
-5.31
-5.17
-5.83
-7.12
-8.56
-9.38
-8.78
-6.25
-1.80
4.00
10.09
15.26
18.46
19.10
17.19
13.35
8.64
4.19
0.94
-0.67
-0.78
-0.00
0.84
1.00
0.09
-1.92
-4.63
-7.45
-9.76
-11.01
-10.81
-9.00
-5.57
-0.75
4.98
11.00
16.68
21.51
25.24
27.88
29.56
30.36
30.21
28.88
26.12
21.92
16.56
10.68
5.09
0.58
-2.26
-3.19
-2.35
-0.20
2.67
5.65
8.33
10.46
11.98
12.91
13.25
12.98
12.06
10.57
8.68
6.77
5.29
4.67
5.12
6.55
8.56
10.46
11.60
11.46
9.95
7.35
4.21
1.10
-1.62
-3.86
-5.78
-7.64
-9.54
-11.38
-12.81
-13.46
-13.10
-11.79
-9.78
-7.45
-5.11
-2.93
-1.04
0.48
1.49
1.89
1.67
0.99
0.09
-0.74
-1.19
-1.09
-0.32
1.11
3.04
5.09
6.83
7.80
7.79
6.86
5.20
3.05
0.54
-2.35
-5.58
-8.91
-11.88
-13.93
-14.61
-13.82
-11.83
-9.22
-6.71
-4.94
-4.30
-4.80
-6.09
-7.55
-8.61
-8.88
-8.31
-7.11
-5.52
-3.63
-1.34
1.46
4.71
7.96
10.58
11.99
12.01
10.94
9.40
7.93
6.69
5.46
3.89
1.95
0.06
-0.89
-0.07
2.85
7.43
12.57
17.02
19.77
20.46
19.31
16.88
13.71
10.15
6.31
2.20
-2.09
-6.36
-10.20
-13.07
-14.41
-13.82
-11.32
-7.36
-2.79
1.43
4.54
6.24
6.64
6.14
5.17
3.91
2.39
0.55
-1.61
-3.91
-6.11
-8.06
-9.78
-11.36
-12.96
-14.52
-15.91
-16.89
-17.36
-17.32
-16.96
-16.47
-15.96
-15.55
-15.26
-15.16
-15.21
-15.31
-15.14
-14.27
-12.30
-9.02
-4.58
0.55
5.78
10.58
14.61
17.73
20.02
21.55
22.38
22.43
21.58
19.72
16.94
13.63
10.43
8.11
7.23
8.02
10.11
12.77
15.15
16.56
16.66
15.46
13.15
10.01
6.41
2.77
-0.40
-2.66
-3.81
-3.98
-3.57
-3.00
-2.53
-2.15
-1.77
-1.40
-1.19
-1.39
-2.03
-2.82
-3.26
-2.89
-1.64
0.15
1.91
3.21
3.87
4.01
3.89
3.72
3.61
3.69
4.05
4.77
5.71
6.56
6.88
6.40
5.17
3.51
1.79
0.19
-1.43
-3.36
-5.77
-8.47
-10.99
-12.74
-13.33
-12.66
-10.95
-8.56
-5.81
-2.92
-0.06
2.63
4.92
6.57
7.34
7.13
6.00
4.14
1.80
-0.85
-3.63
-6.33
-8.69
-10.34
-10.94
-10.37
-8.89
-7.08
-5.70
-5.31
-6.03
-7.44
-8.89
-9.76
-9.77
-9.02
-7.85
-6.58
-5.34
-4.07
-2.64
-0.99
0.72
2.25
3.37
4.05
4.43
4.78
5.30
6.04
6.86
7.55
7.87
7.69
6.99
5.91
4.70
3.70
3.28
3.65
4.79
6.30
7.56
7.86
6.78
4.37
1.14
-2.09
-4.58
-5.97
-6.39
-6.44
-6.85
-8.10
-10.29
-13.04
-15.72
-17.69
-18.54
-18.21
-16.92
-15.05
-12.93
-10.86
-8.99
-7.37
-6.00
-4.76
-3.42
-1.73
0.47
3.14
6.06
8.89
11.33
13.20
14.46
15.11
15.13
14.46
13.02
10.88
8.30
5.68
3.48
2.05
1.42
1.32
1.21
0.47
-1.31
-4.26
-8.01
-12.00
-15.66
-18.63
-20.91
-22.67
-24.12
-25.36
-26.31
-26.74
-26.37
-25.04
-22.70
-19.56
-16.10
-12.99
-10.82
-9.78
-9.41
-8.68
-6.40
-1.63
5.85
15.43
25.91
35.96
44.51
50.99
55.26
57.42
57.69
56.30
53.64
50.25
46.74
43.66
41.30
39.62
38.35
37.13
35.76
34.20
32.54
30.80
28.80
26.16
22.36
17.05
10.14
1.85
-7.34
-16.82
-26.02
-34.45
-41.74
-47.63
-52.03
-55.10
-57.29
-59.19
-61.30
-63.88
-66.86
-70.06
-73.39
-76.85
-80.49
-83.98
-86.36
-86.10
-81.67
-72.23
-58.28
-41.68
-25.07
-10.96
-0.95
4.68
6.69
6.38
4.95
3.23
1.59
0.18
-0.89
-1.51
-1.69
-1.67
-1.80
-2.22
-2.51
-1.60
1.87
8.90
19.62
33.15
48.06
63.10
77.65
91.79
105.70
119.20
131.59
142.07
150.40
157.20
163.40
169.65
175.46
179.16
178.69
172.74
161.53
146.91
131.48
117.08
104.04
90.88
75.18
54.97
30.01
2.04
-25.58
-49.06
-65.83
-75.05
-78.36
-79.75
-85.02
-100.18
-129.22
-171.64
-221.04
-267.00
-297.09
-301.45
-276.33
-225.82
-160.81
-95.93
-45.58
-19.45
-22.16
-50.17
-93.81
-140.34
-177.99
-199.36
-202.89
-191.80
-170.23
-144.04
-116.04
-88.10
-62.62
-43.39
-34.76
-39.12
-54.64
-73.00
-85.90
-84.29
-63.58
-25.48
22.85
71.99
114.12
135.97
149.81
158.27
165.75
174.86
186.13
198.95
212.53
226.40
239.99
253.45
262.92
265.65
259.60
244.39
221.24
192.11
158.51
120.77
79.35
32.22
-20.23
-75.20
-127.43
-170.34
-198.12
-207.48
-198.42
-172.80
-135.06
-88.66
-36.73
16.98
67.11
107.04
130.77
135.34
122.70
97.99
68.21
39.28
15.00
-2.42
-11.41
-10.82
-0.95
15.66
34.32
50.42
61.47
67.89
71.50
72.96
70.34
60.07
40.00
12.37
-15.73
-35.04
-38.34
-23.98
3.58
36.14
65.45
85.80
94.58
91.36
76.93
53.04
22.84
-8.81
-36.16
-54.33
-61.20
-58.20
-49.53
-40.25
-34.30
-33.57
-37.91
-45.93
-55.49
-63.72
-66.98
-61.38
-44.22
-15.65
20.23
55.85
82.31
92.50
84.19
61.39
33.32
11.02
3.01
11.79
32.89
57.06
74.47
79.04
70.84
55.31
39.90
30.52
29.01
33.42
39.99
45.60
49.02
50.58
50.92
50.13
47.78
43.79
39.16
35.85
35.82
39.88
47.17
55.57
62.55
66.03
64.64
57.68
45.18
27.97
7.74
-13.30
-33.26
-51.42
-68.52
-86.08
-104.97
-124.46
-142.64
-157.53
-168.70
-178.16
-189.97
-208.68
-237.06
-274.15
-314.49
-349.42
-369.43
-367.10
-339.24
-287.62
-218.01
-138.25
-56.34
20.76
86.68
135.85
163.91
169.21
153.85
123.92
88.14
55.48
32.42
20.45
16.76
16.46
15.84
14.45
15.02
21.56
36.57
58.94
82.41
97.96
97.59
77.83
40.70
-7.58
-59.83
-110.99
-152.21
-175.97
-178.07
-159.85
-126.69
-84.46
-37.20
12.30
60.46
103.19
135.93
155.72
161.72
156.99
145.60
131.76
119.45
111.02
107.54
107.38
106.71
100.74
85.90
60.99
29.48
0.01
-18.46
-18.64
0.46
33.43
71.96
109.49
143.19
171.67
197.20
217.71
229.36
228.45
213.67
186.42
150.00
109.33
68.38
29.62
-9.40
-51.64
-98.51
-148.45
-197.29
-239.76
-271.22
-289.27
-294.07
-291.95
-289.98
-293.53
-304.61
-322.37
-344.76
-370.06
-397.87
-409.32
-394.78
-355.14
-301.56
-248.05
-204.16
-172.88
-151.86
-135.40
-115.89
-89.51
-54.74
-13.15
30.69
70.26
99.49
115.41
119.22
115.49
107.07
95.96
83.11
70.29
60.10
55.55
59.17
72.15
93.76
120.11
145.42
165.38
178.52
185.48
187.98
187.82
186.25
183.79
179.51
172.48
162.46
150.39
137.69
125.67
115.19
106.53
99.59
93.76
88.58
83.90
80.14
77.56
76.07
75.19
74.37
73.30
72.14
72.61
74.40
77.45
81.18
84.47
85.97
84.79
80.95
75.40
69.65
65.23
63.78
66.52
73.95
84.93
96.56
104.32
103.25
90.08
64.96
32.42
-0.24
-25.64
-39.63
-41.92
-35.49
-24.51
-12.23
-0.10
12.04
24.59
37.32
48.58
56.84
61.35
62.43
61.02
58.12
54.13
48.21
43.08
39.26
36.81
35.43
34.69
34.10
33.31
32.13
30.43
28.07
24.20
18.39
10.95
3.09
-3.20
-5.90
-3.84
2.75
12.37
22.27
30.11
34.58
35.72
34.54
32.45
30.50
29.10
28.03
26.50
24.00
20.56
16.85
13.85
12.44
12.86
14.47
15.93
15.54
12.14
5.53
-3.37
-12.94
-21.32
-26.82
-27.94
-23.39
-12.52
4.03
23.70
42.12
54.24
56.44
48.27
32.95
15.97
2.56
-4.71
-6.85
-7.41
-10.49
-18.80
-33.07
-52.52
-75.80
-101.52
-127.96
-152.65
-172.37
-184.15
-186.29
-179.66
-167.99
-156.15
-148.23
-146.03
-148.70
-153.31
-156.10
-153.72
-144.49
-129.57
-112.14
-96.18
-84.67
-78.40
-75.58
-72.67
-66.07
-54.06
-38.94
-25.37
-18.20
-20.11
-30.43
-45.03
-57.63
-61.94
-54.64
-40.30
-27.77
-26.61
-43.10
-78.42
-128.32
-183.87
-233.62
-266.58
-280.90
-277.78
-258.63
-224.19
-177.54
-125.97
-79.47
-47.26
-34.82
-52.36
-103.91
-184.57
-281.74
-381.96
-475.39
-554.93
-613.89
-645.87
-660.09
-668.91
-682.51
-705.61
-740.14
-787.00
-843.93
-904.22
-881.57
-726.34
-451.52
-128.60
167.17
397.60
560.55
672.01
750.59
809.79
843.47
844.04
812.28
760.52
705.15
658.44
626.61
609.67
604.34
595.41
570.87
528.49
476.93
428.62
392.34
371.60
365.40
370.07
372.61
362.12
334.79
294.33
249.21
205.09
164.76
128.67
96.22
60.16
15.17
-38.56
-95.12
-146.76
-187.63
-214.21
-225.58
-223.01
-214.95
-209.45
-210.73
-218.70
-231.46
-247.89
-267.65
-291.57
-295.07
-267.51
-216.22
-159.98
-113.44
-80.91
-60.49
-48.14
-39.17
-27.99
-12.54
9.25
38.24
71.39
100.66
115.78
110.63
87.29
55.55
24.45
0.11
-16.51
-28.89
-41.28
-55.25
-66.60
-67.53
-51.66
-20.45
19.11
58.31
89.38
110.75
122.12
123.66
114.54
93.61
60.84
21.12
-15.26
-36.26
-33.59
-7.66
33.14
76.21
110.49
130.27
136.76
136.10
135.61
140.73
153.07
170.91
190.13
205.03
209.90
200.51
175.64
137.69
91.74
43.17
-4.32
-48.39
-87.27
-120.35
-147.34
-167.95
-182.09
-190.82
-196.69
-203.16
-213.47
-229.98
-254.13
-286.36
-325.51
-368.42
-409.80
-442.83
-461.14
-461.24
-444.16
-414.91
-380.06
-344.82
-311.35
-279.34
-247.63
-216.08
-186.03
-159.54
-137.84
-120.25
-104.61
-88.59
-71.13
-52.73
-34.96
-19.39
-6.64
3.77
13.23
23.16
34.45
47.11
60.60
74.14
87.31
100.18
113.09
126.40
140.09
153.80
167.03
179.54
191.58
203.77
216.80
230.80
245.21
258.84
270.39
279.08
285.05
289.29
293.36
299.07
308.32
322.90
343.63
369.26
395.56
415.69
422.14
409.88
379.04
335.30
287.87
245.60
213.54
191.75
176.63
163.89
150.83
137.08
123.38
110.09
96.28
80.31
61.29
39.97
18.81
0.78
-11.96
-19.38
-23.39
-26.93
-32.41
-40.69
-50.69
-60.06
-66.43
-68.49
-66.71
-62.92
-59.51
-58.36
-60.08
-64.06
-68.86
-72.95
-75.12
-74.64
-71.09
-64.41
-54.98
-43.76
-32.41
-22.91
-17.07
-15.64
-18.08
-22.62
-26.96
-29.30
-28.91
-26.39
-23.14
-20.73
-20.07
-21.24
-23.44
-25.54
-26.54
-25.96
-24.13
-21.93
-20.54
-21.03
-24.09
-29.87
-37.96
-47.48
-57.16
-65.64
-71.55
-74.06
-73.05
-69.20
-63.80
-58.31
-53.93
-51.33
-50.64
-51.60
-53.81
-56.87
-60.39
-64.09
-67.67
-71.07
-74.51
-78.65
-84.28
-92.02
-101.68
-111.83
-119.82
-122.26
-116.18
-100.29
-75.94
-47.11
-19.36
1.82
12.71
12.40
3.03
-10.85
-23.20
-27.88
-20.09
2.30
37.86
81.72
126.87
166.37
195.39
212.23
217.85
214.40
204.02
188.53
170.07
151.74
137.37
130.13
130.72
136.58
142.70
143.97
137.48
123.70
105.59
86.78
69.71
54.94
41.96
30.39
20.87
14.87
13.92
18.53
27.71
39.23
50.40
59.10
64.29
66.18
65.75
64.09
61.52
57.15
49.20
36.01
17.44
-4.49
-25.86
-42.40
-51.45
-53.27
-50.76
-47.81
-47.20
-49.16
-51.70
-52.13
-48.96
-43.04
-37.13
-34.48
-37.06
-44.88
-56.10
-68.26
-79.37
-88.59
-95.93
-101.45
-104.63
-104.10
-98.43
-87.07
-71.03
-52.87
-35.85
-22.55
-13.93
-9.35
-7.19
-6.02
-5.31
-5.51
-7.39
-11.23
-16.26
-20.64
-22.27
-19.88
-14.05
-7.27
-3.25
-5.63
-16.58
-36.34
-63.62
-96.66
-134.16
-175.49
-219.77
-264.88
-307.09
-341.87
-365.54
-376.65
-376.26
-366.86
-350.80
-329.18
-301.95
-268.97
-231.19
-191.22
-152.74
-119.32
-93.17
-74.57
-62.07
-53.30
-45.75
-37.40
-27.21
-15.15
-2.04
10.74
21.78
30.23
35.88
39.18
41.06
42.57
44.76
48.53
54.15
60.64
65.40
64.49
54.20
32.97
2.87
-30.43
-59.61
-78.44
-84.10
-77.79
-63.39
-45.15
-25.86
-6.53
12.58
30.71
46.14
57.00
62.63
64.49
65.78
70.02
79.13
92.62
107.82
121.45
131.47
138.14
143.86
151.93
164.89
183.41
206.27
231.18
255.96
279.25
300.56
320.16
338.94
358.55
381.09
408.08
438.87
469.38
492.46
500.21
487.36
453.95
405.64
351.21
298.81
252.87
213.37
177.54
142.74
108.37
75.74
46.77
21.98
-0.33
-23.64
-51.74
-87.57
-132.47
-186.28
-247.38
-312.66
-377.28
-435.11
-479.85
-506.93
-515.17
-507.07
-487.80
-462.93
-436.60
-410.64
-385.45
-361.31
-339.41
-321.69
-309.61
-302.98
-299.39
-295.08
-286.42
-271.31
-249.74
-223.58
-195.24
-166.35
-137.02
-105.40
-68.63
-23.62
31.63
97.28
171.09
248.44
323.08
388.23
438.34
470.34
484.41
483.77
473.53
459.15
444.77
432.13
420.24
406.52
388.50
365.64
340.26
316.81
299.69
290.75
287.68
284.33
273.39
249.90
213.56
169.07
123.98
86.00
60.81
50.31
52.69
63.90
79.39
95.44
109.86
121.95
132.38
143.47
157.13
173.57
190.78
205.11
212.59
210.17
196.46
172.10
141.06
107.69
75.30
45.56
18.99
-4.33
-24.39
-41.61
-56.83
-69.14
-78.33
-85.20
-91.26
-97.58
-104.02
-109.34
-111.95
-124.12
-151.44
-191.83
-236.18
-274.89
-302.88
-319.64
-326.95
-326.88
-321.23
-309.35
-291.30
-268.37
-243.25
-218.46
-195.28
-173.81
-153.37
-133.29
-111.65
-87.83
-62.68
-38.71
-18.39
-2.82
7.64
13.54
15.89
16.73
17.51
18.85
19.96
20.08
19.11
17.59
16.50
16.78
19.48
24.85
32.41
40.27
46.81
51.08
52.86
52.49
50.21
45.68
37.09
26.56
13.44
-2.89
-22.33
-43.80
-65.53
-85.66
-102.99
-117.38
-129.74
-142.57
-158.38
-179.05
-205.06
-234.73
-264.12
-287.75
-300.20
-297.89
-281.02
-252.85
-218.65
-184.02
-153.34
-128.98
-111.16
-98.20
-86.84
-73.27
-53.44
-24.23
15.54
64.98
121.82
183.61
248.34
313.83
376.30
429.74
466.78
481.08
470.21
437.19
389.51
336.26
284.70
238.33
197.11
159.32
123.67
90.25
60.09
33.95
11.41
-9.19
-29.83
-52.08
-76.66
-103.56
-131.89
-159.84
-184.48
-202.31
-210.55
-208.58
-198.48
-183.96
-168.15
-151.46
-131.29
-103.89
-67.09
-22.45
25.00
69.00
104.70
130.13
145.73
152.61
151.05
140.54
121.16
95.21
67.30
42.80
25.69
16.86
13.70
11.37
4.95
-8.70
-29.54
-55.07
-82.06
-108.00
-132.10
-155.55
-180.42
-207.74
-235.71
-258.83
-269.33
-261.07
-232.04
-185.93
-131.73
-80.71
-42.18
-19.89
-11.20
-10.03
-12.88
-18.26
-25.54
-33.23
-39.11
-41.09
-38.68
-33.32
-29.09
-35.65
-59.37
-99.31
-147.32
-192.93
-228.05
-248.64
-253.78
-246.90
-241.47
-248.83
-272.03
-304.62
-336.22
-358.97
-370.10
-370.89
-368.05
-379.13
-416.30
-480.18
-561.32
-649.26
-738.92
-829.16
-916.99
-930.66
-826.28
-613.36
-351.71
-105.92
87.47
220.22
292.74
331.03
353.11
358.89
345.68
315.99
279.55
248.63
230.02
225.55
235.01
253.76
268.93
270.92
258.55
238.71
220.35
209.07
206.60
213.04
225.07
234.11
234.09
225.45
213.65
204.96
202.54
206.45
215.61
226.92
234.82
235.99
233.12
231.52
235.99
248.13
266.62
289.25
312.93
333.23
348.06
361.21
377.11
398.06
422.34
445.11
461.45
467.44
460.07
440.78
418.75
403.53
402.01
416.42
445.35
487.63
543.26
610.80
652.20
637.07
553.03
414.69
252.05
92.20
-46.77
-145.34
-212.98
-259.31
-287.44
-299.86
-299.67
-291.50
-282.78
-279.08
-284.26
-302.55
-334.24
-374.45
-418.31
-463.08
-499.82
-522.73
-529.73
-522.70
-505.26
-476.37
-431.40
-368.57
-291.95
-211.14
-138.72
-83.86
-49.42
-33.10
-28.21
-27.72
-27.36
-25.57
-22.19
-18.33
-14.57
-11.05
-8.25
-6.38
-5.69
-6.64
-9.15
-12.44
-15.99
-19.32
-22.09
-24.53
-26.89
-29.97
-34.42
-40.28
-46.75
-52.74
-57.06
-58.66
-57.47
-52.93
-45.20
-34.87
-22.66
-9.16
4.90
18.71
31.48
42.49
51.24
57.13
59.55
57.94
52.08
42.02
28.22
11.83
-5.41
-21.11
-33.17
-40.33
-42.42
-39.95
-34.20
-26.63
-18.25
-9.48
0.17
10.93
22.12
32.02
38.85
41.07
38.15
31.07
22.16
15.04
13.28
20.12
35.41
60.23
94.89
136.97
180.10
214.87
233.19
231.07
210.36
177.79
141.78
107.91
77.16
47.25
10.40
-34.76
-83.99
-130.83
-171.31
-205.89
-238.10
-270.58
-302.10
-329.94
-349.86
-359.27
-358.58
-350.36
-337.32
-321.46
-303.87
-284.79
-264.12
-241.16
-215.85
-189.14
-162.55
-137.36
-114.29
-93.13
-73.17
-53.81
-34.35
-14.79
4.14
21.58
37.20
51.35
65.15
79.76
95.86
113.53
132.06
150.26
167.02
181.83
194.93
207.49
221.24
238.07
259.64
286.27
315.90
343.85
363.76
369.63
358.76
332.53
296.12
256.66
220.70
192.36
172.70
160.55
153.66
150.76
150.55
151.55
152.06
150.63
147.01
142.57
140.12
142.92
155.18
179.06
214.20
257.78
305.27
351.54
391.62
420.90
435.38
433.95
416.59
384.78
341.56
291.14
238.27
187.30
141.44
90.41
29.49
-41.15
-115.83
-185.63
-242.91
-284.08
-309.90
-323.56
-328.81
-326.63
-317.53
-302.18
-281.86
-258.68
-234.87
-212.15
-191.60
-173.37
-155.46
-136.04
-114.24
-90.39
-65.95
-42.77
-22.45
-5.98
5.85
13.87
19.18
22.56
24.49
25.17
24.87
24.24
23.52
23.22
24.25
27.16
31.83
37.56
43.43
48.59
52.70
54.97
55.19
53.50
49.92
43.98
34.79
21.16
1.46
-19.93
-40.79
-59.33
-74.58
-86.51
-95.96
-104.17
-111.96
-119.28
-124.67
-126.61
-123.18
-113.22
-96.94
-76.01
-52.91
-29.95
-8.49
11.61
30.65
49.02
66.17
80.17
88.20
87.51
76.32
54.12
21.70
-19.56
-66.36
-112.70
-150.14
-169.47
-164.41
-135.28
-90.30
-43.06
-6.97
11.13
13.35
8.26
5.08
8.40
16.75
25.36
30.54
32.40
34.22
39.09
46.77
53.22
53.09
43.21
24.80
2.85
-16.51
-28.92
-33.16
-30.70
-24.10
-15.82
-7.47
0.23
7.04
13.06
18.49
23.55
28.28
32.45
35.39
36.05
33.15
25.36
11.76
-7.77
-32.25
-60.19
-89.73
-119.42
-148.50
-177.02
-205.84
-236.62
-271.66
-313.28
-362.77
-418.66
-475.79
-525.98
-560.31
-572.63
-562.17
-533.99
-496.84
-459.78
-428.64
-404.88
-386.54
-370.41
-354.25
-337.42
-320.36
-303.32
-285.98
-266.94
-244.33
-216.59
-182.99
-144.16
-101.67
-57.36
-12.64
30.99
72.96
113.64
153.99
195.14
238.19
284.24
334.34
388.54
443.03
491.06
524.27
535.32
520.48
481.12
423.44
356.54
289.26
225.62
166.25
110.16
56.98
7.62
-36.15
-72.78
-101.58
-112.48
-100.61
-68.30
-25.48
16.05
48.67
70.37
82.77
87.92
89.59
87.53
80.03
65.49
43.44
14.16
-22.20
-65.77
-115.64
-168.81
-221.31
-266.75
-297.81
-308.62
-297.46
-267.49
-225.47
-178.60
-131.92
-88.56
-48.99
-12.43
21.80
52.92
78.83
97.08
106.38
107.97
105.15
102.99
106.20
116.42
131.14
144.79
151.81
150.15
142.82
136.32
136.80
146.57
163.01
180.44
193.67
200.39
201.20
197.49
188.76
172.24
144.89
107.00
64.27
26.88
5.43
5.68
25.15
53.50
77.20
85.32
73.45
44.09
3.61
-41.08
-84.58
-122.59
-150.33
-162.05
-153.31
-125.22
-86.89
-53.62
-40.95
-56.69
-96.70
-146.47
-187.87
-207.87
-203.35
-180.06
-147.60
-114.03
-83.27
-56.07
-32.92
-15.83
-7.66
-9.78
-19.93
-32.58
-41.38
-42.02
-34.25
-21.37
-8.43
0.06
1.45
-4.74
-17.64
-35.59
-56.61
-78.62
-99.43
-117.15
-130.40
-138.35
-140.63
-137.14
-127.61
-111.47
-88.08
-57.08
-18.90
25.09
72.60
120.99
167.86
211.66
252.13
290.08
327.01
364.82
405.65
451.42
502.88
558.42
613.25
660.09
691.10
700.70
687.68
655.68
611.39
561.90
512.33
465.03
420.50
378.80
340.60
307.10
279.16
256.49
237.53
220.24
203.01
185.47
168.28
152.77
140.14
130.80
124.16
118.94
113.74
107.49
99.95
91.59
83.36
76.11
70.19
65.24
60.35
54.42
46.63
36.79
25.47
13.55
2.15
-7.90
-16.32
-23.60
-30.69
-38.51
-47.46
-57.08
-66.51
-74.61
-80.69
-84.92
-88.51
-93.28
-100.93
-112.19
-126.47
-142.72
-159.42
-175.67
-191.53
-208.24
-227.38
-249.80
-275.30
-302.72
-332.42
-364.78
-399.31
-433.31
-461.70
-478.49
-479.09
-462.78
-432.99
-397.88
-363.01
-328.32
-289.21
-241.47
-186.48
-132.55
-91.68
-73.66
-85.63
-124.67
-179.97
-238.82
-292.94
-340.97
-385.68
-429.66
-472.24
-514.74
-554.77
-586.94
-605.43
-606.87
-591.89
-564.06
-528.13
-455.26
-336.88
-186.37
-32.56
98.64
195.46
258.30
293.53
309.05
312.41
304.87
288.42
266.85
245.21
227.54
215.05
207.09
202.46
200.07
195.22
184.86
168.76
149.00
128.02
107.11
86.75
67.36
49.43
31.71
13.93
-2.67
-15.77
-23.51
-25.45
-22.51
-16.26
-8.47
-1.57
2.61
3.40
1.13
-3.54
-10.23
-18.85
-29.39
-41.84
-55.93
-71.33
-87.36
-103.03
-117.30
-129.23
-137.93
-142.20
-144.06
-143.90
-141.96
-138.37
-133.29
-126.95
-119.60
-111.62
-103.36
-95.36
-87.57
-80.16
-73.26
-67.02
-61.52
-56.77
-52.78
-49.47
-46.83
-44.42
-41.97
-39.24
-36.10
-32.49
-28.38
-23.83
-18.94
-13.86
-8.49
-2.82
3.18
9.55
16.27
23.33
30.59
37.89
44.93
51.41
56.97
61.17
63.62
63.98
62.08
57.85
51.48
43.30
33.78
23.54
13.11
2.98
-6.53
-15.19
-22.97
-29.91
-36.04
-41.42
-45.99
-49.70
-52.43
-54.08
-54.54
-53.74
-51.56
-47.87
-42.49
-35.19
-25.90
-14.66
-1.80
12.19
26.68
41.08
55.06
68.48
81.51
94.36
107.19
119.86
132.02
143.22
153.11
161.68
169.30
176.70
184.59
193.43
203.23
213.57
223.86
233.57
242.55
250.99
259.49
268.82
280.03
294.18
311.94
333.12
355.94
377.12
392.47
398.26
392.59
376.11
351.59
322.71
292.74
263.56
235.91
209.84
185.59
163.72
144.83
129.08
115.89
104.24
92.99
81.50
69.59
57.53
45.64
33.96
22.31
10.35
-2.06
-14.77
-27.28
-38.95
-49.32
-58.26
-66.07
-73.13
-79.76
-85.95
-91.53
-96.33
-100.31
-103.67
-106.60
-109.30
-111.73
-113.95
-116.26
-119.19
-123.32
-128.61
-134.16
-138.24
-139.12
-135.62
-127.66
-115.81
-100.70
-82.54
-61.06
-36.30
-9.31
17.56
41.14
58.61
68.48
70.99
67.47
59.51
48.15
33.90
17.24
-0.83
-18.75
-34.68
-47.12
-55.44
-59.80
-60.94
-59.54
-55.97
-50.36
-42.95
-34.47
-26.08
-19.07
-14.06
-10.82
-8.20
-4.72
0.73
8.50
18.16
29.01
40.41
52.06
63.66
74.55
83.57
89.26
90.46
86.75
78.71
67.43
54.22
40.27
26.74
14.92
6.22
1.93
2.63
7.92
16.38
26.06
35.21
42.53
47.42
49.57
48.87
45.27
38.98
30.54
20.85
10.96
1.56
-6.92
-14.48
-21.14
-26.81
-31.11
-33.46
-33.28
-30.12
-24.01
-15.49
-5.79
3.41
10.16
12.74
10.12
2.15
-10.32
-25.83
-42.58
-58.99
-73.87
-86.44
-96.36
-103.47
-107.81
-109.40
-108.39
-104.96
-99.51
-92.71
-85.23
-77.72
-70.49
-63.62
-57.03
-50.84
-45.53
-41.90
-40.84
-42.86
-47.85
-54.95
-62.80
-69.71
-74.02
-74.40
-69.98
-60.74
-47.44
-31.74
-15.70
-1.54
9.07
15.23
17.10
15.73
12.74
9.87
8.45
9.22
12.28
17.26
23.64
30.84
38.43
45.95
52.99
59.02
63.66
66.59
67.50
66.02
61.46
53.09
40.26
23.05
2.54
-18.94
-38.30
-52.41
-58.97
-57.38
-48.68
-35.29
-19.98
-5.26
7.15
16.21
21.22
21.81
17.88
10.01
-0.51
-11.73
-21.72
-29.06
-33.22
-34.59
-33.90
-32.09
-29.75
-27.22
-24.50
-21.40
-17.55
-12.43
-5.48
3.86
15.60
29.10
42.80
54.65
62.64
65.36
62.44
54.34
42.19
27.31
11.14
-4.63
-18.07
-27.35
-31.47
-30.91
-27.97
-25.81
-27.31
-33.66
-43.91
-55.44
-65.14
-70.71
-71.25
-67.41
-60.62
-52.49
-44.09
-35.73
-26.98
-16.84
-4.17
11.94
31.69
54.36
78.27
100.92
119.57
131.60
135.20
129.66
115.71
95.32
71.40
47.21
25.67
8.92
-2.07
-7.43
-8.27
-6.21
-3.08
-0.63
-0.26
-3.08
-9.53
-19.48
-31.93
-45.22
-57.21
-65.91
-69.98
-69.13
-64.17
-56.59
-48.14
-40.12
-33.23
-27.45
-22.30
-17.27
-11.95
-6.26
-0.39
5.21
9.87
12.72
12.92
10.03
4.26
-3.19
-10.60
-16.04
-18.20
-16.80
-12.72
-7.52
-2.76
0.42
1.65
0.98
-1.30
-4.98
-9.80
-15.41
-21.25
-26.54
-30.59
-32.91
-33.45
-32.42
-30.19
-27.11
-23.44
-19.43
-15.27
-11.22
-7.38
-3.89
-0.84
1.57
3.02
3.18
1.80
-0.97
-4.77
-8.97
-13.07
-16.84
-20.33
-23.82
-27.41
-30.90
-33.79
-35.61
-36.07
-35.45
-34.60
-34.78
-37.33
-43.18
-52.58
-64.65
-77.48
-88.15
-93.19
-89.40
-74.64
-48.70
-13.51
27.09
68.37
105.78
135.93
157.13
169.21
173.23
170.72
163.32
152.48
139.40
125.06
110.18
95.19
80.22
65.35
50.63
36.32
22.95
11.25
1.87
-4.87
-9.16
-11.79
-13.63
-15.35
-16.96
-17.77
-16.85
-13.46
-7.67
-0.29
7.31
13.87
18.55
21.20
22.01
21.31
19.31
16.20
12.30
8.18
4.51
1.87
0.49
0.19
0.42
0.54
-0.19
-2.41
-6.64
-13.07
-21.33
-30.43
-38.89
-45.37
-49.16
-50.76
-51.67
-53.85
-58.86
-67.16
-77.99
-89.69
-100.43
-108.58
-113.14
-113.64
-110.13
-103.10
-93.35
-81.68
-68.46
-53.34
-35.38
-13.76
11.40
38.43
64.26
85.39
99.21
105.02
104.21
99.47
93.55
88.27
84.03
80.09
75.33
68.99
61.10
52.40
43.96
36.67
30.88
26.33
22.40
18.48
14.15
9.30
3.93
-1.93
-8.25
-14.91
-21.59
-27.73
-32.59
-35.55
-36.17
-34.43
-30.64
-25.44
-19.75
-14.57
-10.84
-9.09
-9.36
-11.04
-13.17
-14.79
-15.39
-15.24
-15.16
-16.13
-18.64
-22.59
-27.23
-31.76
-35.66
-38.72
-40.66
-40.60
-37.29
-29.86
-19.01
-7.37
1.23
3.55
-1.33
-11.42
-22.73
-31.44
-35.60
-35.75
-33.96
-32.26
-31.35
-30.52
-28.69
-25.44
-21.67
-19.07
-19.25
-22.95
-29.80
-38.70
-48.25
-57.21
-64.53
-69.27
-70.44
-66.92
-57.81
-42.77
-22.52
0.96
24.69
45.47
60.70
69.20
71.42
68.99
64.04
58.36
53.01
48.26
43.84
39.11
33.24
25.51
15.75
4.82
-5.28
-12.04
-13.58
-9.89
-3.14
3.11
5.64
3.01
-3.62
-11.32
-16.80
-17.93
-14.47
-7.72
0.43
8.42
15.44
21.32
26.12
29.84
32.32
33.30
32.61
30.24
26.44
21.66
16.53
11.70
7.66
4.51
1.86
-1.02
-4.91
-10.11
-16.34
-22.64
-27.76
-30.70
-31.08
-29.39
-26.67
-24.21
-22.99
-23.55
-25.79
-29.26
-33.25
-37.21
-40.86
-44.34
-48.28
-53.42
-60.37
-69.17
-79.13
-88.82
-96.20
-99.02
-95.20
-83.50
-64.05
-38.90
-11.59
13.79
34.10
48.52
58.66
67.72
78.60
92.49
108.20
123.11
134.73
141.94
145.39
146.73
147.38
147.63
146.54
142.55
134.36
121.68
105.40
87.34
69.69
54.50
43.07
35.73
31.81
29.99
28.84
27.30
25.08
22.36
19.47
16.39
12.54
7.18
0.01
-8.35
-16.44
-22.39
-24.95
-24.05
-20.77
-16.84
-13.84
-12.86
-14.35
-18.44
-25.09
-34.13
-45.13
-57.23
-69.09
-79.08
-85.67
-87.85
-85.54
-79.76
-72.43
-65.72
-61.26
-59.76
-61.19
-65.44
-72.74
-83.28
-96.02
-107.54
-112.22
-104.12
-80.06
-41.82
3.71
47.13
80.30
99.48
106.03
104.44
99.49
93.68
86.79
77.14
63.39
45.98
27.14
9.91
-3.27
-11.49
-15.50
-17.01
-17.75
-18.62
-19.44
-19.38
-17.61
-13.95
-9.03
-3.94
0.28
3.12
4.69
5.46
5.72
5.19
3.06
-1.62
-9.30
-19.40
-30.32
-39.98
-46.63
-49.54
-49.17
-46.82
-43.85
-41.06
-38.51
-35.81
-32.60
-28.92
-25.18
-21.83
-19.12
-16.90
-14.85
-12.61
-10.00
-7.04
-3.80
-0.34
3.42
7.57
12.17
17.15
22.23
26.97
30.74
32.79
32.40
29.19
23.24
15.27
6.43
-1.88
-8.40
-12.20
-12.90
-10.58
-5.82
0.46
7.12
13.01
17.19
19.21
19.13
17.40
14.60
11.19
7.33
3.03
-1.72
-6.82
-11.95
-16.62
-20.25
-22.30
-22.42
-20.52
-16.86
-11.90
-6.23
-0.36
5.38
10.78
15.61
19.45
21.87
22.60
21.80
20.13
18.45
17.35
16.79
15.97
13.70
9.07
1.87
-7.08
-16.24
-23.94
-29.01
-31.17
-30.99
-29.54
-27.89
-26.69
-26.00
-25.56
-24.97
-24.11
-23.09
-22.11
-21.24
-20.28
-18.90
-16.79
-13.92
-10.56
-7.18
-4.23
-1.95
-0.48
0.29
0.41
0.07
-0.53
-1.06
-1.20
-0.82
-0.07
0.51
0.28
-1.31
-4.27
-8.01
-11.21
-12.18
-9.23
-1.24
11.75
28.54
46.83
64.00
77.91
87.48
92.91
95.22
95.66
94.93
93.16
90.05
85.30
79.07
71.90
64.52
57.32
50.30
43.03
35.10
26.36
17.20
8.48
1.29
-3.38
-5.00
-3.65
-0.15
4.21
7.81
9.18
7.36
2.14
-5.85
-15.53
-25.60
-35.15
-43.81
-51.67
-59.10
-66.37
-73.52
-80.37
-86.69
-92.23
-96.76
-99.89
-101.12
-100.14
-97.19
-93.23
-89.42
-86.54
-84.26
-81.26
-76.04
-67.99
-58.01
-47.92
-39.22
-31.57
-22.63
-8.91
12.45
42.23
78.90
119.33
160.24
198.95
233.64
262.85
285.23
299.62
305.51
303.45
294.62
280.27
260.74
235.42
203.23
163.74
117.82
67.57
15.91
-34.46
-81.16
-122.41
-156.52
-181.93
-197.45
-202.76
-199.00
-188.45
-174.21
-158.96
-144.34
-130.58
-117.00
-102.83
-88.03
-73.75
-61.87
-54.21
-51.35
-52.34
-54.99
-56.94
-56.98
-55.37
-53.72
-53.56
-55.55
-58.95
-62.10
-63.50
-62.45
-59.37
-55.13
-50.55
-45.70
-40.23
-33.80
-26.55
-19.37
-13.47
-9.95
-9.11
-10.53
-13.04
-15.49
-17.04
-17.35
-16.61
-15.03
-12.93
-10.39
-7.59
-4.69
-1.99
0.27
2.19
3.98
6.12
8.74
11.78
14.67
16.91
18.24
18.77
19.07
19.53
20.45
21.68
23.10
24.57
26.19
28.06
30.04
31.72
32.34
31.45
28.91
25.31
21.62
18.89
17.90
18.68
20.81
23.11
24.40
23.55
20.06
14.29
7.20
0.24
-5.48
-9.12
-10.68
-10.40
-8.89
-6.70
-4.27
-1.99
0.03
1.67
3.23
4.86
6.79
8.94
11.11
13.17
15.07
17.06
19.25
21.84
24.95
29.09
35.08
43.65
55.06
68.13
80.70
89.92
93.94
92.70
88.11
82.94
78.91
75.66
70.30
59.30
40.22
13.53
-17.51
-48.75
-77.18
-102.74
-127.64
-154.78
-185.03
-216.84
-246.93
-272.44
-292.49
-307.92
-319.73
-326.68
-325.15
-310.15
-278.90
-232.61
-176.65
-118.38
-63.87
-16.18
24.46
56.96
80.45
91.86
89.22
74.81
55.72
41.36
38.42
47.08
60.21
66.90
58.13
31.95
-5.06
-40.79
-63.32
-66.13
-49.87
-20.54
14.61
50.33
84.95
119.77
157.05
197.08
236.51
268.91
287.40
288.32
273.52
249.76
226.09
210.20
204.54
205.45
205.71
199.10
183.75
162.56
140.67
122.75
111.99
109.28
113.73
123.15
134.10
141.88
141.06
127.18
93.60
40.92
-22.57
-84.03
-132.60
-164.21
-181.11
-187.78
-187.56
-181.79
-170.46
-154.61
-136.92
-121.00
-109.65
-103.57
-101.16
-99.79
-97.09
-91.27
-82.27
-71.55
-61.43
-53.85
-49.47
-47.49
-46.37
-44.65
-41.17
-35.75
-29.20
-22.88
-18.01
-15.06
-13.63
-12.90
-12.08
-10.53
-8.09
-5.03
-1.95
0.64
2.59
4.17
5.81
7.88
10.54
13.65
16.80
19.38
20.75
20.52
18.50
14.80
9.73
3.84
-2.18
-7.58
-11.59
-13.54
-12.97
-9.58
-3.44
5.03
15.07
25.83
36.10
44.72
50.61
52.89
50.92
44.59
34.27
20.77
5.44
-10.32
-24.98
-37.07
-45.47
-49.59
-49.37
-45.13
-37.72
-28.12
-17.55
-7.13
2.20
9.70
15.12
18.30
19.40
18.58
16.11
12.19
7.15
1.32
-4.93
-10.77
-15.30
-17.53
-16.76
-12.45
-4.61
6.22
19.10
32.53
45.15
55.73
63.10
66.30
64.70
57.99
46.15
30.61
12.32
-7.07
-25.63
-41.73
-54.29
-63.10
-68.59
-71.85
-73.91
-75.70
-77.42
-78.68
-79.12
-78.74
-77.82
-76.97
-76.74
-77.17
-78.22
-79.93
-82.82
-87.98
-95.57
-103.49
-107.46
-102.33
-84.59
-54.86
-18.85
17.76
49.50
73.97
91.86
104.75
112.63
113.25
103.59
82.72
53.72
22.73
-3.41
-20.25
-27.62
-29.01
-28.85
-30.56
-35.16
-41.73
-49.24
-57.51
-67.24
-79.69
-94.95
-110.70
-122.34
-124.19
-112.20
-86.43
-51.52
-14.50
17.51
40.05
52.51
57.20
57.68
56.80
55.92
55.15
55.17
56.90
61.02
67.46
74.72
80.71
84.21
85.76
84.49
83.91
89.53
106.53
137.26
178.97
223.59
260.05
277.41
267.95
232.15
178.02
116.79
58.34
7.15
-38.67
-83.91
-133.70
-191.68
-254.84
-314.14
-359.40
-382.40
-379.05
-349.85
-297.69
-229.83
-159.94
-100.71
-59.35
-37.18
-28.41
-22.29
-7.61
25.08
77.36
139.29
199.89
253.31
298.05
336.70
373.15
393.69
388.11
377.38
367.33
346.46
309.60
255.44
186.55
108.58
27.78
-48.24
-115.30
-177.12
-237.63
-297.78
-357.85
-417.06
-473.18
-522.63
-558.30
-573.20
-565.75
-536.67
-488.50
-427.15
-360.30
-294.90
-236.27
-186.40
-146.32
-118.75
-104.79
-102.65
-108.90
-119.33
-129.90
-138.24
-143.12
-144.98
-146.15
-148.10
-150.63
-152.50
-152.26
-148.64
-141.43
-131.03
-118.54
-105.46
-92.60
-79.81
-66.35
-51.46
-34.61
-15.97
3.83
23.90
43.51
62.24
79.97
96.74
112.35
126.53
138.80
149.00
157.42
164.86
172.45
181.15
191.47
203.20
215.88
228.87
241.99
255.49
269.89
285.82
303.92
325.05
350.13
379.66
412.52
445.30
472.22
486.53
482.74
458.83
417.25
364.15
307.49
254.42
209.69
175.02
149.73
131.97
119.57
110.55
102.78
93.75
80.60
61.19
35.38
5.81
-22.47
-44.21
-56.63
-61.14
-62.82
-67.75
-79.49
-96.95
-114.81
-126.33
-126.94
-116.18
-97.40
-75.32
-53.43
-32.65
-11.84
10.32
33.94
57.15
77.18
91.65
99.84
102.64
101.51
97.19
88.91
74.80
52.91
22.64
-14.44
-54.35
-91.30
-118.76
-130.92
-124.43
-99.70
-61.57
-18.33
20.37
46.25
54.42
44.01
17.28
-21.86
-68.75
-118.00
-162.88
-195.62
-208.86
-197.92
-162.80
-108.30
-42.00
28.88
99.70
168.37
233.53
291.87
337.28
362.25
360.97
332.20
279.90
211.62
135.67
59.13
-12.66
-75.15
-123.76
-154.24
-164.28
-155.45
-133.76
-108.38
-88.58
-80.75
-86.49
-102.78
-123.26
-140.81
-149.61
-146.58
-131.96
-109.02
-83.21
-60.92
-48.12
-49.27
-66.03
-96.45
-134.54
-171.36
-197.17
-204.41
-190.15
-156.77
-110.46
-58.06
-4.24
49.38
102.47
153.30
196.74
224.83
229.75
207.38
159.44
92.87
17.30
-58.01
-125.89
-181.55
-222.06
-245.99
-253.83
-248.50
-235.22
-219.75
-206.25
-195.40
-184.31
-168.29
-143.19
-107.46
-62.47
-11.84
39.93
88.51
130.35
163.14
186.54
202.73
216.25
232.67
256.12
287.04
321.25
351.48
370.23
372.77
358.57
330.45
292.30
247.12
196.35
140.69
81.52
21.51
-36.27
-89.76
-139.24
-186.94
-235.22
-284.05
-329.74
-365.63
-384.56
-382.09
-358.46
-318.64
-270.33
-221.55
-178.54
-145.04
-122.85
-112.50
-113.39
-123.11
-137.02
-148.36
-149.85
-136.00
-105.25
-60.80
-9.51
40.40
82.26
112.38
130.14
136.46
132.01
116.31
88.43
49.08
2.31
-43.89
-79.42
-95.22
-86.70
-55.65
-9.47
41.76
89.16
127.82
157.45
181.03
202.18
223.11
244.17
265.02
285.98
308.36
333.17
359.28
382.21
394.99
390.84
366.24
323.00
267.67
209.08
155.18
110.90
77.33
52.64
33.61
16.70
-1.02
-21.92
-47.73
-79.61
-117.77
-160.97
-206.00
-247.57
-279.29
-295.46
-293.18
-273.69
-242.19
-206.11
-172.56
-146.24
-128.81
-119.83
-117.79
-120.77
-126.08
-129.34
-124.47
-104.80
-65.49
-5.84
69.54
151.33
227.60
286.72
319.92
322.88
296.14
244.32
174.86
96.24
16.41
-58.48
-124.95
-182.51
-233.24
-280.52
-327.14
-373.07
-414.43
-444.02
-453.75
-437.84
-395.22
-330.26
-251.27
-168.13
-90.14
-24.52
24.18
54.80
69.93
76.02
82.05
96.76
125.33
166.98
215.25
260.54
294.05
310.38
308.57
290.63
259.40
216.91
164.11
101.97
32.88
-38.27
-104.48
-157.97
-192.41
-204.52
-194.69
-166.69
-126.40
-80.75
-36.85
-1.36
20.42
25.91
16.60
-1.12
-17.16
-20.62
-3.78
34.87
89.85
150.92
206.77
248.44
271.19
273.77
257.14
222.89
172.99
110.36
39.31
-34.72
-106.57
-172.48
-230.82
-281.25
-323.50
-356.11
-376.14
-380.26
-366.06
-333.35
-284.09
-221.98
-151.44
-77.06
-3.73
62.97
116.64
151.15
162.75
152.54
127.60
99.82
82.27
84.45
108.57
148.71
193.67
231.55
254.27
259.38
249.11
227.50
197.77
161.22
117.64
66.70
8.84
-54.37
-120.09
-184.05
-240.22
-281.28
-300.12
-292.40
-258.75
-205.31
-141.87
-78.92
-24.80
15.47
40.06
49.80
48.03
41.01
37.24
45.05
68.60
104.97
144.30
174.30
186.25
179.17
159.46
135.96
113.61
89.98
57.17
7.81
-58.42
-132.22
-197.62
-238.75
-246.53
-221.67
-172.91
-112.24
-50.15
6.59
54.62
91.88
116.03
124.17
114.32
87.44
48.45
5.48
-32.72
-59.56
-72.47
-72.83
-64.43
-51.25
-36.03
-20.46
-6.30
3.61
5.87
-1.84
-18.67
-39.97
-58.80
-68.85
-67.21
-55.08
-36.52
-15.79
4.56
23.91
42.53
60.16
75.49
86.48
91.54
90.17
83.25
72.60
60.48
49.15
40.37
35.11
32.99
32.31
30.39
24.89
14.82
1.38
-12.30
-22.25
-25.08
-19.01
-4.12
18.02
44.73
72.23
95.52
108.98
108.01
91.39
63.01
31.31
6.09
-5.86
-4.01
5.65
13.95
13.17
0.73
-20.37
-43.87
-63.81
-77.05
-83.51
-84.85
-82.86
-79.03
-74.80
-72.35
-74.58
-84.15
-101.98
-125.73
-149.61
-165.36
-165.05
-144.37
-104.84
-54.08
-3.08
38.12
64.54
77.80
84.74
93.05
106.93
124.84
140.29
145.30
134.31
106.89
67.61
24.27
-15.07
-44.56
-61.64
-67.03
-63.59
-54.99
-44.64
-35.18
-28.16
-23.89
-20.99
-16.11
-4.74
17.18
51.08
94.06
138.75
175.04
193.16
186.97
156.52
108.67
56.00
13.62
-5.43
5.30
43.13
96.71
149.95
187.86
201.29
188.87
155.32
107.68
51.89
-8.39
-71.01
-133.89
-194.47
-250.51
-301.05
-346.35
-386.68
-420.43
-443.23
-449.11
-433.11
-393.76
-334.48
-262.49
-186.39
-113.33
-47.57
9.48
57.85
98.04
130.73
157.52
181.40
205.99
233.77
264.20
293.24
314.48
321.94
312.49
286.75
248.25
201.23
148.75
91.99
30.99
-33.66
-99.25
-160.52
-210.49
-242.09
-250.44
-234.60
-198.07
-148.23
-94.35
-45.02
-6.41
18.24
28.10
23.64
6.26
-21.30
-54.11
-84.78
-105.06
-108.73
-94.64
-67.68
-37.10
-12.42
0.70
2.45
-2.49
-8.77
-14.37
-22.14
-37.97
-66.51
-107.19
-152.76
-191.58
-212.27
-208.45
-181.20
-137.92
-88.97
-43.38
-6.03
22.89
46.27
67.69
89.93
114.09
139.62
164.48
185.28
197.53
196.51
179.04
145.60
101.56
56.57
22.39
9.64
24.78
68.32
134.89
214.90
297.15
371.54
430.74
470.58
489.35
486.74
463.20
420.05
360.34
289.16
213.33
139.89
74.32
18.98
-26.93
-65.85
-99.91
-129.47
-153.31
-169.87
-178.94
-182.64
-184.82
-189.53
-199.05
-212.89
-227.96
-239.81
-243.75
-235.62
-212.43
-173.15
-119.68
-57.53
4.81
57.81
93.81
109.50
106.69
90.74
67.67
41.53
13.27
-18.31
-54.46
-94.85
-137.09
-177.66
-213.32
-242.07
-263.09
-275.79
-279.05
-271.10
-250.27
-216.42
-171.98
-122.08
-73.44
-32.64
-4.51
8.74
7.87
-3.64
-20.18
-34.94
-41.19
-33.75
-10.47
27.24
74.68
125.19
171.91
209.08
232.75
240.47
230.89
203.46
159.02
100.74
35.08
-28.57
-79.62
-109.07
-112.26
-90.26
-49.34
1.56
53.81
101.17
140.38
169.99
188.87
195.25
186.99
162.61
122.36
68.76
6.66
-56.94
-113.33
-152.94
-167.34
-152.34
-110.64
-52.22
8.30
57.01
85.88
95.09
91.25
82.39
73.21
62.77
46.42
19.62
-18.31
-63.26
-108.36
-147.28
-176.88
-197.64
-212.17
-222.99
-230.96
-235.09
-233.27
-223.59
-205.13
-178.28
-144.57
-106.30
-66.07
-26.62
9.65
41.17
67.54
89.94
111.06
134.47
163.61
200.38
243.84
289.99
332.71
365.56
383.93
386.20
373.54
348.63
314.16
271.78
222.43
167.30
108.51
48.83
-9.05
-63.05
-111.74
-153.47
-185.79
-205.65
-210.48
-199.77
-175.72
-143.23
-108.43
-77.17
-53.95
-41.51
-40.93
-51.76
-72.23
-99.41
-129.33
-157.12
-177.35
-184.59
-174.57
-145.81
-100.77
-45.95
9.97
59.27
98.40
129.05
156.45
185.76
218.55
252.24
282.21
305.51
323.11
339.06
356.77
375.39
388.91
388.40
366.70
322.51
261.16
192.00
124.02
62.23
6.91
-44.34
-93.96
-142.28
-187.59
-227.40
-260.35
-287.26
-310.82
-334.50
-361.26
-393.21
-431.23
-474.88
-521.91
-567.65
-605.23
-626.92
-626.53
-601.65
-555.03
-493.59
-426.09
-360.24
-300.81
-249.10
-203.95
-163.14
-124.14
-84.45
-41.42
7.36
62.90
123.50
184.06
236.87
273.55
288.32
280.24
253.97
218.22
182.71
154.88
137.74
130.06
128.23
129.10
131.92
138.55
151.77
172.60
198.31
222.09
234.88
228.43
198.43
145.79
76.18
-2.18
-80.87
-152.84
-212.91
-257.39
-283.96
-291.82
-282.37
-259.51
-229.14
-197.96
-171.51
-152.65
-140.68
-131.99
-121.38
-104.16
-77.82
-42.79
-2.04
40.31
80.54
116.79
149.32
179.99
210.91
243.02
275.38
305.15
328.50
341.80
342.75
330.91
307.87
276.86
242.20
208.59
180.29
160.33
149.99
148.59
153.76
162.05
169.94
174.47
173.80
166.98
153.80
134.41
109.54
80.88
51.47
25.51
7.15
-0.94
1.28
11.26
24.84
37.77
46.70
49.18
43.22
27.01
-0.24
-37.17
-79.35
-120.07
-152.51
-172.25
-178.74
-174.82
-164.93
-153.06
-142.04
-133.65
-129.16
-129.40
-134.06
-141.08
-146.44
-145.19
-132.90
-107.58
-70.78
-27.87
12.99
43.06
55.62
48.58
25.57
-4.54
-30.39
-41.41
-31.10
0.87
48.60
101.37
146.74
173.97
177.36
157.98
123.48
85.36
54.62
37.78
34.42
38.11
39.46
30.54
7.83
-26.91
-68.48
-111.60
-153.38
-194.03
-235.30
-278.03
-320.35
-357.64
-384.51
-397.05
-394.65
-379.49
-355.03
-323.84
-286.77
-243.43
-193.55
-138.39
-80.95
-25.26
25.18
68.18
102.71
127.80
141.50
141.23
125.26
95.19
56.90
19.69
-7.11
-17.51
-10.65
10.05
39.90
75.67
116.42
161.60
208.29
249.77
277.25
283.77
267.92
235.29
196.12
161.18
137.28
125.15
119.80
113.60
99.85
75.81
44.02
11.17
-14.38
-25.73
-19.90
1.23
31.75
64.09
91.43
109.04
114.23
105.52
81.98
43.46
-8.42
-69.36
-132.05
-187.53
-227.36
-246.30
-243.75
-223.68
-192.77
-157.75
-123.31
-91.15
-60.57
-30.16
0.64
31.11
59.66
84.95
106.83
126.53
145.96
166.64
188.62
209.75
225.40
229.27
215.17
180.16
126.97
64.87
7.53
-31.41
-42.92
-25.22
16.82
74.81
140.25
206.18
266.82
316.46
349.23
360.85
350.93
324.24
289.29
254.95
226.51
203.95
183.03
158.45
126.94
88.68
46.61
4.27
-35.92
-73.33
-108.44
-141.55
-171.98
-197.83
-216.92
-227.73
-230.08
-225.16
-214.92
-201.30
-185.80
-169.47
-153.24
-138.21
-125.64
-116.58
-111.49
-109.94
-110.81
-112.59
-113.82
-113.37
-110.65
-105.72
-99.20
-92.21
-85.95
-81.38
-78.74
-77.65
-77.07
-75.79
-72.65
-66.92
-58.45
-47.73
-35.84
-24.23
-14.44
-7.59
-4.13
-3.70
-5.22
-7.34
-8.76
-8.60
-6.49
-2.65
2.31
7.50
11.98
15.17
16.91
17.56
17.71
17.96
18.55
19.52
20.69
21.93
23.28
24.70
26.05
26.87
26.63
24.88
21.72
17.69
13.63
10.22
7.52
5.00
1.72
-3.08
-9.61
-17.16
-24.52
-30.28
-33.45
-33.82
-31.92
-28.77
-25.43
-22.68
-20.82
-19.76
-19.15
-18.48
-17.29
-15.17
-12.01
-8.04
-3.84
-0.17
2.31
3.30
3.08
2.33
1.90
2.33
3.73
5.66
7.37
7.90
6.39
2.30
-4.49
-13.48
-23.57
-33.26
-41.01
-45.71
-47.00
-45.37
-41.87
-37.76
-34.04
-31.23
-29.32
-27.99
-26.90
-25.79
-24.69
-23.75
-23.21
-23.12
-23.32
-23.48
-23.17
-22.11
-20.17
-17.42
-14.06
-10.30
-6.35
-2.47
1.03
3.92
6.02
7.40
8.24
8.79
9.23
9.60
9.83
9.83
9.65
9.37
9.21
9.31
9.76
10.62
11.93
13.65
15.58
17.38
18.55
18.69
17.62
15.54
12.99
10.62
8.94
8.00
7.56
7.08
6.15
4.58
2.51
0.36
-1.47
-2.73
-3.46
-3.85
-4.11
-4.28
-4.22
-3.67
-2.43
-0.52
1.90
4.55
7.23
9.78
12.16
14.27
15.94
17.00
17.28
16.87
15.96
14.86
13.81
12.89
12.13
11.40
10.70
9.96
9.22
8.44
7.52
6.30
4.60
2.24
-0.96
-5.01
-9.70
-14.50
-18.71
-21.61
-22.76
-22.20
-20.36
-17.91
-15.35
-12.94
-10.63
-8.37
-6.15
-4.03
-2.09
-0.28
1.61
3.83
6.40
9.13
11.61
13.40
14.40
14.80
15.14
15.95
17.60
20.00
22.69
24.98
26.16
25.89
24.23
21.67
18.83
16.32
14.42
13.16
12.39
11.82
11.22
10.33
8.94
6.80
3.72
-0.51
-5.91
-12.28
-19.27
-26.32
-32.91
-38.59
-43.17
-46.65
-49.25
-51.16
-52.52
-53.45
-53.94
-54.02
-53.66
-52.79
-51.23
-48.86
-45.57
-41.32
-36.28
-30.58
-24.37
-17.75
-10.85
-3.90
2.72
8.54
13.18
16.35
18.11
18.64
18.34
17.60
16.83
16.31
16.16
16.27
16.26
15.70
14.22
11.73
8.55
5.28
2.64
1.12
0.87
1.66
3.08
4.67
6.09
7.12
7.63
7.55
6.86
5.71
4.41
3.40
2.99
3.30
4.07
4.75
4.75
3.69
1.64
-0.97
-3.44
-5.20
-5.91
-5.58
-4.47
-2.84
-0.93
1.19
3.36
5.34
6.77
7.30
6.87
5.70
4.42
3.63
3.74
4.69
6.02
7.11
7.47
6.95
5.81
4.58
3.74
3.56
4.02
4.87
5.87
6.79
7.46
7.72
7.38
6.21
4.11
1.20
-2.08
-5.04
-7.05
-7.68
-6.93
-5.20
-3.15
-1.40
-0.41
-0.36
-1.21
-2.81
-4.92
-7.35
-9.81
-12.03
-13.73
-14.78
-15.23
-15.34
-15.47
-15.86
-16.52
-17.10
-17.05
-15.85
-13.27
-9.46
-4.95
-0.45
3.50
6.51
8.51
9.61
9.88
9.47
8.52
7.28
6.11
5.50
5.76
6.98
8.95
11.10
12.75
13.33
12.61
10.83
8.60
6.71
5.80
6.17
7.65
9.80
12.00
13.76
14.88
15.39
15.60
15.86
16.57
17.85
19.69
21.77
23.66
24.91
25.15
24.26
22.31
19.74
17.02
14.77
13.39
12.93
13.06
13.20
12.69
11.11
8.42
4.83
0.67
-3.79
-8.46
-13.29
-18.11
-22.52
-25.95
-27.79
-27.68
-25.65
-22.06
-17.61
-12.96
-8.74
-5.20
-2.31
0.33
3.39
7.54
13.36
20.98
30.14
40.11
49.89
58.46
65.01
69.08
70.58
69.73
66.90
62.64
57.51
52.11
47.03
42.72
39.31
36.45
33.39
29.08
22.81
14.48
4.84
-5.14
-14.90
-25.10
-37.72
-55.44
-80.49
-113.88
-155.23
-202.86
-254.00
-304.71
-349.48
-381.67
-394.65
-383.85
-348.49
-292.36
-222.70
-148.06
-76.02
-11.70
42.24
84.96
116.52
137.65
149.63
154.42
154.42
151.88
148.45
144.86
141.18
136.87
131.43
124.53
116.26
107.11
97.77
88.97
81.01
73.82
66.89
59.64
51.74
43.34
35.15
28.02
22.81
19.81
18.79
19.05
19.74
20.15
19.86
18.82
17.12
15.02
12.73
10.44
8.31
6.49
5.13
4.25
3.78
3.34
2.56
1.06
-1.26
-4.16
-7.21
-9.83
-11.68
-12.60
-12.77
-12.45
-11.96
-11.51
-11.18
-10.97
-10.70
-10.17
-9.19
-7.71
-5.72
-3.34
-0.62
2.55
6.30
10.76
15.79
21.02
25.77
29.42
31.48
31.66
30.02
26.72
22.14
16.81
11.36
6.48
2.70
0.31
-0.78
-0.81
-0.24
0.60
1.35
1.78
1.78
1.23
0.13
-1.51
-3.56
-5.99
-8.65
-11.43
-14.21
-16.87
-19.32
-21.46
-23.20
-24.25
-24.36
-23.24
-20.79
-17.28
-13.29
-9.60
-6.88
-5.51
-5.39
-6.13
-7.18
-8.16
-8.98
-9.73
-10.63
-11.77
-13.13
-14.52
-15.82
-16.98
-18.11
-19.47
-21.17
-23.27
-25.54
-27.82
-29.95
-32.06
-34.55
-37.89
-42.47
-48.28
-54.94
-61.74
-67.97
-73.13
-77.05
-79.95
-82.07
-83.61
-84.29
-83.50
-80.27
-73.63
-62.95
-48.25
-30.48
-11.37
6.59
20.68
28.42
28.40
21.04
9.05
-2.65
-8.23
-2.82
15.35
43.96
76.97
106.52
125.35
128.61
114.64
84.70
42.48
-6.34
-54.45
-93.66
-116.39
-117.82
-97.38
-58.99
-9.69
43.00
93.40
138.70
178.53
213.40
243.32
267.18
283.31
290.51
289.01
280.52
267.54
252.42
236.42
219.68
201.54
181.37
158.93
134.56
108.85
82.43
56.03
30.61
7.53
-11.62
-25.49
-33.55
-36.39
-35.46
-32.50
-28.72
-24.65
-20.23
-15.49
-11.06
-8.13
-7.91
-10.82
-16.21
-22.70
-29.10
-35.28
-42.25
-51.45
-63.46
-77.21
-89.99
-98.67
-101.18
-97.57
-89.86
-80.99
-73.53
-68.52
-65.53
-63.33
-60.87
-57.87
-54.96
-52.99
-52.32
-52.45
-51.82
-48.57
-41.25
-29.49
-14.11
3.21
20.61
36.79
51.29
64.55
77.34
90.27
103.34
115.81
126.48
133.96
137.30
136.09
130.80
122.58
112.90
103.16
93.98
84.88
74.08
59.11
37.51
7.88
-29.41
-72.02
-116.11
-157.57
-193.18
-221.94
-245.35
-266.95
-290.68
-318.76
-350.26
-380.53
-402.80
-410.45
-399.63
-370.67
-327.72
-277.19
-225.51
-177.83
-137.57
-107.10
-88.15
-81.74
-87.52
-102.78
-122.48
-140.02
-149.27
-146.28
-130.40
-103.95
-71.03
-35.80
-1.42
30.05
57.36
79.53
95.93
106.82
113.82
119.69
127.39
138.81
153.70
169.89
184.09
193.38
196.21
192.66
184.05
172.02
158.03
142.96
127.31
111.40
95.52
80.14
65.85
53.28
42.90
34.92
29.16
25.15
22.27
19.91
17.67
15.42
13.27
11.46
10.40
10.52
12.26
15.76
20.66
25.98
30.38
32.76
32.93
31.97
31.90
34.83
41.96
52.82
65.50
77.38
86.19
90.79
91.20
88.15
82.40
74.34
64.06
51.58
37.23
21.82
6.45
-7.81
-20.22
-30.58
-39.15
-46.60
-53.74
-61.36
-70.05
-80.15
-91.75
-104.63
-118.32
-131.95
-144.36
-154.12
-159.83
-160.48
-155.75
-146.24
-133.36
-118.97
-104.93
-92.59
-82.55
-74.55
-67.60
-60.14
-50.15
-35.38
-13.73
16.05
53.70
96.86
141.37
182.22
215.00
237.18
248.69
251.29
247.49
239.27
227.50
211.93
191.91
166.88
136.79
102.23
64.38
25.14
-12.90
-46.76
-73.85
-92.80
-104.14
-110.23
-114.10
-118.08
-122.40
-124.77
-120.96
-106.29
-77.48
-34.17
20.31
79.06
132.89
172.27
189.46
180.34
145.49
90.22
23.50
-43.94
-102.07
-143.69
-165.56
-168.20
-154.68
-128.77
-93.88
-52.91
-9.22
32.40
65.77
84.88
86.17
70.34
42.34
9.24
-22.83
-50.83
-74.79
-95.80
-113.29
-123.69
-121.15
-100.11
-58.01
3.15
77.05
154.64
226.10
282.41
316.54
324.32
305.44
263.91
207.59
146.58
90.74
47.13
18.64
4.08
-0.59
-0.33
0.48
-1.13
-6.73
-16.91
-31.89
-51.78
-76.41
-104.83
-134.85
-162.85
-184.19
-194.12
-188.86
-166.94
-129.83
-82.26
-31.64
13.40
44.76
56.59
46.22
14.21
-36.06
-98.73
-165.81
-227.60
-273.84
-295.84
-288.81
-253.31
-195.42
-124.93
-52.73
11.69
61.91
94.87
110.53
110.92
99.42
79.69
55.02
28.06
1.18
-22.71
-39.59
-44.76
-34.26
-6.28
37.95
94.50
157.91
221.96
279.94
324.59
348.58
346.26
315.92
261.55
192.26
119.73
54.22
1.55
-37.64
-66.31
-88.08
-105.03
-117.21
-123.93
-125.56
-124.74
-125.78
-132.89
-148.18
-170.24
-194.41
-214.25
-223.78
-218.95
-198.30
-162.44
-113.28
-54.06
10.08
71.57
120.94
148.75
148.32
117.99
61.85
-11.25
-90.07
-163.31
-221.50
-257.94
-268.97
-254.16
-216.25
-161.03
-96.66
-32.32
23.40
64.02
86.25
90.18
78.75
56.65
29.01
0.66
-24.08
-41.37
-47.77
-40.68
-19.15
15.55
60.17
110.53
162.99
214.92
263.95
306.62
337.50
350.15
339.59
305.27
252.30
190.12
129.17
77.02
36.50
6.17
-17.29
-36.74
-53.44
-67.88
-81.07
-95.48
-114.68
-141.83
-178.14
-221.84
-268.27
-310.74
-342.24
-356.97
-351.71
-326.70
-285.42
-233.63
-177.44
-121.75
-69.41
-21.72
20.45
55.75
82.50
99.96
109.43
114.59
120.35
130.65
146.70
166.53
186.45
203.15
215.50
224.67
232.52
239.67
244.13
241.88
228.60
202.00
163.00
115.75
66.33
20.88
-15.47
-39.09
-47.44
-39.03
-13.50
27.61
80.41
138.80
195.40
242.94
275.63
290.05
285.45
263.92
230.12
190.86
153.68
124.80
107.13
99.07
95.14
88.23
72.63
46.25
11.02
-28.45
-67.38
-102.86
-134.69
-164.82
-196.15
-231.03
-269.97
-310.86
-348.60
-375.73
-384.06
-367.16
-323.07
-256.02
-176.14
-97.30
-33.46
5.08
14.01
-4.60
-43.80
-94.16
-146.18
-191.79
-224.94
-241.52
-239.07
-216.93
-176.54
-121.88
-59.23
3.77
59.77
103.37
132.10
146.56
149.35
143.57
131.48
113.95
91.05
63.17
32.23
2.22
-21.25
-32.55
-27.63
-5.21
33.01
83.15
139.89
197.16
248.29
286.70
306.78
305.13
281.73
239.93
185.13
122.66
56.39
-11.07
-76.48
-134.39
-177.09
-197.03
-190.46
-159.98
-114.46
-65.78
-24.59
3.07
16.40
18.13
11.72
-0.76
-18.82
-42.51
-70.98
-101.77
-131.20
-155.54
-172.23
-180.57
-182.15
-180.05
-177.84
-178.39
-183.36
-193.03
-206.33
-221.17
-234.38
-241.82
-238.98
-222.34
-191.17
-148.58
-101.06
-55.94
-18.53
10.21
33.74
57.71
86.95
122.86
162.99
202.33
235.67
259.39
272.12
274.28
267.10
252.35
232.30
209.99
188.90
172.39
162.80
161.35
168.26
183.16
205.12
231.96
259.48
281.72
292.71
288.79
270.38
241.73
208.42
174.37
140.10
103.55
62.85
18.98
-23.94
-60.92
-89.24
-110.22
-128.21
-147.66
-170.25
-194.38
-217.09
-236.90
-255.74
-278.26
-309.27
-350.47
-398.46
-445.18
-480.63
-496.40
-488.45
-458.39
-412.35
-358.64
-304.70
-254.96
-210.13
-168.11
-126.24
-83.52
-41.72
-4.79
23.19
40.49
49.22
54.95
64.67
84.04
115.29
156.68
203.82
251.51
295.32
332.13
359.43
374.89
376.23
361.97
332.52
290.77
241.64
190.90
143.69
103.21
70.55
45.55
28.18
19.79
23.18
41.18
74.49
120.05
170.75
217.25
250.74
265.33
259.28
234.71
196.25
149.65
101.14
56.73
21.47
-1.59
-12.54
-14.68
-13.39
-14.37
-21.92
-37.70
-61.16
-90.36
-122.67
-155.01
-183.22
-201.86
-205.45
-190.50
-157.22
-110.20
-57.23
-6.76
34.51
63.40
80.44
87.13
83.59
68.79
42.11
5.82
-33.36
-66.09
-83.14
-77.88
-50.58
-8.98
36.25
75.95
105.51
124.85
134.50
133.56
121.34
96.24
57.25
8.19
-42.27
-83.44
-106.94
-111.89
-105.00
-94.96
-92.26
-106.85
-142.57
-195.92
-257.31
-304.91
-318.17
-304.62
-276.10
-239.68
-208.73
-196.54
-211.80
-255.32
-319.08
-389.64
-451.12
-486.46
-485.51
-449.31
-387.33
-313.57
-241.43
-179.25
-130.06
-92.09
-58.98
-25.50
9.58
45.34
80.32
114.10
147.39
180.65
213.66
246.85
279.28
308.27
330.66
343.18
342.91
327.78
296.85
250.60
191.58
123.53
51.13
-19.10
-78.85
-119.43
-134.27
-121.56
-85.32
-33.85
22.80
75.54
118.23
147.54
162.16
161.93
148.05
123.28
92.07
59.69
30.81
8.67
-5.18
-10.03
-5.56
8.51
31.95
63.70
101.89
144.22
188.03
230.16
266.54
292.37
303.10
295.82
270.64
231.17
183.78
135.80
93.53
60.72
38.21
24.56
17.04
12.78
9.45
5.38
-0.47
-8.78
-19.86
-33.71
-49.77
-66.72
-82.65
-95.45
-103.40
-105.54
-101.58
-91.60
-75.69
-54.03
-27.40
2.09
30.51
52.57
62.93
57.92
36.72
1.61
-42.65
-90.09
-134.76
-171.57
-197.04
-209.86
-211.15
-204.26
-193.58
-182.88
-173.88
-166.11
-157.85
-147.95
-136.99
-127.22
-121.31
-120.61
-124.18
-129.12
-131.82
-129.29
-120.05
-104.29
-83.19
-58.36
-31.19
-2.43
27.96
60.79
97.51
139.78
188.60
243.27
300.33
353.43
394.33
415.30
411.98
385.42
342.32
292.92
247.55
213.15
191.63
180.26
174.16
168.80
161.80
153.03
143.54
134.35
125.57
116.52
106.10
93.63
79.08
63.05
46.40
29.75
13.24
-3.60
-21.50
-41.09
-62.42
-84.82
-106.87
-126.66
-142.23
-151.76
-153.84
-147.52
-132.67
-110.56
-84.26
-58.64
-39.45
-32.02
-39.56
-62.05
-96.09
-135.87
-174.71
-206.80
-228.30
-237.61
-235.18
-222.70
-202.58
-177.53
-150.32
-123.68
-99.84
-80.53
-66.63
-58.51
-56.26
-60.02
-69.88
-85.26
-104.44
-124.17
-140.33
-148.78
-146.71
-133.14
-108.94
-76.13
-36.83
7.23
55.01
105.81
158.75
212.34
264.15
310.62
347.35
369.64
373.48
356.70
319.80
266.29
202.14
134.55
70.34
14.55
-30.32
-64.48
-90.05
-109.93
-126.61
-141.38
-154.44
-165.42
-174.18
-181.02
-186.43
-190.17
-190.81
-185.93
-173.38
-152.78
-126.36
-98.47
-73.84
-55.48
-43.38
-34.73
-25.61
-13.19
2.69
19.41
32.76
38.91
36.01
24.77
8.33
-8.65
-20.61
-22.35
-10.45
15.05
49.48
83.72
106.30
107.31
82.48
35.55
-22.65
-78.21
-119.48
-140.88
-143.55
-132.73
-113.87
-89.87
-60.81
-26.01
13.47
53.67
88.63
112.92
123.87
122.58
112.89
99.46
85.87
73.86
63.66
54.66
46.38
38.72
32.01
26.51
22.28
18.84
15.42
11.28
6.20
0.97
-2.50
-1.42
7.07
24.57
49.92
78.33
102.06
112.77
105.00
79.08
41.70
3.46
-25.59
-40.19
-41.66
-36.33
-31.65
-32.24
-38.08
-45.68
-50.93
-51.93
-49.97
-48.47
-50.65
-57.81
-68.57
-79.84
-88.48
-92.84
-93.45
-92.46
-92.44
-94.87
-99.53
-104.34
-106.18
-101.85
-88.95
-66.19
-33.18
9.49
59.93
113.98
164.92
204.21
223.84
219.32
191.84
148.41
99.51
55.57
23.62
5.93
0.58
3.35
9.72
15.93
19.22
17.62
10.20
-2.51
-18.11
-32.71
-42.21
-43.65
-36.67
-23.61
-8.70
3.72
10.96
12.96
12.05
11.48
13.67
18.80
24.80
28.38
26.93
19.94
9.62
0.28
-3.11
3.35
20.95
47.61
77.86
103.82
117.09
111.25
84.33
40.06
-12.57
-62.05
-98.07
-114.95
-113.26
-98.84
-79.96
-64.02
-55.39
-54.94
-61.19
-71.78
-84.25
-96.25
-105.09
-107.80
-101.88
-86.53
-63.59
-37.45
-13.77
2.54
8.96
6.03
-3.31
-14.95
-24.88
-29.73
-26.76
-13.90
10.06
44.92
88.76
137.83
187.02
230.42
261.96
276.13
268.92
239.33
190.30
129.01
65.34
9.19
-32.29
-56.58
-65.60
-63.95
-56.59
-47.27
-37.96
-29.45
-22.13
-16.30
-12.12
-9.32
-7.25
-4.96
-1.85
2.12
6.13
8.60
7.76
2.25
-8.29
-22.98
-40.14
-58.19
-76.19
-94.09
-112.19
-130.01
-145.81
-156.74
-159.96
-154.06
-140.05
-121.15
-101.74
-86.03
-76.84
-75.42
-81.32
-92.59
-105.60
-115.04
-114.55
-98.47
-64.47
-15.83
37.70
82.31
104.70
97.73
63.95
15.17
-31.71
-61.17
-64.18
-40.54
2.52
53.96
102.89
141.24
164.89
173.22
168.21
153.51
133.46
112.57
94.99
83.73
80.06
82.92
88.97
93.06
90.18
77.23
54.24
24.24
-8.18
-38.54
-63.73
-81.95
-92.51
-95.56
-92.34
-85.50
-78.59
-75.03
-76.33
-81.21
-85.82
-85.43
-76.42
-57.66
-30.73
1.24
34.85
67.62
98.04
125.39
149.27
169.31
185.09
196.18
202.20
202.47
196.04
181.85
159.34
129.14
93.38
55.46
18.90
-13.60
-41.01
-63.83
-83.62
-102.06
-120.08
-137.37
-152.21
-162.15
-164.82
-159.26
-146.40
-128.84
-109.70
-91.25
-74.40
-58.90
-44.21
-29.63
-14.10
4.06
26.62
53.62
81.50
102.73
108.46
93.04
58.19
13.71
-26.24
-49.61
-52.04
-38.36
-19.42
-5.90
-3.27
-10.08
-20.34
-27.75
-29.08
-25.26
-19.82
-16.61
-17.73
-23.27
-32.21
-43.59
-57.09
-72.76
-90.01
-106.58
-118.59
-121.57
-112.46
-91.43
-62.39
-31.85
-6.11
11.24
20.65
25.58
30.12
36.49
44.08
50.43
53.11
51.67
47.83
44.58
44.38
48.12
55.07
63.60
72.07
79.10
83.51
84.17
80.30
71.97
60.43
47.96
37.06
29.59
25.91
24.86
24.23
21.66
15.76
6.76
-3.45
-12.07
-16.45
-15.25
-8.95
0.25
8.99
13.64
11.45
1.71
-13.31
-28.67
-38.55
-38.94
-30.29
-18.50
-13.17
-23.64
-54.07
-100.64
-151.99
-193.41
-212.31
-202.64
-166.27
-111.12
-47.70
14.45
68.50
110.70
139.47
154.45
156.08
145.62
125.45
98.98
70.03
41.81
16.00
-7.59
-30.53
-54.57
-79.91
-104.07
-122.12
-128.28
-118.69
-93.63
-57.85
-18.75
16.93
45.52
66.93
82.74
93.67
98.23
93.70
78.73
55.44
29.77
9.07
-1.07
0.55
10.62
23.22
32.61
35.33
30.62
19.88
5.65
-9.04
-21.28
-28.67
-30.01
-25.84
-18.44
-11.28
-7.60
-8.92
-14.14
-19.73
-21.11
-14.72
-0.02
20.30
40.77
55.28
59.02
49.82
28.96
1.25
-25.54
-42.42
-41.79
-21.09
14.90
54.24
81.86
86.07
64.47
25.99
-12.71
-34.67
-30.57
-2.46
38.00
75.72
99.07
103.72
92.42
71.40
46.52
21.01
-4.03
-27.79
-48.51
-63.23
-69.60
-67.58
-60.15
-52.32
-48.96
-52.35
-61.15
-71.08
-76.80
-74.32
-62.64
-44.16
-23.86
-7.44
1.00
0.87
-4.32
-8.11
-4.42
9.15
29.15
47.24
53.97
43.56
17.18
-17.40
-49.24
-69.39
-74.26
-66.08
-50.35
-32.24
-14.33
3.42
21.88
40.97
58.79
72.47
79.61
79.53
73.47
63.98
53.78
44.95
38.56
34.75
32.86
31.63
29.30
24.21
15.45
3.56
-9.33
-20.29
-26.98
-28.70
-26.70
-23.30
-20.56
-19.69
-21.13
-25.19
-32.27
-41.88
-51.35
-55.63
-49.03
-28.63
2.54
34.78
54.76
51.34
21.24
-28.57
-83.13
-125.59
-143.77
-134.30
-102.40
-58.35
-12.80
26.63
56.19
74.79
82.14
77.86
61.83
35.57
3.38
-28.03
-51.33
-61.31
-56.93
-41.99
-23.76
-10.23
-6.86
-14.57
-29.62
-45.39
-55.51
-56.66
-49.90
-39.70
-31.63
-29.55
-34.05
-42.75
-51.42
-55.55
-51.24
-35.81
-8.59
27.83
66.65
97.63
110.27
98.61
64.83
19.66
-21.63
-45.67
-46.60
-27.69
1.48
30.57
53.23
68.54
79.15
87.92
95.49
100.25
100.13
94.62
85.48
75.97
68.81
64.69
62.15
58.36
51.02
39.53
25.29
10.93
-0.85
-8.37
-11.33
-10.75
-8.46
-6.46
-6.33
-8.83
-13.72
-19.95
-26.30
-32.03
-37.24
-42.80
-49.63
-58.00
-66.93
-74.22
-77.02
-72.72
-60.16
-40.66
-18.33
0.73
10.49
7.57
-6.99
-27.74
-46.87
-57.47
-56.14
-43.91
-24.91
-4.06
15.12
31.17
44.12
54.38
61.79
65.63
65.14
60.10
51.16
39.78
27.81
17.01
8.50
2.57
-1.08
-2.97
-3.62
-3.67
-4.02
-5.85
-10.15
-17.00
-25.32
-33.08
-38.18
-39.56
-37.50
-33.47
-29.15
-25.67
-23.23
-21.47
-19.91
-18.31
-16.58
-14.55
-11.84
-8.05
-3.16
2.39
7.65
11.53
13.31
12.89
10.99
8.97
8.47
10.85
16.75
25.72
36.29
46.45
54.13
57.94
57.41
53.12
46.30
38.38
30.46
23.15
16.63
10.75
5.36
0.41
-4.11
-8.11
-11.44
-13.99
-15.62
-16.28
-16.12
-15.40
-14.58
-14.12
-14.28
-14.96
-15.71
-15.88
-14.84
-12.37
-8.63
-4.21
0.09
3.58
5.87
6.96
7.16
6.96
6.82
7.13
8.10
9.73
11.93
14.37
16.63
18.23
18.80
18.21
16.64
14.49
12.20
10.09
8.22
6.50
4.73
2.79
0.72
-1.37
-3.33
-5.15
-6.85
-8.61
-10.50
-12.54
-14.56
-16.26
-17.32
-17.49
-16.77
-15.32
-13.47
-11.56
-9.90
-8.66
-7.90
-7.55
-7.46
-7.49
-7.45
-7.24
-6.85
-6.35
-5.77
-5.12
-4.34
-3.37
-2.29
-1.24
-0.40
0.18
0.59
1.01
1.65
2.51
3.42
4.07
4.21
3.76
2.87
1.78
0.70
-0.25
-1.07
-1.73
-2.20
-2.36
-2.16
-1.59
-0.72
0.30
1.26
2.00
2.43
2.53
2.36
2.09
1.92
2.01
2.36
2.88
3.38
3.78
4.04
4.23
4.36
4.39
4.17
3.54
2.46
1.02
-0.53
-1.92
-2.99
-3.67
-4.00
-4.00
-3.70
-3.05
-2.14
-1.15
-0.32
0.14
0.15
-0.19
-0.63
-1.00
-1.27
-1.62
-2.21
-3.01
-3.69
-3.76
-2.88
-1.08
1.17
3.16
4.31
4.46
3.90
3.12
2.51
2.15
1.81
1.21
0.29
-0.78
-1.66
-2.05
-1.91
-1.39
-0.78
-0.25
0.11
0.31
0.41
0.39
0.25
-0.07
-0.49
-0.90
-1.20
-1.28
-1.14
-0.83
-0.37
0.20
0.80
1.29
1.35
0.73
-0.67
-2.59
-4.51
-5.80
-6.07
-5.36
-4.11
-2.95
-2.38
-2.52
-3.21
-4.13
-5.05
-5.84
-6.49
-6.94
-7.09
-6.87
-6.23
-5.32
-4.41
-3.81
-3.68
-4.02
-4.55
-4.97
-4.99
-4.39
-3.19
-1.48
0.51
2.51
4.27
5.62
6.45
6.74
6.57
6.06
5.37
4.67
4.08
3.73
3.68
3.91
4.36
4.91
5.34
5.46
5.16
4.44
3.49
2.54
1.81
1.36
1.06
0.69
0.01
-1.01
-2.20
-3.21
-3.66
-3.35
-2.28
-0.77
0.76
1.99
2.76
3.11
3.22
3.21
3.13
2.92
2.45
1.69
0.71
-0.30
-1.17
-1.79
-2.25
-2.74
-3.50
-4.71
-6.27
-7.83
-8.83
-8.75
-7.29
-4.63
-1.33
1.87
4.33
5.72
6.12
5.86
5.29
4.71
4.23
3.82
3.46
3.08
2.63
2.05
1.30
0.36
-0.72
-1.80
-2.73
-3.32
-3.49
-3.28
-2.82
-2.35
-2.08
-2.10
-2.41
-2.91
-3.40
-3.76
-3.88
-3.77
-3.59
-3.53
-3.83
-4.61
-5.83
-7.26
-8.59
-9.55
-10.02
-10.16
-10.25
-10.51
-10.97
-11.49
-11.86
-12.01
-12.13
-12.52
-13.40
-14.68
-15.99
-16.78
-16.74
-15.97
-15.03
-14.61
-15.23
-16.96
-19.40
-21.99
-24.11
-25.37
-25.51
-24.42
-22.11
-18.90
-15.51
-12.93
-12.09
-13.34
-16.11
-19.06
-20.64
-19.81
-16.57
-11.88
-7.01
-2.78
0.99
5.36
11.68
20.83
32.79
46.55
60.57
73.27
83.33
89.93
92.76
92.04
88.51
83.31
77.68
72.62
68.58
65.35
62.26
58.54
53.46
46.65
37.98
27.55
15.63
2.71
-10.56
-23.42
-35.06
-44.82
-52.15
-56.81
-58.79
-58.37
-56.07
-52.58
-48.55
-44.51
-40.76
-37.32
-34.16
-31.18
-28.31
-25.54
-22.89
-20.34
-17.80
-15.23
-12.57
-9.88
-7.29
-4.98
-3.16
-1.95
-1.30
-1.03
-0.93
-0.85
-0.78
-0.74
-0.65
-0.22
1.04
3.53
7.32
11.92
16.46
19.96
21.77
21.79
20.41
18.33
16.10
13.98
11.77
9.10
5.56
0.90
-4.84
-11.34
-18.01
-24.18
-29.17
-32.51
-34.01
-33.86
-32.49
-30.46
-28.37
-26.65
-25.52
-24.85
-24.10
-22.45
-19.00
-13.09
-4.61
5.82
17.00
27.44
35.91
41.78
44.98
45.89
44.88
42.24
38.00
32.30
25.60
18.82
13.23
9.99
9.77
12.35
16.76
21.53
25.34
27.28
27.12
25.20
22.06
18.25
14.09
9.74
5.32
1.03
-2.88
-6.22
-8.92
-11.16
-13.22
-15.41
-17.84
-20.49
-23.17
-25.70
-28.02
-30.13
-32.08
-33.80
-35.15
-35.93
-35.99
-35.37
-34.25
-32.94
-31.66
-30.60
-29.74
-28.93
-27.87
-26.25
-23.78
-20.34
-16.09
-11.34
-6.50
-1.84
2.71
7.44
12.74
18.80
25.50
32.42
39.14
45.47
51.58
57.92
65.00
73.02
81.65
90.07
97.01
101.18
101.60
97.78
89.85
78.44
64.47
48.86
32.44
15.85
-0.33
-15.56
-29.28
-41.00
-50.46
-57.54
-62.27
-64.76
-65.16
-63.71
-60.83
-57.17
-53.48
-50.42
-48.40
-47.33
-46.81
-46.20
-44.91
-42.55
-39.11
-34.77
-29.97
-25.19
-20.90
-17.49
-15.18
-13.95
-13.45
-13.11
-12.20
-10.16
-6.79
-2.37
2.35
6.47
9.14
9.82
8.34
4.84
-0.33
-6.73
-13.79
-20.83
-27.04
-31.67
-34.17
-34.51
-33.21
-31.24
-29.66
-29.13
-29.65
-30.60
-31.10
-30.47
-28.60
-25.80
-22.52
-19.04
-15.34
-11.13
-5.95
0.85
10.03
22.37
38.27
57.24
77.62
96.81
111.97
120.93
122.82
118.07
108.00
94.13
77.89
60.56
43.51
28.22
16.08
8.06
4.30
4.23
6.73
10.52
14.48
17.80
19.91
20.50
19.49
17.11
13.92
10.74
8.39
7.43
7.93
9.38
10.93
11.71
11.20
9.45
6.94
4.43
2.52
1.45
1.01
0.64
-0.29
-2.35
-5.80
-10.55
-16.19
-22.09
-27.54
-31.90
-34.84
-36.32
-36.74
-36.66
-36.74
-37.46
-39.02
-41.29
-43.84
-46.18
-47.76
-48.24
-47.37
-45.17
-41.82
-37.68
-33.31
-29.29
-26.14
-24.00
-22.83
-22.19
-21.61
-20.69
-19.31
-17.69
-16.17
-15.16
-14.81
-15.06
-15.55
-15.89
-15.72
-14.89
-13.56
-12.05
-10.76
-9.92
-9.54
-9.35
-9.00
-8.22
-6.91
-5.16
-3.09
-0.82
1.57
4.00
6.25
8.16
9.61
10.87
12.37
14.51
17.28
20.11
22.01
22.04
19.85
15.85
11.13
6.84
3.82
2.21
1.56
1.22
0.81
0.51
1.07
3.46
8.30
15.45
23.98
32.49
39.77
45.22
49.01
51.60
53.30
53.98
53.28
51.17
48.34
46.30
46.69
50.58
57.78
66.87
75.57
81.51
82.83
78.49
68.64
54.46
38.16
22.49
10.16
3.06
1.72
5.09
10.89
16.48
19.56
18.83
14.26
6.82
-1.95
-10.60
-18.20
-24.58
-30.12
-35.39
-40.74
-46.06
-51.08
-55.65
-60.02
-64.75
-70.34
-76.65
-82.73
-87.07
-88.12
-85.06
-78.01
-68.06
-56.74
-45.60
-35.75
-27.67
-21.17
-15.43
-9.33
-1.82
7.56
18.31
28.98
37.75
43.22
45.10
44.46
43.04
42.40
42.91
43.67
42.99
39.31
32.00
21.32
8.40
-5.19
-17.23
-24.85
-24.96
-15.74
1.49
21.30
35.16
34.74
15.84
-18.85
-60.03
-95.26
-113.73
-110.46
-87.47
-52.20
-13.81
19.90
44.39
58.00
60.56
52.28
33.28
4.47
-31.54
-69.84
-104.04
-128.14
-138.56
-135.50
-122.60
-105.27
-88.28
-74.06
-62.22
-50.35
-35.71
-16.48
7.47
34.92
63.76
91.73
116.73
136.92
150.84
157.46
156.46
148.24
133.98
115.24
93.73
71.15
49.25
30.04
15.59
7.53
6.18
10.05
15.97
20.16
19.85
14.55
6.41
-0.66
-2.64
2.80
15.34
32.18
49.14
62.18
68.59
67.66
60.38
48.88
35.57
22.37
10.55
0.68
-7.07
-12.77
-16.51
-18.57
-19.38
-19.56
-19.83
-20.72
-22.36
-24.34
-25.90
-26.18
-24.68
-21.64
-17.96
-15.05
-14.07
-15.63
-19.39
-24.35
-29.21
-32.83
-34.66
-34.58
-33.06
-30.80
-28.70
-27.58
-28.00
-30.08
-33.37
-37.13
-40.41
-42.60
-43.38
-42.82
-41.05
-38.07
-33.75
-27.87
-20.57
-12.35
-4.21
2.68
7.35
9.35
9.02
7.28
5.42
4.52
5.16
7.05
9.24
10.50
9.71
6.33
0.48
-7.07
-15.24
-22.90
-29.22
-33.92
-37.31
-40.29
-44.00
-49.45
-56.86
-65.33
-72.70
-76.04
-72.76
-61.80
-44.57
-24.84
-7.78
1.92
1.83
-7.20
-21.29
-35.14
-44.01
-45.49
-39.91
-29.95
-19.11
-10.47
-5.96
-6.28
-11.41
-20.75
-33.14
-46.45
-57.54
-62.76
-59.16
-45.82
-24.41
