1515714072.00
64.000000
-0.00
-0.00
-0.00
-0.00
-0.00
-0.00
-0.00
-0.00
-0.00
-0.00
0.00
0.01
0.01
-0.00
-0.03
-0.05
-0.05
0.00
0.13
0.36
0.66
1.01
1.37
1.72
2.06
2.40
2.79
3.24
3.80
4.42
5.06
5.66
6.20
6.68
7.15
7.68
8.31
9.14
10.09
11.04
11.88
12.56
13.14
13.76
14.65
15.96
17.91
20.32
22.90
25.38
27.58
29.57
31.68
34.32
37.81
42.54
48.15
54.10
59.83
64.97
69.58
74.14
79.34
85.71
93.76
103.00
112.62
121.73
129.77
136.75
143.30
150.75
157.77
166.64
177.95
191.79
206.97
220.57
228.25
225.36
208.53
176.87
132.76
80.05
23.07
-34.94
-92.44
-149.16
-205.23
-260.37
-313.74
-363.87
-409.83
-450.91
-486.50
-515.74
-537.23
-549.22
-549.96
-538.37
-514.21
-478.67
-433.88
-382.45
-327.02
-269.84
-212.63
-156.66
-102.95
-52.37
-5.90
35.58
71.43
101.35
125.50
144.38
158.69
169.15
176.37
180.75
182.57
182.07
179.51
175.23
169.65
163.18
156.15
148.81
141.30
133.69
126.02
118.33
110.69
103.16
95.80
88.68
81.83
75.25
68.95
62.95
57.25
51.86
46.78
42.03
37.59
33.45
29.61
26.07
22.81
19.83
17.11
14.67
12.48
10.54
8.83
7.35
6.07
4.97
4.05
3.27
2.62
2.09
1.65
1.30
1.01
0.79
0.61
0.48
0.37
0.29
0.24
0.21
0.19
0.18
0.18
0.20
0.22
0.25
0.28
0.32
0.36
0.41
0.45
0.50
0.55
0.60
0.65
0.71
0.77
0.84
0.91
0.99
1.08
1.17
1.28
1.40
1.53
1.68
1.85
2.04
2.25
2.48
2.74
3.02
3.33
3.67
4.05
4.46
4.91
5.39
5.91
6.47
7.07
7.72
8.41
9.15
9.93
10.76
11.64
12.56
13.53
14.56
15.65
16.80
18.03
19.30
20.62
21.93
23.18
24.28
25.12
25.59
25.56
24.93
23.59
21.53
18.75
15.31
11.30
6.90
2.33
-2.21
-6.50
-10.35
-13.62
-16.23
-18.15
-19.39
-19.98
-20.00
-19.51
-18.61
-17.40
-16.00
-14.52
-13.04
-11.60
-10.19
-8.78
-7.33
-5.81
-4.20
-2.52
-0.84
0.78
2.34
3.93
5.55
7.31
9.25
11.38
13.60
15.71
17.57
19.14
20.65
22.13
23.81
25.90
28.39
31.05
33.49
35.32
36.44
37.20
37.71
38.42
39.71
41.59
43.63
45.07
45.23
43.82
41.24
37.67
33.69
29.73
25.66
20.68
13.33
1.66
-16.85
-40.00
-67.20
-97.24
-127.79
-155.38
-176.06
-186.65
-185.81
-174.69
-156.31
-135.13
-114.61
-96.54
-81.09
-67.69
-55.90
-45.89
-38.25
-33.29
-31.09
-30.59
-30.09
-27.91
-22.99
-15.30
-5.77
4.33
13.91
22.24
29.39
35.86
42.07
47.89
52.65
55.45
55.76
53.74
50.21
46.47
43.77
42.82
43.49
44.94
45.94
45.40
42.72
37.86
31.42
24.27
17.28
11.10
6.03
2.04
-1.24
-4.41
-8.16
-13.11
-19.50
-26.90
-34.25
-40.07
-43.00
-42.21
-37.82
-30.81
-22.69
-15.04
-9.03
-5.23
-3.50
-3.21
-3.45
-3.39
-2.50
-0.63
1.98
4.92
7.74
10.16
12.07
13.45
14.33
14.74
14.77
14.59
14.49
14.74
15.49
16.66
17.94
18.91
19.20
18.57
16.99
14.65
11.86
8.96
6.22
3.74
1.43
-0.97
-3.85
-7.58
-12.32
-17.95
-24.00
-29.65
-33.98
-36.11
-35.51
-32.07
-26.16
-18.50
-9.99
-1.48
6.38
13.13
18.52
22.41
24.75
25.59
25.21
23.99
22.47
21.16
20.40
20.25
20.46
20.64
20.48
19.89
19.07
18.34
17.98
18.04
18.23
18.07
17.05
14.90
11.76
8.02
4.21
0.76
-2.18
-4.68
-6.96
-9.20
-11.56
-14.12
-16.95
-20.13
-23.54
-26.79
-29.14
-29.72
-27.83
-23.32
-16.72
-9.08
-1.59
4.75
9.45
12.44
13.96
14.30
13.73
12.50
10.89
9.21
7.83
7.03
6.94
7.51
8.54
9.72
10.76
11.37
11.40
10.79
9.58
7.93
6.03
4.08
2.20
0.43
-1.32
-3.24
-5.50
-8.32
-11.79
-15.95
-20.66
-25.55
-30.04
-33.35
-34.73
-33.62
-29.95
-24.12
-16.92
-9.29
-2.03
4.30
9.48
13.43
16.13
17.47
17.34
15.73
12.81
9.04
5.02
1.42
-1.31
-2.95
-3.57
-3.42
-2.83
-2.10
-1.48
-1.17
-1.30
-1.93
-3.01
-4.42
-6.03
-7.68
-9.22
-10.54
-11.61
-12.48
-13.34
-14.53
-16.29
-18.70
-21.46
-23.87
-25.04
-24.24
-21.16
-16.09
-9.82
-3.31
2.65
7.62
11.54
14.57
16.83
18.36
19.11
19.07
18.42
17.47
16.65
16.25
16.39
16.93
17.59
18.08
18.16
17.78
16.97
15.83
14.47
12.92
11.19
9.29
7.22
5.01
2.69
0.25
-2.30
-4.98
-7.73
-10.50
-13.30
-16.20
-19.24
-22.37
-25.32
-27.62
-28.74
-28.33
-26.41
-23.30
-19.41
-14.98
-10.02
-4.42
1.81
8.32
14.38
19.23
22.31
23.56
23.39
22.46
21.40
20.59
20.12
19.94
19.90
19.90
19.90
19.87
19.75
19.46
18.90
17.89
16.37
14.35
11.96
9.44
7.07
5.02
3.30
1.83
0.39
-1.23
-3.19
-5.61
-8.54
-11.97
-15.72
-19.47
-22.66
-24.66
-24.92
-23.10
-19.26
-13.81
-7.49
-1.12
4.55
9.07
12.28
14.35
15.58
16.24
16.53
16.52
16.26
15.79
15.22
14.64
14.11
13.59
13.02
12.30
11.38
10.30
9.15
8.00
6.88
5.76
4.54
3.09
1.35
-0.66
-2.80
-4.92
-6.93
-8.91
-11.09
-13.74
-16.98
-20.56
-23.87
-26.03
-26.24
-24.08
-19.66
-13.66
-6.99
-0.59
4.92
9.27
12.46
14.60
15.84
16.30
16.12
15.50
14.65
13.75
12.88
12.02
11.14
10.21
9.33
8.58
8.11
7.88
7.81
7.66
7.22
6.31
4.87
2.97
0.72
-1.65
-3.96
-6.07
-7.94
-9.66
-11.48
-13.69
-16.53
-20.01
-23.84
-27.38
-29.82
-30.43
-28.86
-25.21
-20.05
-14.16
-8.25
-2.80
1.91
5.80
8.82
10.91
12.08
12.44
12.22
11.81
11.59
11.80
12.53
13.60
14.70
15.45
15.56
14.96
13.77
12.29
10.86
9.68
8.76
7.93
6.93
5.53
3.68
1.49
-0.80
-2.94
-4.80
-6.39
-7.88
-9.48
-11.41
-13.79
-16.59
-19.61
-22.43
-24.54
-25.38
-24.57
-22.02
-18.01
-13.04
-7.71
-2.51
2.25
6.39
9.85
12.51
14.23
14.93
14.68
13.75
12.51
11.37
10.58
10.22
10.15
10.22
10.24
10.14
9.96
9.80
9.74
9.75
9.70
9.37
8.53
7.04
4.90
2.31
-0.44
-3.02
-5.20
-6.86
-8.06
-8.97
-9.81
-10.84
-12.31
-14.39
-17.14
-20.34
-23.45
-25.74
-26.46
-25.11
-21.67
-16.56
-10.57
-4.46
1.15
6.00
10.04
13.29
15.73
17.25
17.83
17.53
16.63
15.49
14.46
13.72
13.30
13.03
12.75
12.34
11.80
11.27
10.86
10.62
10.47
10.18
9.48
8.19
6.27
3.83
1.12
-1.60
-4.10
-6.27
-8.14
-9.79
-11.40
-13.11
-15.03
-17.12
-19.20
-20.88
-21.67
-21.10
-18.88
-15.07
-10.10
-4.63
0.65
5.20
8.75
11.25
12.68
13.11
12.57
11.21
9.37
7.53
6.19
5.64
5.88
6.61
7.47
8.13
8.52
8.74
8.91
9.05
9.01
8.56
7.47
5.74
3.52
1.14
-1.08
-2.90
-4.24
-5.22
-6.05
-7.02
-8.45
-10.64
-13.76
-17.69
-22.01
-25.92
-28.55
-29.07
-27.11
-22.84
-16.94
-10.38
-4.04
1.47
5.92
9.37
11.95
13.69
14.60
14.68
14.07
13.13
12.26
11.82
11.87
12.23
12.56
12.54
12.09
11.35
10.58
9.99
9.65
9.41
9.05
8.31
7.06
5.29
3.07
0.63
-1.85
-4.13
-6.08
-7.67
-8.98
-10.16
-11.37
-12.79
-14.51
-16.59
-18.93
-21.29
-23.17
-23.96
-23.09
-20.31
-15.82
-10.25
-4.45
0.86
5.20
8.48
10.81
12.35
13.22
13.49
13.31
12.86
12.44
12.24
12.35
12.61
12.73
12.49
11.78
10.76
9.68
8.82
8.32
8.15
8.15
8.08
7.76
7.08
6.01
4.62
3.04
1.38
-0.26
-1.81
-3.33
-4.93
-6.85
-9.28
-12.33
-15.89
-19.56
-22.75
-24.73
-24.93
-23.12
-19.50
-14.61
-9.18
-3.89
0.77
4.51
7.23
8.93
9.70
9.69
9.17
8.42
7.72
7.27
7.10
7.21
7.52
7.95
8.40
8.72
8.78
8.44
7.68
6.59
5.34
4.15
3.18
2.51
2.14
1.95
1.74
1.34
0.59
-0.61
-2.27
-4.36
-6.86
-9.71
-12.76
-15.71
-18.01
-19.02
-18.21
-15.41
-10.97
-5.66
-0.46
3.85
6.83
8.52
9.21
9.29
9.00
8.42
7.56
6.51
5.47
4.75
4.65
5.29
6.53
8.03
9.31
9.98
9.82
8.87
7.36
5.64
3.98
2.52
1.27
0.07
-1.22
-2.75
-4.60
-6.81
-9.45
-12.51
-15.83
-18.97
-21.30
-22.10
-20.90
-17.70
-13.01
-7.68
-2.58
1.68
4.91
7.18
8.70
9.61
9.94
9.71
9.05
8.15
7.35
6.90
6.94
7.41
8.10
8.73
9.03
8.80
7.98
6.57
4.73
2.63
0.49
-1.51
-3.25
-4.73
-5.99
-7.23
-8.68
-10.60
-13.10
-15.99
-18.81
-20.88
-21.52
-20.36
-17.42
-13.18
-8.37
-3.71
0.30
3.43
5.75
7.43
8.64
9.47
9.93
10.03
9.75
9.22
8.60
8.10
7.93
8.14
8.64
9.18
9.46
9.27
8.48
7.18
5.54
3.73
1.88
0.04
-1.79
-3.62
-5.44
-7.23
-9.02
-10.92
-13.10
-15.67
-18.55
-21.36
-23.50
-24.33
-23.45
-20.91
-17.19
-13.01
-9.02
-5.54
-2.47
0.53
3.71
7.05
10.19
12.68
14.17
14.70
14.64
14.52
14.71
15.26
15.89
16.21
15.96
15.21
14.25
13.47
13.03
12.79
12.45
11.65
10.25
8.35
6.24
4.20
2.34
0.61
-1.20
-3.31
-5.85
-8.83
-12.15
-15.54
-18.65
-20.99
-22.12
-21.74
-19.84
-16.72
-12.88
-8.83
-4.90
-1.21
2.27
5.51
8.32
10.43
11.56
11.70
11.05
10.06
9.15
8.57
8.33
8.25
8.16
7.95
7.70
7.53
7.56
7.81
8.15
8.38
8.26
7.66
6.60
5.23
3.83
2.66
1.85
1.33
0.90
0.22
-1.03
-3.05
-5.81
-9.00
-12.01
-14.11
-14.65
-13.24
-9.99
-5.45
-0.47
4.11
7.76
10.33
12.02
13.11
13.82
14.18
14.16
13.79
13.20
12.62
12.25
12.12
12.10
11.98
11.63
11.07
10.42
9.78
9.16
8.46
7.55
6.37
5.03
3.61
2.22
0.84
-0.60
-2.13
-3.71
-5.26
-6.79
-8.42
-10.36
-12.71
-15.30
-17.63
-18.99
-18.80
-16.88
-13.57
-9.56
-5.60
-2.18
0.53
2.64
4.28
5.51
6.29
6.61
6.56
6.39
6.35
6.57
6.99
7.41
7.62
7.53
7.22
6.82
6.41
5.95
5.30
4.28
2.81
0.93
-1.18
-3.27
-5.13
-6.64
-7.83
-8.87
-10.02
-11.52
-13.53
-16.00
-18.70
-21.21
-23.00
-23.61
-22.75
-20.46
-17.09
-13.20
-9.30
-5.74
-2.61
0.16
2.66
4.89
6.78
8.25
9.30
10.07
10.68
11.23
11.69
11.98
12.03
11.87
11.61
11.32
11.04
10.74
10.33
9.74
8.95
7.94
6.67
5.10
3.18
1.00
-1.27
-3.40
-5.15
-6.45
-7.36
-8.15
-9.11
-10.56
-12.66
-15.39
-18.49
-21.47
-23.75
-24.78
-24.26
-22.20
-18.93
-14.96
-10.79
-6.75
-2.97
0.59
3.95
7.04
9.65
11.52
12.46
12.54
12.02
11.34
10.87
10.83
11.19
11.76
12.31
12.65
12.75
12.60
12.24
11.72
11.05
10.28
9.43
8.51
7.43
6.11
4.51
2.70
0.86
-0.78
-2.07
-3.01
-3.71
-4.41
-5.33
-6.69
-8.61
-11.11
-14.05
-17.03
-19.52
-20.90
-20.74
-18.91
-15.70
-11.67
-7.45
-3.55
-0.20
2.54
4.77
6.51
7.78
8.55
8.86
8.81
8.57
8.28
8.05
7.88
7.69
7.44
7.12
6.80
6.60
6.63
6.93
7.44
8.00
8.39
8.44
8.02
7.08
5.67
3.91
2.02
0.27
-1.12
-2.02
-2.50
-2.83
-3.40
-4.59
-6.64
-9.49
-12.83
-16.09
-18.60
-19.80
-19.32
-17.19
-13.72
-9.52
-5.23
-1.38
1.74
4.04
5.61
6.55
6.95
6.92
6.57
6.06
5.54
5.15
4.94
4.91
4.99
5.09
5.07
4.84
4.35
3.64
2.81
1.98
1.25
0.64
0.07
-0.57
-1.38
-2.38
-3.56
-4.90
-6.45
-8.31
-10.60
-13.32
-16.28
-19.03
-21.01
-21.69
-20.76
-18.28
-14.71
-10.68
-6.86
-3.66
-1.18
0.72
2.24
3.52
4.54
5.24
5.57
5.65
5.71
5.99
6.59
7.43
8.28
8.90
9.12
8.90
8.33
7.46
6.38
5.11
3.71
2.24
0.84
-0.40
-1.44
-2.32
-3.15
-4.07
-5.20
-6.65
-8.50
-10.82
-13.59
-16.61
-19.52
-21.76
-22.81
-22.28
-20.15
-16.71
-12.48
-8.02
-3.75
0.11
3.46
6.23
8.27
9.41
9.57
8.91
7.80
6.73
6.05
5.91
6.19
6.61
6.96
7.12
7.13
7.02
6.78
6.32
5.49
4.28
2.77
1.12
-0.50
-1.96
-3.27
-4.47
-5.63
-6.82
-8.10
-9.58
-11.35
-13.46
-15.86
-18.27
-20.21
-21.13
-20.57
-18.34
-14.66
-10.07
-5.27
-0.85
2.79
5.59
7.67
9.20
10.35
11.20
11.80
12.22
12.58
13.00
13.53
14.10
14.57
14.74
14.48
13.81
12.88
11.93
11.09
10.37
9.61
8.62
7.31
5.70
4.02
2.48
1.18
0.10
-0.91
-2.02
-3.40
-5.17
-7.42
-10.13
-13.11
-15.94
-18.00
-18.69
-17.65
-14.96
-11.12
-6.86
-2.87
0.46
3.03
4.96
6.41
7.45
8.02
8.09
7.66
6.92
6.13
5.55
5.35
5.49
5.77
5.93
5.76
5.15
4.14
2.88
1.53
0.26
-0.86
-1.77
-2.52
-3.17
-3.89
-4.86
-6.28
-8.28
-10.83
-13.77
-16.69
-19.07
-20.35
-20.07
-18.02
-14.38
-9.66
-4.59
0.03
3.63
5.98
7.18
7.55
7.45
7.21
7.01
6.98
7.15
7.58
8.27
9.15
10.12
10.97
11.49
11.44
10.73
9.35
7.46
5.30
3.13
1.17
-0.51
-1.93
-3.20
-4.48
-5.90
-7.59
-9.67
-12.15
-14.93
-17.70
-19.94
-21.11
-20.73
-18.68
-15.21
-10.88
-6.41
-2.40
0.84
3.30
5.17
6.68
7.97
9.10
10.11
11.03
11.97
12.90
13.80
14.48
14.80
14.68
14.17
13.37
12.39
11.27
9.97
8.48
6.82
5.12
3.49
2.05
0.82
-0.27
-1.35
-2.58
-4.12
-6.12
-8.63
-11.54
-14.56
-17.20
-18.89
-19.17
-17.83
-15.00
-11.14
-6.88
-2.83
0.61
3.32
5.43
7.16
8.64
9.87
10.73
11.08
10.89
10.26
9.45
8.66
8.06
7.65
7.43
7.39
7.56
7.96
8.47
8.84
8.73
7.84
6.09
3.70
1.12
-1.13
-2.70
-3.56
-3.97
-4.39
-5.22
-6.71
-8.79
-11.22
-13.61
-15.56
-16.77
-16.90
-15.79
-13.36
-9.80
-5.60
-1.39
2.25
5.06
7.12
8.82
10.44
12.09
13.56
14.52
14.81
14.50
13.97
13.59
13.57
13.84
14.19
14.41
14.37
14.14
13.81
13.40
12.88
12.14
11.08
9.71
8.13
6.50
4.96
3.53
2.16
0.73
-0.89
-2.76
-4.88
-7.12
-9.37
-11.36
-12.80
-13.37
-12.79
-10.97
-8.13
-4.72
-1.33
1.52
3.61
5.00
6.02
6.99
8.12
9.41
10.69
11.70
12.23
12.21
11.71
10.94
10.11
9.41
8.90
8.52
8.10
7.42
6.36
4.93
3.29
1.66
0.21
-1.05
-2.24
-3.49
-4.96
-6.62
-8.47
-10.49
-12.71
-15.10
-17.48
-19.45
-20.44
-19.99
-17.91
-14.46
-10.22
-5.93
-2.16
0.81
2.95
4.44
5.38
5.87
5.94
5.66
5.17
4.67
4.33
4.23
4.37
4.61
4.85
4.98
4.96
4.77
4.38
3.79
3.01
2.10
1.13
0.15
-0.84
-1.92
-3.18
-4.74
-6.66
-8.99
-11.71
-14.72
-17.72
-20.27
-21.80
-21.88
-20.42
-17.70
-14.30
-10.86
-7.78
-5.16
-2.83
-0.59
1.68
3.92
5.96
7.63
8.88
9.74
10.32
10.68
10.84
10.75
10.35
9.69
8.90
8.17
7.67
7.40
7.20
6.73
5.71
4.00
1.72
-0.80
-3.20
-5.23
-6.83
-8.14
-9.42
-10.86
-12.63
-14.70
-16.89
-18.87
-20.22
-20.57
-19.68
-17.59
-14.58
-11.10
-7.62
-4.43
-1.65
0.80
3.01
5.07
6.92
8.46
9.58
10.24
10.44
10.27
9.84
9.26
8.58
7.82
6.97
6.04
5.13
4.39
3.98
4.00
4.40
4.95
5.31
5.16
4.35
2.97
1.29
-0.39
-1.85
-3.11
-4.33
-5.77
-7.61
-9.94
-12.70
-15.68
-18.55
-20.82
-21.90
-21.23
-18.48
-13.77
-7.68
-1.17
4.84
9.69
13.17
15.42
16.76
17.40
17.43
16.90
15.97
14.99
14.41
14.60
15.60
17.08
18.47
19.19
18.93
17.76
16.08
14.38
13.12
12.47
12.31
12.32
12.02
11.06
9.24
6.61
3.42
0.00
-3.35
-6.47
-9.34
-12.01
-14.58
-17.19
-19.94
-22.86
-25.78
-28.31
-29.94
-30.20
-28.94
-26.40
-23.16
-19.88
-17.03
-14.76
-12.95
-11.44
-10.15
-9.16
-8.53
-8.21
-7.97
-7.45
-6.41
-4.78
-2.78
-0.68
1.27
2.97
4.57
6.27
8.24
10.49
12.87
15.04
16.72
17.67
17.89
17.55
17.00
16.62
16.64
17.08
17.67
18.00
17.58
16.04
13.25
9.34
4.78
0.30
-3.23
-5.00
-4.48
-1.73
2.56
7.26
11.13
13.27
13.36
11.68
8.84
5.52
2.14
-1.16
-4.44
-7.72
-10.79
-13.25
-14.54
-14.24
-12.31
-9.16
-5.58
-2.43
-0.34
0.53
0.42
-0.18
-0.92
-1.70
-2.69
-4.06
-5.79
-7.58
-8.92
-9.45
-9.13
-8.31
-7.50
-7.14
-7.25
-7.44
-7.12
-5.78
-3.31
-0.10
3.05
5.30
6.02
5.06
2.80
-0.01
-2.51
-4.03
-4.26
-3.31
-1.58
0.47
2.49
4.37
6.09
7.72
9.16
10.25
10.68
10.21
8.65
5.95
2.27
-2.12
-6.74
-11.02
-14.51
-17.03
-18.80
-20.32
-22.11
-24.45
-27.21
-29.89
-31.85
-32.57
-31.88
-29.95
-27.14
-23.86
-20.48
-17.33
-14.66
-12.62
-11.06
-9.60
-7.79
-5.40
-2.73
-0.57
0.01
-1.61
-5.25
-9.76
-13.42
-14.68
-12.90
-8.54
-2.93
2.35
6.15
8.03
8.19
7.16
5.51
3.63
1.72
-0.04
-1.45
-2.28
-2.40
-1.88
-1.09
-0.63
-1.11
-2.88
-5.82
-9.24
-12.04
-13.08
-11.66
-7.74
-2.10
4.06
9.54
13.58
16.11
17.57
18.63
19.82
21.28
22.82
24.04
24.61
24.44
23.71
22.78
21.99
21.46
21.06
20.42
19.14
16.98
14.01
10.58
7.14
4.09
1.59
-0.40
-2.01
-3.33
-4.39
-5.29
-6.25
-7.63
-9.72
-12.43
-15.22
-17.26
-17.71
-16.20
-12.97
-8.81
-4.65
-1.15
1.46
3.35
4.83
6.08
7.06
7.57
7.54
7.14
6.84
7.14
8.35
10.30
12.38
13.79
13.86
12.43
9.79
6.60
3.46
0.71
-1.66
-3.88
-6.13
-8.39
-10.39
-11.90
-12.83
-13.45
-14.25
-15.71
-17.96
-20.67
-23.06
-24.20
-23.45
-20.67
-16.30
-11.19
-6.18
-1.89
1.47
4.02
5.99
7.59
8.94
10.10
11.10
11.96
12.60
12.92
12.76
12.10
11.05
9.89
8.86
8.08
7.50
6.97
6.35
5.60
4.82
4.02
3.11
1.87
0.01
-2.58
-5.76
-9.16
-12.34
-14.93
-16.70
-17.54
-17.32
-15.96
-13.42
-9.85
-5.66
-1.51
1.92
4.13
4.93
4.52
3.37
2.13
1.43
1.80
3.50
6.47
10.22
13.99
16.96
18.49
18.43
17.01
14.80
12.39
10.20
8.41
6.96
5.66
4.30
2.72
0.88
-1.17
-3.31
-5.48
-7.71
-10.10
-12.78
-15.71
-18.62
-21.02
-22.42
-22.53
-21.40
-19.43
-17.15
-15.02
-13.26
-11.85
-10.59
-9.27
-7.75
-6.00
-4.11
-2.24
-0.57
0.77
1.70
2.22
2.40
2.31
1.96
1.31
0.26
-1.23
-3.19
-5.48
-7.90
-10.29
-12.55
-14.71
-16.87
-19.11
-21.42
-23.72
-25.79
-27.43
-28.45
-28.61
-27.68
-25.44
-21.81
-16.96
-11.35
-5.62
-0.48
3.51
6.12
7.40
7.60
7.02
6.01
4.77
3.49
2.33
1.47
1.10
1.35
2.26
3.77
5.77
8.17
10.96
14.15
17.69
21.38
24.79
27.39
28.70
28.46
26.73
23.78
20.02
15.76
11.23
6.58
2.08
-1.92
-4.90
-6.36
-5.91
-3.46
0.72
6.06
11.81
17.26
21.87
25.34
27.63
28.85
29.15
28.60
27.27
25.21
22.63
19.88
17.42
15.65
14.70
14.41
14.36
14.06
13.18
11.69
9.77
7.73
5.81
4.10
2.56
1.15
-0.13
-1.23
-2.14
-2.97
-3.96
-5.34
-7.16
-9.23
-11.10
-12.22
-12.18
-10.81
-8.29
-5.02
-1.43
2.12
5.46
8.53
11.33
13.82
15.89
17.42
18.31
18.57
18.32
17.82
17.31
16.95
16.74
16.58
16.28
15.61
14.47
12.92
11.19
9.57
8.35
7.66
7.45
7.49
7.46
7.05
5.98
4.10
1.40
-1.86
-5.21
-8.01
-9.67
-9.85
-8.63
-6.50
-4.12
-2.03
-0.47
0.62
1.47
2.24
2.89
3.20
2.90
1.90
0.36
-1.37
-2.78
-3.56
-3.61
-3.16
-2.57
-2.27
-2.48
-3.31
-4.63
-6.28
-8.13
-10.03
-11.90
-13.60
-14.99
-15.92
-16.42
-16.71
-17.11
-17.96
-19.28
-20.74
-21.73
-21.63
-20.13
-17.35
-13.76
-9.84
-5.81
-1.56
3.20
8.56
14.13
19.06
22.29
23.02
21.08
16.99
11.79
6.66
2.55
-0.06
-1.17
-1.17
-0.59
0.10
0.59
0.71
0.45
-0.15
-0.98
-1.91
-2.79
-3.43
-3.67
-3.41
-2.69
-1.68
-0.76
-0.32
-0.63
-1.67
-3.05
-4.23
-4.70
-4.32
-3.36
-2.34
-1.70
-1.53
-1.55
-1.29
-0.48
0.74
1.93
2.55
2.32
1.37
0.14
-0.84
-1.13
-0.49
1.17
3.85
7.48
11.80
16.31
20.23
22.79
23.37
21.84
18.55
14.22
9.63
5.33
1.55
-1.81
-5.01
-8.25
-11.57
-14.85
-17.90
-20.55
-22.64
-24.04
-24.56
-23.92
-21.84
-18.19
-13.14
-7.18
-1.07
4.35
8.48
11.09
12.33
12.58
12.28
11.69
10.88
9.84
8.59
7.30
6.32
6.02
6.62
8.05
9.99
11.87
13.15
13.45
12.66
10.93
8.53
5.79
2.99
0.38
-1.79
-3.30
-4.05
-4.11
-3.84
-3.83
-4.65
-6.67
-9.81
-13.53
-16.97
-19.24
-19.77
-18.46
-15.71
-12.19
-8.61
-5.48
-3.03
-1.18
0.27
1.54
2.78
3.98
5.06
5.90
6.46
6.76
6.89
6.91
6.83
6.61
6.18
5.59
4.95
4.44
4.18
4.11
4.04
3.71
2.98
1.90
0.71
-0.28
-0.88
-1.07
-1.06
-1.15
-1.64
-2.75
-4.54
-6.90
-9.58
-12.20
-14.25
-15.26
-14.88
-13.06
-10.07
-6.48
-2.92
0.11
2.47
4.27
5.75
7.08
8.19
8.83
8.85
8.28
7.47
6.91
7.01
7.88
9.25
10.66
11.61
11.83
11.35
10.38
9.24
8.16
7.29
6.58
5.92
5.14
4.17
3.07
1.99
1.16
0.73
0.71
0.93
1.05
0.70
-0.43
-2.43
-5.12
-8.08
-10.72
-12.46
-12.89
-11.90
-9.68
-6.70
-3.45
-0.31
2.54
5.14
7.59
9.98
12.22
14.13
15.54
16.35
16.67
16.72
16.75
16.83
16.88
16.69
16.08
15.00
13.59
12.13
10.87
9.97
9.35
8.86
8.24
7.32
5.99
4.31
2.37
0.34
-1.65
-3.54
-5.31
-6.98
-8.50
-9.82
-10.88
-11.71
-12.49
-13.46
-14.75
-16.26
-17.56
-18.09
-17.37
-15.30
-12.25
-8.90
-5.95
-3.84
-2.53
-1.65
-0.66
0.78
2.74
4.95
6.92
8.09
8.02
6.50
3.64
-0.03
-3.52
-5.60
-5.03
-1.07
6.10
15.16
23.91
29.87
31.15
27.22
19.09
9.13
0.17
-5.34
-6.13
-2.35
4.64
12.95
20.73
26.72
30.45
32.15
32.49
32.23
32.07
32.52
33.98
36.72
40.92
46.45
52.67
58.29
61.55
60.55
53.98
41.64
24.67
5.25
-14.02
-30.93
-44.17
-53.52
-59.53
-63.10
-65.03
-65.82
-65.65
-64.57
-62.66
-60.13
-57.27
-54.33
-51.38
-48.33
-44.94
-41.07
-36.77
-32.35
-28.30
-25.12
-23.05
-22.04
-21.71
-21.50
-20.92
-19.63
-17.49
-14.66
-11.39
-8.08
-5.09
-2.79
-1.36
-0.85
-1.15
-1.99
-3.12
-4.37
-5.67
-7.06
-8.55
-10.08
-11.46
-12.45
-12.79
-12.35
-11.16
-9.42
-7.43
-5.50
-3.91
-2.81
-2.27
-2.28
-2.81
-3.80
-5.17
-6.85
-8.70
-10.57
-12.35
-13.93
-15.32
-16.59
-17.85
-19.25
-20.85
-22.64
-24.45
-25.98
-26.84
-26.67
-25.24
-22.58
-19.02
-15.08
-11.28
-8.04
-5.50
-3.59
-2.09
-0.76
0.61
2.19
4.10
6.45
9.24
12.33
15.41
18.06
19.88
20.70
20.64
20.02
19.25
18.63
18.18
17.75
17.11
16.14
14.94
13.74
12.77
12.05
11.39
10.40
8.75
6.30
3.22
-0.05
-2.95
-4.88
-5.36
-4.20
-1.56
1.99
5.57
8.13
8.87
7.39
3.87
-1.01
-6.35
-11.28
-15.25
-18.04
-19.74
-20.52
-20.55
-19.90
-18.58
-16.63
-14.09
-11.15
-7.98
-4.78
-1.66
1.36
4.33
7.38
10.52
13.71
16.70
19.21
20.94
21.71
21.53
20.60
19.20
17.62
16.10
14.82
14.01
13.86
14.51
15.96
17.97
20.16
22.05
23.25
23.52
22.94
21.92
21.07
20.97
21.75
22.94
23.47
22.09
17.84
10.45
0.33
-11.66
-24.46
-37.06
-48.35
-57.21
-62.62
-64.05
-61.81
-57.04
-51.38
-46.26
-42.43
-39.84
-37.98
-36.37
-34.94
-34.07
-34.38
-36.51
-40.86
-47.41
-55.49
-63.57
-69.26
-69.80
-62.88
-47.55
-24.80
2.58
30.76
55.92
75.21
87.22
92.02
90.82
85.68
79.16
73.95
72.39
75.93
84.60
96.96
110.40
121.99
129.49
132.23
131.43
129.54
129.05
131.04
134.29
135.56
130.73
116.64
92.45
60.08
23.48
-12.91
-45.47
-72.14
-92.18
-105.54
-112.34
-112.77
-107.53
-98.12
-86.80
-75.92
-67.21
-61.16
-57.07
-53.72
-50.08
-45.82
-41.10
-36.13
-30.77
-24.68
-17.63
-9.94
-2.42
3.99
8.58
10.98
10.90
7.94
1.48
-8.67
-21.93
-36.52
-49.97
-59.89
-64.94
-65.26
-62.07
-57.02
-51.36
-45.67
-40.10
-34.76
-29.95
-26.11
-23.49
-21.97
-21.01
-19.98
-18.53
-16.78
-15.11
-13.92
-13.30
-12.99
-12.52
-11.36
-9.05
-5.11
1.05
10.11
22.53
38.24
56.34
75.12
92.49
106.66
116.70
122.77
125.90
127.53
128.79
130.22
131.52
131.78
129.75
124.28
114.76
101.36
84.97
66.96
48.73
31.14
14.23
-2.63
-20.16
-38.51
-56.78
-73.28
-86.21
-94.76
-99.39
-101.62
-102.97
-104.14
-104.72
-103.67
-100.28
-94.81
-88.44
-82.45
-77.23
-71.95
-64.87
-54.49
-40.46
-23.99
-7.33
6.99
17.00
21.68
20.94
15.59
7.17
-2.37
-10.97
-16.98
-19.51
-18.75
-15.87
-12.79
-11.55
-13.60
-19.11
-26.73
-33.85
-37.57
-35.87
-28.50
-17.05
-4.26
7.21
15.84
21.63
25.72
29.50
33.86
38.77
43.42
46.69
47.49
45.21
39.80
31.75
21.96
11.54
1.63
-6.81
-13.03
-16.67
-17.83
-17.01
-15.08
-12.88
-10.92
-9.19
-7.32
-4.92
-2.10
0.46
1.73
0.95
-1.92
-6.11
-10.41
-13.92
-16.42
-18.46
-20.89
-24.21
-28.20
-31.99
-34.46
-34.75
-32.48
-27.80
-21.33
-13.98
-6.81
-0.77
3.54
6.05
7.06
6.95
5.81
3.33
-0.90
-6.98
-14.38
-22.03
-28.86
-34.41
-38.88
-42.77
-46.03
-47.62
-45.74
-38.63
-25.53
-7.18
14.29
36.24
56.34
73.11
86.00
95.01
100.37
102.50
101.97
99.54
95.84
91.01
84.46
75.13
62.10
45.38
26.25
6.97
-9.92
-22.57
-30.31
-33.77
-34.38
-33.77
-33.19
-33.37
-34.55
-36.61
-39.22
-41.82
-43.67
-44.01
-42.25
-38.30
-32.80
-27.04
-22.67
-21.09
-22.80
-27.10
-32.30
-36.38
-37.89
-36.44
-32.80
-28.32
-24.21
-21.03
-18.56
-16.27
-13.89
-11.83
-11.19
-13.17
-18.43
-26.52
-35.93
-44.58
-50.46
-52.19
-49.14
-41.24
-28.88
-13.08
4.23
20.13
31.42
35.85
33.34
26.44
19.51
16.89
21.01
31.41
45.16
58.51
68.41
73.59
74.41
72.04
67.47
61.04
52.48
41.50
28.33
14.04
0.30
-10.97
-18.29
-20.97
-19.24
-13.94
-6.09
3.51
14.44
26.57
39.64
52.97
65.34
75.29
81.68
84.24
83.88
82.51
82.35
85.10
91.35
100.41
110.75
120.70
129.05
135.30
139.61
142.37
143.78
143.58
140.95
134.79
124.06
108.08
86.67
60.03
28.57
-7.21
-46.43
-87.33
-126.87
-160.94
-185.25
-196.69
-194.65
-181.36
-161.23
-139.15
-118.85
-101.83
-87.60
-74.72
-61.99
-49.11
-36.45
-24.47
-13.27
-2.75
6.73
13.77
15.98
10.88
-2.83
-24.26
-50.17
-75.96
-97.15
-110.82
-116.27
-114.70
-108.37
-99.59
-90.08
-80.82
-72.32
-64.93
-58.75
-53.47
-48.18
-41.46
-32.09
-19.71
-5.20
9.74
23.49
35.49
46.51
58.09
71.51
86.79
102.43
115.84
124.32
125.92
119.89
106.61
87.15
62.88
35.17
5.29
-25.54
-55.94
-84.28
-108.65
-127.08
-137.92
-140.30
-134.51
-121.95
-104.80
-85.37
-65.55
-46.46
-28.49
-11.61
4.30
19.04
32.12
42.87
50.86
56.16
59.22
60.51
60.15
57.53
51.42
40.49
24.29
4.01
-17.32
-35.72
-47.84
-52.12
-49.13
-40.96
-30.28
-19.19
-8.69
1.22
10.88
20.13
28.49
35.72
42.09
48.05
53.65
58.31
61.05
61.01
57.55
51.03
43.21
36.75
33.72
34.76
38.90
43.94
47.15
45.37
36.42
20.27
-0.82
-23.78
-45.73
-64.38
-78.30
-81.80
-70.97
-46.44
-13.09
23.17
57.26
85.83
107.18
120.90
127.82
128.94
125.34
119.06
112.72
107.52
102.11
94.92
84.98
72.28
57.24
40.24
22.58
6.25
-9.16
-26.20
-47.88
-77.26
-117.69
-167.57
-226.72
-294.04
-354.29
-392.80
-400.20
-374.69
-321.00
-247.53
-164.60
-83.87
-15.54
31.25
57.27
65.37
61.04
51.27
42.43
38.37
39.59
45.11
54.69
66.43
77.64
86.60
92.31
94.42
93.00
88.56
82.67
77.46
73.82
70.83
66.82
60.11
49.61
35.20
17.80
-0.73
-17.99
-32.19
-42.66
-49.44
-53.06
-54.26
-53.60
-51.24
-46.95
-40.43
-31.99
-22.54
-12.85
-3.10
7.37
19.49
33.73
49.36
64.49
76.71
84.08
85.98
83.12
77.01
69.03
59.98
49.98
38.87
26.62
13.62
0.64
-11.38
-21.42
-28.56
-32.17
-32.12
-28.98
-24.02
-18.74
-14.49
-11.90
-10.81
-10.56
-10.36
-9.62
-8.06
-5.71
-2.72
0.60
3.66
5.56
5.29
2.12
-3.95
-12.04
-20.54
-27.52
-31.33
-31.05
-26.66
-19.09
-9.95
-1.09
5.82
9.75
10.46
8.31
4.08
-1.38
-7.26
-12.79
-17.29
-20.25
-21.49
-21.30
-20.32
-19.33
-18.78
-18.64
-18.32
-17.04
-14.18
-9.53
-3.41
3.60
10.84
17.71
23.67
28.33
31.41
32.91
33.16
32.73
32.18
31.69
31.14
30.26
29.06
27.81
26.88
26.21
25.17
22.72
18.07
11.32
3.55
-3.67
-9.10
-12.44
-14.40
-16.14
-18.69
-22.45
-27.21
-32.41
-37.27
-40.97
-42.57
-41.22
-36.51
-28.62
-18.58
-7.95
1.45
8.04
10.82
9.59
5.02
-1.53
-8.23
-13.36
-15.72
-15.02
-11.78
-6.97
-1.54
3.96
9.42
14.82
19.94
24.19
26.72
26.84
24.33
19.63
13.70
7.64
2.39
-1.67
-4.64
-6.97
-9.02
-10.85
-12.16
-12.53
-11.79
-10.28
-8.83
-8.42
-9.76
-12.87
-17.02
-20.98
-23.47
-23.65
-21.38
-17.16
-11.94
-6.67
-1.98
2.01
5.61
9.33
13.51
18.08
22.49
25.95
27.75
27.64
25.87
23.15
20.39
18.42
17.93
19.33
22.68
27.51
32.71
36.60
37.33
33.59
25.29
13.74
1.25
-9.71
-17.44
-21.50
-22.49
-21.36
-18.80
-15.00
-10.06
-4.44
0.66
3.67
3.42
-0.01
-5.05
-9.10
-9.74
-5.88
1.65
10.51
17.95
22.03
22.41
20.23
17.35
15.32
14.66
14.76
14.38
12.39
8.35
2.79
-3.17
-8.24
-11.56
-13.01
-13.12
-12.80
-12.79
-13.52
-14.89
-16.52
-17.90
-18.58
-18.20
-16.49
-13.36
-8.91
-3.52
2.22
7.65
12.24
15.67
17.83
18.72
18.35
16.85
14.45
11.71
9.34
8.07
8.32
10.04
12.72
15.61
17.97
19.33
19.61
18.99
17.82
16.43
15.00
13.54
11.88
9.74
6.85
3.08
-1.42
-6.20
-10.58
-13.81
-15.30
-14.83
-12.53
-8.89
-4.49
0.09
4.41
8.19
11.27
13.56
15.05
15.76
15.72
15.02
13.82
12.31
10.73
9.32
8.21
7.44
6.88
6.31
5.55
4.54
3.35
2.17
1.13
0.28
-0.54
-1.56
-2.96
-4.80
-6.94
-9.12
-11.09
-12.61
-13.49
-13.59
-12.76
-10.89
-8.01
-4.37
-0.43
3.30
6.40
8.68
10.21
11.23
11.90
12.28
12.29
11.89
11.14
10.21
9.36
8.73
8.34
8.04
7.62
6.98
6.10
5.13
4.28
3.66
3.31
3.03
2.53
1.49
-0.35
-3.03
-6.38
-10.04
-13.51
-16.22
-17.73
-17.68
-16.02
-12.91
-8.81
-4.26
0.16
3.97
6.90
8.83
9.77
9.83
9.20
8.15
7.03
6.17
5.81
6.03
6.69
7.52
8.14
8.29
7.82
6.78
5.35
3.71
2.07
0.49
-1.00
-2.46
-3.96
-5.59
-7.39
-9.36
-11.33
-12.99
-13.91
-13.65
-11.99
-9.03
-5.24
-1.28
2.17
4.71
6.31
7.25
7.89
8.51
9.17
9.73
10.01
9.89
9.47
9.01
8.77
8.92
9.38
9.91
10.17
9.89
8.99
7.57
5.88
4.14
2.55
1.15
-0.08
-1.23
-2.40
-3.71
-5.27
-7.17
-9.38
-11.65
-13.53
-14.45
-13.90
-11.73
-8.22
-4.04
-0.02
3.17
5.21
6.21
6.57
6.70
6.89
7.18
7.47
7.60
7.50
7.18
6.72
6.21
5.70
5.23
4.79
4.37
3.94
3.46
2.92
2.29
1.64
1.01
0.44
-0.09
-0.65
-1.34
-2.20
-3.20
-4.28
-5.31
-6.18
-6.73
-6.79
-6.17
-4.72
-2.45
0.42
3.44
6.09
8.01
9.02
9.23
8.86
8.18
7.35
6.44
5.47
4.48
3.54
2.69
1.99
1.40
0.87
0.31
-0.38
-1.25
-2.31
-3.52
-4.81
-6.08
-7.25
-8.37
-9.53
-10.90
-12.65
-14.78
-17.17
-19.55
-21.52
-22.70
-22.67
-21.07
-17.68
-12.57
-6.22
0.56
6.82
11.73
14.85
16.22
16.24
15.43
14.23
12.90
11.61
10.49
9.70
9.34
9.36
9.51
9.39
8.67
7.21
5.14
2.81
0.64
-1.05
-2.18
-2.90
-3.55
-4.48
-5.93
-7.88
-10.04
-11.90
-12.90
-12.66
-11.12
-8.62
-5.75
-3.10
-0.99
0.57
1.86
3.17
4.53
5.71
6.34
6.17
5.30
4.15
3.27
3.06
3.54
4.42
5.19
5.51
5.25
4.59
3.84
3.30
3.05
2.93
2.66
1.91
0.48
-1.64
-4.30
-7.22
-10.13
-12.71
-14.61
-15.48
-15.00
-13.01
-9.66
-5.43
-1.01
2.87
5.68
7.20
7.56
7.09
6.15
5.03
3.89
2.81
1.86
1.14
0.76
0.80
1.22
1.86
2.48
2.83
2.76
2.26
1.42
0.41
-0.64
-1.62
-2.55
-3.45
-4.41
-5.53
-6.95
-8.76
-10.99
-13.51
-16.01
-17.98
-18.89
-18.30
-16.10
-12.50
-8.05
-3.44
0.72
4.02
6.30
7.62
8.12
7.98
7.37
6.48
5.51
4.71
4.28
4.34
4.84
5.57
6.25
6.64
6.58
6.09
5.26
4.26
3.19
2.13
1.07
-0.08
-1.44
-3.19
-5.39
-7.98
-10.71
-13.14
-14.80
-15.32
-14.57
-12.70
-10.00
-6.85
-3.60
-0.48
2.31
4.59
6.17
6.94
6.88
6.17
5.15
4.27
3.90
4.21
5.13
6.30
7.25
7.63
7.29
6.41
5.33
4.38
3.73
3.25
2.67
1.58
-0.25
-2.92
-6.24
-9.85
-13.26
-15.91
-17.32
-17.22
-15.60
-12.74
-9.13
-5.33
-1.78
1.25
3.68
5.53
6.77
7.41
7.41
6.85
5.93
4.93
4.12
3.65
3.50
3.53
3.55
3.41
3.05
2.50
1.78
0.94
0.01
-0.96
-1.92
-2.82
-3.68
-4.61
-5.77
-7.27
-9.06
-10.91
-12.34
-12.91
-12.26
-10.35
-7.44
-4.05
-0.73
2.13
4.38
6.15
7.68
9.12
10.50
11.68
12.50
12.91
13.03
13.06
13.26
13.72
14.36
14.96
15.28
15.14
14.52
13.51
12.28
10.97
9.67
8.41
7.15
5.86
4.52
3.10
1.53
-0.31
-2.54
-5.19
-8.11
-10.91
-13.04
-13.96
-13.36
-11.26
-8.06
-4.35
-0.75
2.37
4.84
6.68
7.93
8.58
8.53
7.74
6.28
4.43
2.59
1.17
0.39
0.17
0.23
0.19
-0.20
-0.97
-1.93
-2.81
-3.42
-3.72
-3.82
-3.91
-4.12
-4.55
-5.21
-6.20
-7.58
-9.34
-11.33
-13.18
-14.39
-14.53
-13.42
-11.20
-8.27
-5.13
-2.19
0.34
2.37
3.90
4.88
5.25
5.03
4.37
3.59
3.02
2.92
3.29
3.89
4.33
4.25
3.49
2.12
0.41
-1.31
-2.76
-3.76
-4.31
-4.54
-4.73
-5.19
-6.20
-7.85
-9.98
-12.10
-13.56
-13.76
-12.38
-9.57
-5.91
-2.13
1.14
3.63
5.42
6.80
8.01
9.05
9.75
9.88
9.38
8.42
7.35
6.52
6.07
5.97
5.99
5.89
5.47
4.71
3.66
2.50
1.37
0.35
-0.58
-1.53
-2.68
-4.18
-6.08
-8.35
-10.80
-13.16
-15.10
-16.27
-16.42
-15.40
-13.24
-10.18
-6.64
-3.04
0.25
3.05
5.34
7.20
8.69
9.86
10.63
10.97
10.91
10.56
10.11
9.70
9.39
9.07
8.59
7.78
6.58
5.10
3.53
2.09
0.91
0.02
-0.72
-1.45
-2.30
-3.32
-4.47
-5.70
-6.95
-8.32
-9.90
-11.82
-13.99
-16.09
-17.56
-17.81
-16.50
-13.71
-9.97
-6.07
-2.71
-0.22
1.47
2.72
3.91
5.22
6.57
7.78
8.68
9.26
9.57
9.73
9.78
9.73
9.56
9.34
9.16
9.12
9.22
9.29
9.11
8.46
7.30
5.70
3.91
2.20
0.74
-0.43
-1.39
-2.31
-3.35
-4.63
-6.24
-8.16
-10.27
-12.33
-13.95
-14.69
-14.17
-12.33
-9.40
-5.92
-2.50
0.34
2.39
3.72
4.53
5.05
5.41
5.60
5.59
5.41
5.13
4.87
4.74
4.74
4.82
4.85
4.74
4.48
4.10
3.67
3.22
2.74
2.17
1.46
0.57
-0.47
-1.58
-2.66
-3.68
-4.65
-5.71
-7.03
-8.71
-10.67
-12.62
-14.04
-14.42
-13.42
-11.07
-7.76
-4.09
-0.62
2.23
4.34
5.72
6.46
6.65
6.38
5.82
5.20
4.75
4.65
4.96
5.60
6.37
7.07
7.53
7.59
7.19
6.31
5.02
3.53
2.05
0.82
-0.09
-0.69
-1.17
-1.74
-2.62
-3.95
-5.76
-8.03
-10.65
-13.33
-15.68
-17.16
-17.28
-15.80
-12.80
-8.80
-4.58
-0.91
1.69
3.07
3.49
3.40
3.22
3.24
3.49
3.84
4.14
4.27
4.26
4.22
4.25
4.40
4.59
4.69
4.55
4.15
3.55
2.88
2.26
1.70
1.14
0.51
-0.28
-1.21
-2.30
-3.54
-5.03
-6.85
-9.06
-11.57
-14.11
-16.23
-17.46
-17.42
-15.96
-13.25
-9.72
-5.96
-2.50
0.30
2.35
3.76
4.75
5.51
6.15
6.72
7.21
7.65
8.06
8.45
8.74
8.83
8.64
8.16
7.51
6.83
6.31
5.98
5.80
5.58
5.13
4.30
3.07
1.56
-0.03
-1.54
-2.91
-4.22
-5.60
-7.14
-8.83
-10.57
-12.25
-13.76
-15.03
-15.95
-16.33
-15.92
-14.50
-12.06
-8.84
-5.29
-1.92
0.91
3.10
4.73
5.99
6.97
7.66
7.98
7.86
7.37
6.66
5.91
5.26
4.74
4.29
3.84
3.33
2.74
2.08
1.36
0.63
-0.09
-0.78
-1.40
-1.99
-2.59
-3.26
-4.01
-4.84
-5.76
-6.80
-8.03
-9.48
-11.02
-12.29
-12.81
-12.13
-10.06
-6.78
-2.78
1.30
4.90
7.71
9.69
10.95
11.63
11.81
11.49
10.71
9.56
8.29
7.20
6.56
6.50
6.95
7.69
8.36
8.67
8.37
7.40
5.83
3.86
1.73
-0.34
-2.21
-3.83
-5.17
-6.27
-7.11
-7.74
-8.31
-9.07
-10.32
-12.17
-14.45
-16.64
-18.02
-17.99
-16.28
-13.08
-9.02
-4.81
-1.10
1.79
3.79
5.03
5.66
5.84
5.66
5.26
4.77
4.38
4.23
4.41
4.90
5.56
6.17
6.52
6.43
5.89
5.00
3.94
2.86
1.82
0.75
-0.40
-1.66
-2.97
-4.16
-5.11
-5.83
-6.47
-7.31
-8.67
-10.69
-13.29
-16.11
-18.50
-19.80
-19.50
-17.42
-13.85
-9.46
-4.99
-1.09
1.96
4.18
5.72
6.76
7.35
7.53
7.35
7.05
6.93
7.23
7.96
8.89
9.65
9.91
9.59
8.86
8.04
7.42
7.12
7.04
7.02
6.86
6.49
5.90
5.15
4.28
3.30
2.22
1.04
-0.21
-1.48
-2.85
-4.40
-6.31
-8.69
-11.44
-14.24
-16.51
-17.66
-17.25
-15.24
-11.96
-8.00
-4.01
-0.40
2.65
5.16
7.16
8.64
9.50
9.71
9.38
8.76
8.15
7.79
7.75
7.94
8.21
8.39
8.39
8.19
7.81
7.34
6.87
6.47
6.22
6.04
5.80
5.33
4.47
3.19
1.60
-0.13
-1.86
-3.55
-5.31
-7.31
-9.64
-12.15
-14.45
-15.96
-16.17
-14.75
-11.78
-7.72
-3.21
1.08
4.72
7.53
9.55
10.90
11.62
11.73
11.23
10.22
8.96
7.77
6.91
6.48
6.35
6.27
5.95
5.27
4.22
2.93
1.49
-0.06
-1.76
-3.63
-5.64
-7.65
-9.48
-10.99
-12.16
-13.15
-14.23
-15.66
-17.61
-20.04
-22.67
-25.05
-26.67
-27.08
-26.01
-23.47
-19.74
-15.33
-10.81
-6.73
-3.46
-1.16
0.22
0.86
1.00
0.87
0.67
0.60
0.85
1.54
2.70
4.17
5.69
6.93
7.65
7.82
7.62
7.31
7.07
6.95
6.77
6.29
5.33
3.87
2.09
0.23
-1.48
-2.96
-4.21
-5.42
-6.79
-8.53
-10.75
-13.38
-16.12
-18.51
-20.00
-20.15
-18.79
-16.04
-12.33
-8.18
-4.07
-0.29
3.08
6.07
8.76
11.14
13.14
14.63
15.57
16.01
16.11
16.09
16.12
16.30
16.55
16.78
16.80
16.52
15.93
15.08
14.12
13.18
12.35
11.60
10.81
9.78
8.36
6.56
4.54
2.61
0.99
-0.25
-1.27
-2.35
-3.80
-5.76
-8.21
-10.97
-13.83
-16.62
-19.12
-21.08
-22.15
-22.01
-20.48
-17.70
-14.12
-10.31
-6.77
-3.69
-0.91
1.84
4.72
7.61
10.18
12.05
13.10
13.51
13.62
13.81
14.19
14.63
14.80
14.52
13.75
12.75
11.81
11.13
10.69
10.26
9.53
8.28
6.48
4.34
2.18
0.32
-1.06
-1.96
-2.55
-3.11
-3.93
-5.23
-7.07
-9.32
-11.65
-13.56
-14.49
-14.06
-12.15
-9.03
-5.22
-1.32
2.23
5.23
7.67
9.62
11.10
12.01
12.24
11.84
10.97
9.98
9.20
8.83
8.86
9.15
9.49
9.71
9.70
9.41
8.86
8.07
7.13
6.13
5.10
4.02
2.77
1.24
-0.58
-2.52
-4.35
-5.85
-6.92
-7.65
-8.29
-9.11
-10.34
-12.08
-14.30
-16.83
-19.35
-21.40
-22.51
-22.29
-20.59
-17.61
-13.79
-9.67
-5.72
-2.16
1.00
3.85
6.44
8.65
10.32
11.30
11.65
11.64
11.67
12.03
12.77
13.70
14.49
14.83
14.63
13.97
13.08
12.15
11.31
10.58
9.94
9.37
8.82
8.21
7.36
6.14
4.49
2.52
0.47
-1.35
-2.73
-3.66
-4.31
-5.00
-6.05
-7.67
-9.89
-12.59
-15.52
-18.29
-20.48
-21.56
-21.16
-19.09
-15.52
-10.94
-6.06
-1.56
2.16
4.99
7.12
8.79
10.17
11.26
11.95
12.19
12.08
11.87
11.79
11.96
12.32
12.68
12.79
12.58
12.09
11.51
11.00
10.65
10.40
10.11
9.60
8.70
7.35
5.52
3.32
0.94
-1.38
-3.39
-4.96
-6.08
-6.91
-7.76
-8.92
-10.62
-12.86
-15.43
-17.88
-19.72
-20.46
-19.83
-17.80
-14.61
-10.70
-6.54
-2.53
1.05
4.04
6.33
7.86
8.59
8.63
8.18
7.61
7.21
7.16
7.38
7.62
7.58
7.11
6.25
5.22
4.25
3.46
2.85
2.28
1.64
0.83
-0.19
-1.40
-2.79
-4.26
-5.69
-6.89
-7.71
-8.11
-8.27
-8.57
-9.49
-11.40
-14.34
-17.92
-21.29
-23.44
-23.46
-20.97
-16.19
-9.93
-3.31
2.64
7.19
10.01
11.13
10.84
9.52
7.65
5.78
4.41
3.92
4.42
5.64
7.01
7.84
7.60
6.10
3.60
0.68
-1.97
-3.79
-4.53
-4.27
-3.38
-2.35
-1.65
-1.66
-2.54
-4.22
-6.33
-8.32
-9.56
-9.51
-8.02
-5.36
-2.23
0.52
2.22
2.72
2.48
2.43
3.51
6.24
10.47
15.43
20.01
23.20
24.42
23.64
21.33
18.32
15.57
13.90
13.71
14.62
15.53
14.81
11.03
3.64
-6.65
-17.97
-27.98
-34.73
-37.27
-35.81
-31.33
-25.12
-18.29
-11.71
-6.04
-1.80
0.61
1.16
0.23
-1.37
-2.66
-2.86
-1.62
0.81
3.68
6.06
7.11
6.46
4.35
1.62
-0.52
-0.86
1.40
6.36
13.35
21.13
28.25
33.54
36.40
36.91
35.62
33.30
30.58
27.82
25.00
21.90
18.25
13.93
9.05
3.94
-0.94
-5.17
-8.47
-10.80
-12.31
-13.28
-14.06
-14.89
-15.98
-17.45
-19.40
-21.80
-24.47
-27.06
-29.15
-30.44
-30.94
-30.90
-30.74
-30.73
-30.77
-30.44
-29.21
-26.74
-23.13
-18.86
-14.56
-10.66
-7.20
-3.88
-0.35
3.51
7.43
10.86
13.21
14.19
13.95
13.05
12.15
11.76
12.00
12.67
13.35
13.76
13.82
13.71
13.72
14.00
14.44
14.66
14.22
12.80
10.30
6.92
3.00
-1.12
-5.18
-8.96
-12.21
-14.59
-15.69
-15.24
-13.24
-10.08
-6.40
-2.94
-0.20
1.72
3.08
4.30
5.74
7.44
9.12
10.35
10.76
10.24
8.95
7.24
5.43
3.69
2.06
0.47
-1.05
-2.35
-3.19
-3.43
-3.13
-2.62
-2.41
-3.03
-4.79
-7.70
-11.46
-15.61
-19.62
-23.13
-25.89
-27.73
-28.43
-27.68
-25.21
-20.98
-15.28
-8.81
-2.50
2.89
6.92
9.69
11.62
13.16
14.52
15.55
15.95
15.50
14.38
13.19
12.81
14.02
17.21
22.14
28.19
34.70
41.33
48.28
56.04
64.98
75.01
85.46
95.24
103.34
109.10
112.21
112.61
110.05
104.12
94.30
80.39
62.84
42.74
21.75
1.57
-16.35
-31.19
-42.75
-51.38
-57.79
-62.82
-67.26
-71.82
-77.17
-83.68
-91.35
-99.47
-106.55
-110.65
-110.05
-104.12
-93.85
-81.78
-71.04
-64.01
-61.34
-61.66
-62.27
-60.36
-54.17
-43.52
-29.68
-14.63
-0.36
11.81
21.40
28.75
34.70
40.22
46.13
52.98
61.02
70.20
79.99
89.17
95.77
97.47
92.35
79.88
61.35
39.55
17.82
-1.23
-16.27
-27.27
-34.81
-39.52
-41.96
-42.88
-43.63
-46.00
-51.68
-61.40
-74.45
-88.72
-101.41
-109.96
-112.81
-109.69
-101.48
-89.79
-76.53
-63.43
-51.80
-42.36
-35.27
-30.22
-26.57
-23.52
-20.24
-15.95
-10.11
-2.43
6.92
17.33
27.75
36.97
44.05
48.75
51.79
54.68
58.90
65.06
72.30
78.43
80.91
78.04
69.95
58.55
46.72
37.03
30.70
27.42
25.88
24.70
23.18
21.49
20.39
20.53
22.00
23.92
24.79
23.01
17.68
9.12
-0.97
-10.07
-15.83
-17.16
-14.81
-11.18
-9.31
-11.44
-17.91
-26.81
-34.80
-38.38
-35.28
-25.18
-9.42
9.44
27.94
41.85
46.37
37.32
13.46
-21.52
-58.78
-86.89
-96.51
-84.69
-56.44
-22.29
6.77
24.26
30.11
29.03
26.59
25.78
26.07
24.95
20.52
13.13
5.18
-0.55
-2.62
-1.60
0.47
1.49
0.49
-1.90
-3.96
-3.92
-0.92
4.52
10.70
15.53
17.45
16.25
13.22
10.70
11.03
15.44
23.32
32.37
39.49
42.07
39.10
31.47
21.50
11.84
4.47
0.09
-1.74
-2.10
-2.05
-2.22
-2.75
-3.43
-3.97
-4.26
-4.38
-4.58
-5.08
-6.04
-7.47
-9.36
-11.74
-14.72
-18.37
-22.54
-26.76
-30.23
-32.14
-31.86
-29.29
-24.81
-19.17
-13.17
-7.48
-2.49
1.68
5.05
7.69
9.71
11.15
12.07
12.47
12.33
11.69
10.67
9.51
8.52
7.92
7.79
7.99
8.30
8.47
8.40
8.03
7.40
6.54
5.50
4.32
3.10
1.93
0.78
-0.48
-2.12
-4.37
-7.27
-10.57
-13.70
-15.96
-16.71
-15.65
-12.84
-8.78
-4.15
0.34
4.21
7.22
9.39
10.84
11.72
12.13
12.18
11.96
11.60
11.28
11.09
11.07
11.10
11.05
10.78
10.23
9.48
8.60
7.70
6.75
5.67
4.36
2.77
0.98
-0.83
-2.44
-3.73
-4.74
-5.60
-6.52
-7.65
-9.13
-11.02
-13.35
-16.05
-18.92
-21.53
-23.35
-23.87
-22.78
-20.16
-16.45
-12.33
-8.46
-5.26
-2.78
-0.85
0.84
2.45
3.96
5.20
5.94
6.08
5.69
4.98
4.23
3.67
3.40
3.40
3.57
3.73
3.75
3.52
3.01
2.26
1.32
0.29
-0.80
-1.89
-2.97
-3.99
-4.88
-5.58
-6.08
-6.38
-6.57
-6.77
-7.14
-7.84
-9.01
-10.72
-12.86
-15.17
-17.19
-18.38
-18.31
-16.73
-13.75
-9.81
-5.53
-1.53
1.75
4.15
5.78
6.89
7.72
8.45
9.12
9.74
10.30
10.85
11.46
12.20
13.06
13.92
14.64
15.01
14.91
14.32
13.32
12.04
10.61
9.15
7.71
6.29
4.84
3.26
1.40
-0.79
-3.24
-5.74
-7.95
-9.58
-10.47
-10.69
-10.52
-10.33
-10.43
-10.96
-11.84
-12.77
-13.38
-13.34
-12.46
-10.78
-8.50
-5.94
-3.36
-0.97
1.14
2.89
4.22
5.02
5.21
4.74
3.73
2.40
1.07
0.04
-0.48
-0.43
0.10
0.90
1.77
2.58
3.28
3.88
4.36
4.65
4.69
4.40
3.76
2.86
1.81
0.73
-0.28
-1.21
-2.06
-2.83
-3.56
-4.26
-4.96
-5.71
-6.51
-7.32
-8.02
-8.38
-8.11
-6.96
-4.82
-1.81
1.66
5.03
7.70
9.24
9.52
8.74
7.27
5.55
3.93
2.61
1.70
1.23
1.20
1.49
1.93
2.23
2.06
1.23
-0.26
-2.13
-3.93
-5.21
-5.66
-5.26
-4.21
-2.88
-1.62
-0.75
-0.40
-0.58
-1.26
-2.30
-3.59
-5.02
-6.51
-8.09
-9.87
-11.92
-14.16
-16.31
-17.84
-18.25
-17.19
-14.77
-11.46
-7.94
-4.79
-2.29
-0.37
1.22
2.67
3.98
4.96
5.40
5.32
4.94
4.64
4.73
5.26
5.96
6.41
6.26
5.43
4.20
2.99
2.25
2.12
2.47
2.89
2.96
2.43
1.31
-0.21
-1.84
-3.32
-4.49
-5.30
-5.81
-6.11
-6.36
-6.74
-7.44
-8.65
-10.42
-12.66
-15.05
-17.10
-18.28
-18.18
-16.68
-14.04
-10.76
-7.43
-4.48
-2.03
0.00
1.76
3.30
4.47
5.12
5.24
5.04
4.90
5.20
6.05
7.28
8.49
9.32
9.57
9.35
8.93
8.65
8.70
9.14
9.81
10.46
10.77
10.46
9.33
7.34
4.67
1.66
-1.29
-3.82
-5.81
-7.35
-8.68
-10.10
-11.82
-13.88
-16.11
-18.18
-19.66
-20.17
-19.52
-17.75
-15.14
-12.14
-9.20
-6.62
-4.51
-2.82
-1.40
-0.14
1.01
2.07
3.01
3.85
4.60
5.31
6.02
6.72
7.39
7.96
8.40
8.70
8.92
9.07
9.22
9.34
9.36
9.20
8.73
7.90
6.71
5.26
3.73
2.34
1.23
0.44
-0.18
-0.84
-1.81
-3.29
-5.32
-7.83
-10.58
-13.21
-15.26
-16.24
-15.80
-13.84
-10.61
-6.61
-2.52
1.08
3.80
5.47
6.16
6.02
5.27
4.17
3.04
2.15
1.76
2.01
2.87
4.16
5.59
6.81
7.52
7.56
6.94
5.84
4.56
3.42
2.69
2.48
2.69
3.13
3.55
3.76
3.73
3.51
3.19
2.88
2.63
2.42
2.21
1.92
1.47
0.80
-0.01
-0.73
-1.01
-0.49
1.00
3.36
6.22
9.02
11.32
12.93
13.86
14.33
14.54
14.63
14.64
14.58
14.48
14.39
14.37
14.42
14.44
14.19
13.38
11.79
9.35
6.22
2.76
-0.60
-3.46
-5.60
-6.99
-7.82
-8.33
-8.73
-9.10
-9.38
-9.47
-9.39
-9.34
-9.68
-10.73
-12.46
-14.47
-15.99
-16.29
-15.01
-12.41
-9.24
-6.48
-4.85
-4.59
-5.47
-6.94
-8.49
-9.81
-10.83
-11.58
-12.05
-12.10
-11.47
-9.95
-7.46
-4.19
-0.53
3.02
5.98
8.05
9.10
9.29
8.89
8.28
7.77
7.50
7.42
7.25
6.58
5.05
2.47
-1.15
-5.63
-10.61
-15.60
-19.98
-23.13
-24.45
-23.66
-20.89
-16.73
-12.15
-8.08
-5.22
-3.70
-3.22
-3.18
-3.00
-2.35
-1.23
0.15
1.53
2.74
3.74
4.61
5.42
6.15
6.73
7.06
7.13
7.03
6.93
6.93
6.95
6.80
6.24
5.14
3.53
1.63
-0.30
-2.14
-3.93
-5.85
-8.07
-10.60
-13.25
-15.60
-17.18
-17.58
-16.59
-14.23
-10.76
-6.58
-2.09
2.37
6.60
10.44
13.82
16.58
18.51
19.40
19.13
17.81
15.74
13.45
11.43
10.05
9.44
9.52
10.08
10.84
11.61
12.20
12.51
12.44
11.95
11.02
9.72
8.18
6.52
4.85
3.22
1.62
-0.00
-1.74
-3.68
-5.86
-8.19
-10.46
-12.32
-13.43
-13.50
-12.41
-10.27
-7.36
-4.06
-0.75
2.30
4.96
7.19
9.00
10.44
11.50
12.19
12.47
12.38
11.95
11.26
10.45
9.59
8.74
7.87
6.90
5.80
4.57
3.28
2.02
0.83
-0.30
-1.42
-2.56
-3.66
-4.64
-5.44
-6.04
-6.56
-7.19
-8.09
-9.31
-10.75
-12.11
-12.99
-13.02
-12.01
-9.96
-7.16
-3.99
-0.85
1.99
4.39
6.35
7.93
9.22
10.25
11.08
11.76
12.34
12.91
13.49
14.08
14.59
14.85
14.75
14.24
13.46
12.65
12.05
11.76
11.69
11.57
11.15
10.35
9.28
8.14
7.07
6.03
4.85
3.27
1.16
-1.46
-4.41
-7.45
-10.30
-12.73
-14.47
-15.27
-14.94
-13.48
-11.15
-8.40
-5.78
-3.65
-2.12
-1.00
0.08
1.46
3.28
5.38
7.40
8.87
9.46
9.07
7.85
6.21
4.58
3.31
2.59
2.40
2.59
3.03
3.59
4.17
4.73
5.19
5.48
5.62
5.64
5.66
5.80
6.14
6.72
7.50
8.45
9.47
10.46
11.25
11.68
11.66
11.19
10.37
9.35
8.22
7.04
5.90
4.99
4.64
5.23
7.03
10.08
14.07
18.46
22.56
25.84
27.98
28.94
28.86
27.93
26.29
23.93
20.82
16.95
12.43
7.48
2.34
-2.76
-7.73
-12.49
-16.88
-20.67
-23.52
-25.19
-25.63
-25.07
-23.97
-22.83
-22.13
-22.09
-22.76
-23.99
-25.51
-26.98
-28.07
-28.48
-28.05
-26.82
-25.00
-22.92
-20.93
-19.33
-18.22
-17.53
-17.05
-16.39
-15.23
-13.33
-10.68
-7.51
-4.24
-1.25
1.24
3.25
4.97
6.61
8.23
9.67
10.67
11.04
10.83
10.32
9.89
9.80
10.06
10.45
10.64
10.39
9.62
8.37
6.72
4.70
2.31
-0.41
-3.28
-6.03
-8.42
-10.29
-11.68
-12.73
-13.56
-14.22
-14.68
-14.88
-14.83
-14.65
-14.54
-14.70
-15.30
-16.33
-17.58
-18.69
-19.21
-18.77
-17.24
-14.80
-11.82
-8.76
-5.95
-3.49
-1.32
0.70
2.62
4.36
5.81
6.84
7.45
7.77
7.97
8.21
8.56
8.99
9.43
9.79
10.00
10.08
10.06
9.99
9.91
9.76
9.47
8.96
8.18
7.10
5.76
4.22
2.58
0.99
-0.43
-1.55
-2.35
-2.89
-3.36
-3.98
-4.94
-6.34
-8.17
-10.27
-12.41
-14.31
-15.65
-16.16
-15.64
-14.02
-11.49
-8.40
-5.22
-2.34
0.03
1.87
3.38
4.74
6.06
7.37
8.59
9.69
10.67
11.56
12.40
13.11
13.53
13.51
12.93
11.88
10.58
9.36
8.55
8.31
8.58
9.14
9.65
9.87
9.69
9.11
8.20
6.98
5.42
3.57
1.50
-0.54
-2.26
-3.43
-3.95
-3.97
-3.77
-3.69
-4.01
-4.91
-6.39
-8.27
-10.31
-12.14
-13.46
-13.98
-13.58
-12.31
-10.35
-8.00
-5.57
-3.28
-1.22
0.61
2.34
4.01
5.64
7.13
8.32
9.07
9.35
9.24
8.83
8.27
7.57
6.73
5.76
4.70
3.70
2.89
2.37
2.14
2.06
2.02
1.91
1.68
1.37
0.99
0.55
0.05
-0.52
-1.17
-1.88
-2.60
-3.32
-4.02
-4.76
-5.66
-6.86
-8.48
-10.48
-12.65
-14.58
-15.76
-15.83
-14.61
-12.25
-9.16
-5.87
-2.84
-0.36
1.46
2.70
3.50
3.95
4.15
4.17
4.08
4.01
4.02
4.17
4.48
4.91
5.38
5.81
6.12
6.26
6.20
5.93
5.51
5.01
4.48
3.96
3.43
2.80
2.01
0.98
-0.26
-1.66
-3.10
-4.39
-5.38
-5.94
-6.08
-5.93
-5.78
-5.98
-6.81
-8.30
-10.29
-12.37
-14.09
-15.10
-15.23
-14.47
-12.96
-10.85
-8.33
-5.64
-3.02
-0.70
1.13
2.48
3.44
4.18
4.87
5.61
6.43
7.34
8.31
9.32
10.34
11.34
12.30
13.15
13.85
14.32
14.47
14.26
13.71
12.99
12.27
11.70
11.28
10.89
10.38
9.68
8.87
8.07
7.43
6.97
6.65
6.35
6.02
5.65
5.19
4.63
3.85
2.77
1.41
-0.06
-1.32
-2.01
-1.91
-1.03
0.35
1.64
2.16
1.25
-1.48
-6.01
-11.86
-18.15
-23.89
-28.21
-30.64
-31.27
-30.57
-29.13
-27.43
-25.63
-23.71
-21.58
-19.36
-17.31
-15.76
-14.82
-14.34
-13.87
-13.01
-11.58
-9.77
-8.06
-6.95
-6.77
-7.55
-9.08
-11.03
-13.11
-15.18
-17.20
-19.26
-21.48
-23.96
-26.80
-30.05
-33.66
-37.46
-41.07
-43.96
-45.58
-45.55
-43.90
-40.99
-37.39
-33.53
-29.47
-24.90
-19.37
-12.61
-4.80
3.45
11.32
18.09
23.39
27.25
30.06
32.40
34.83
37.81
41.46
45.68
50.04
54.00
57.03
58.73
58.88
57.42
54.46
50.22
45.08
39.51
34.03
29.03
24.66
20.93
17.70
14.87
12.34
10.10
7.99
5.81
3.37
0.48
-2.94
-6.86
-11.22
-15.87
-20.58
-24.94
-28.39
-30.35
-30.37
-28.27
-24.20
-18.56
-11.82
-4.35
3.57
11.63
19.36
26.00
30.72
32.82
32.08
28.97
24.56
20.21
17.10
15.85
16.32
17.88
19.65
20.91
21.32
20.91
19.94
18.69
17.42
16.20
15.00
13.69
12.13
10.27
8.11
5.79
3.49
1.38
-0.51
-2.26
-4.15
-6.49
-9.49
-13.18
-17.33
-21.53
-25.30
-28.30
-30.49
-32.15
-33.73
-35.66
-38.12
-40.92
-43.51
-45.18
-45.30
-43.51
-39.92
-35.01
-29.56
-24.40
-20.12
-16.96
-14.70
-12.81
-10.62
-7.51
-3.14
2.39
8.56
14.38
18.61
20.17
18.57
14.20
8.39
2.94
-0.47
-0.88
1.72
6.46
12.06
17.37
21.61
24.48
25.98
26.20
25.27
23.29
20.44
16.96
13.21
9.52
6.30
3.87
2.49
2.18
2.71
3.52
3.83
2.82
-0.13
-5.12
-11.72
-18.99
-25.76
-30.99
-34.06
-34.93
-34.10
-32.33
-30.38
-28.79
-27.73
-27.02
-26.21
-24.70
-21.93
-17.54
-11.59
-4.57
2.68
9.28
14.55
18.28
20.71
22.27
23.40
24.38
25.27
26.04
26.68
27.17
27.45
27.41
26.95
26.05
24.86
23.65
22.67
21.98
21.42
20.61
19.18
16.92
13.84
10.19
6.32
2.57
-0.82
-3.76
-6.37
-8.92
-11.78
-15.32
-19.65
-24.59
-29.56
-33.80
-36.50
-37.20
-35.96
-33.38
-30.46
-28.23
-27.39
-28.02
-29.50
-30.78
-30.76
-28.73
-24.63
-19.07
-12.94
-7.09
-1.99
2.31
6.17
10.09
14.55
19.90
26.17
33.01
39.71
45.35
49.15
50.77
50.62
49.77
49.53
50.92
54.17
58.67
63.15
66.10
66.23
62.67
55.21
44.25
30.93
16.94
4.33
-5.04
-10.08
-10.80
-8.45
-5.02
-2.58
-2.57
-5.30
-10.12
-15.78
-20.97
-24.69
-26.44
-26.07
-23.70
-19.62
-14.29
-8.42
-2.86
1.65
4.71
6.52
7.65
8.83
10.48
12.55
14.52
15.77
15.85
14.70
12.58
9.95
7.19
4.46
1.79
-0.86
-3.52
-6.08
-8.38
-10.31
-11.87
-13.10
-14.04
-14.66
-14.84
-14.41
-13.32
-11.68
-9.79
-8.02
-6.67
-5.83
-5.34
-4.80
-3.78
-1.99
0.55
3.54
6.39
8.49
9.37
8.85
7.06
4.39
1.31
-1.70
-4.28
-6.25
-7.57
-8.30
-8.59
-8.61
-8.63
-8.91
-9.71
-11.13
-13.07
-15.18
-16.93
-17.75
-17.33
-15.66
-13.05
-9.96
-6.80
-3.81
-1.04
1.56
3.98
6.18
7.99
9.30
10.06
10.36
10.36
10.19
9.95
9.64
9.23
8.74
8.23
7.82
7.62
7.65
7.85
7.99
7.86
7.24
6.06
4.37
2.37
0.25
-1.82
-3.82
-5.81
-7.91
-10.22
-12.75
-15.39
-17.86
-19.82
-20.96
-21.04
-20.00
-17.95
-15.10
-11.71
-8.06
-4.39
-0.95
2.06
4.47
6.22
7.33
7.93
8.17
8.17
7.99
7.64
7.15
6.60
6.11
5.78
5.68
5.77
5.93
6.01
5.86
5.45
4.84
4.13
3.43
2.80
2.22
1.64
1.01
0.30
-0.57
-1.65
-3.04
-4.76
-6.69
-8.49
-9.73
-9.99
-9.01
-6.89
-3.98
-0.82
2.15
4.72
6.94
9.07
11.42
14.17
17.33
20.73
24.10
27.18
29.79
31.88
33.50
34.79
35.89
36.93
37.94
38.81
39.36
39.32
38.39
36.32
33.00
28.53
23.22
17.59
12.23
7.61
4.01
1.41
-0.41
-1.75
-2.85
-3.79
-4.50
-4.79
-4.52
-3.56
-1.94
0.22
2.72
5.34
7.92
10.34
12.57
14.64
16.57
18.38
20.04
21.42
22.26
22.23
20.94
18.10
13.65
7.85
1.25
-5.41
-11.43
-16.29
-19.92
-22.54
-24.62
-26.61
-28.80
-31.17
-33.59
-35.82
-37.76
-39.39
-40.71
-41.70
-42.17
-41.85
-40.51
-38.19
-35.23
-32.16
-29.48
-27.32
-25.36
-22.85
-18.98
-13.21
-5.51
3.60
13.33
22.90
31.69
39.39
45.98
51.79
57.48
63.88
71.67
80.93
90.68
99.02
103.51
102.06
93.52
78.13
57.30
33.09
7.61
-17.33
-40.36
-60.42
-76.73
-88.85
-96.76
-100.98
-102.41
-102.20
-101.38
-100.54
-99.80
-98.87
-97.32
-94.84
-91.31
-86.85
-81.56
-75.38
-67.99
-59.03
-48.28
-35.92
-22.49
-8.85
4.17
15.95
26.24
35.08
42.70
49.39
55.29
60.32
63.93
65.12
62.50
54.60
40.41
19.95
-5.36
-32.77
-58.73
-79.77
-93.48
-99.06
-97.43
-90.68
-81.31
-71.43
-62.38
-54.80
-48.91
-44.82
-42.53
-41.89
-42.25
-42.41
-40.94
-36.49
-28.39
-17.06
-3.95
8.75
18.98
25.49
28.31
28.64
28.21
28.43
29.84
31.96
33.81
34.50
33.71
31.73
29.16
26.53
24.11
22.02
20.32
19.13
18.46
18.09
17.51
16.06
13.34
9.37
4.84
0.80
-1.56
-1.35
1.73
7.24
14.01
20.38
24.54
25.06
21.37
14.06
4.74
-4.32
-10.98
-13.83
-12.56
-7.93
-1.33
5.67
11.86
16.45
19.10
19.74
18.36
15.10
10.36
5.03
0.51
-1.68
-0.48
4.04
10.52
16.63
20.14
19.91
16.58
12.33
9.93
11.39
16.91
24.68
31.52
33.88
29.04
15.82
-4.88
-29.86
-53.66
-69.32
-70.21
-52.77
-18.79
24.01
64.02
89.83
94.53
78.08
46.67
9.64
-24.48
-50.42
-66.62
-73.87
-73.58
-67.02
-55.54
-41.33
-27.56
-17.68
-14.09
-16.97
-24.15
-31.87
-36.30
-35.17
-28.68
-19.34
-10.84
-6.31
-6.87
-11.06
-15.25
-14.89
-6.05
13.21
42.18
77.38
113.14
142.76
160.06
161.00
144.91
114.86
76.88
38.28
5.65
-16.64
-27.09
-26.73
-18.16
-4.77
9.95
22.70
30.64
31.76
25.39
12.43
-4.71
-22.71
-38.33
-49.30
-54.83
-55.59
-53.23
-49.66
-46.45
-44.40
-43.54
-43.32
-43.03
-42.10
-40.44
-38.36
-36.46
-35.32
-35.22
-36.01
-37.18
-38.03
-37.90
-36.45
-33.62
-29.57
-24.61
-19.12
-13.47
-8.09
-3.38
0.45
3.52
6.37
9.75
14.16
19.48
24.91
29.40
32.29
33.74
34.67
36.00
38.16
40.63
42.41
42.68
41.38
39.39
38.06
38.45
40.77
44.17
46.96
47.20
43.44
35.47
24.86
14.60
8.14
7.95
14.36
25.21
36.82
45.39
48.40
45.17
36.58
24.24
9.87
-4.96
-18.80
-30.24
-38.00
-41.50
-41.07
-38.03
-34.25
-31.50
-30.89
-32.60
-35.77
-39.00
-40.87
-40.30
-36.98
-31.26
-23.94
-15.97
-8.26
-1.56
3.45
6.24
6.64
4.95
2.11
-0.48
-1.35
0.54
5.50
13.04
22.21
31.92
41.30
49.86
57.38
63.80
69.09
73.22
76.20
78.01
78.38
76.47
70.94
60.30
43.82
22.20
-2.20
-26.05
-46.26
-61.18
-70.94
-76.94
-80.71
-82.98
-83.52
-81.73
-77.59
-72.04
-66.70
-63.01
-61.48
-61.49
-61.81
-61.37
-59.79
-57.46
-55.09
-53.20
-51.81
-50.45
-48.33
-44.69
-38.94
-30.64
-19.51
-5.49
11.04
29.12
47.17
63.25
75.51
82.77
84.80
82.36
76.87
69.87
62.53
55.47
48.80
42.54
36.79
31.85
27.95
25.02
22.49
19.46
15.02
8.79
1.07
-7.20
-14.89
-21.23
-26.12
-30.19
-34.37
-39.41
-45.49
-52.07
-58.16
-62.74
-65.14
-65.43
-64.41
-63.19
-62.82
-63.72
-65.63
-67.80
-69.40
-69.81
-68.72
-65.96
-61.22
-53.99
-43.88
-30.82
-15.17
2.68
22.92
46.09
72.60
102.06
132.83
162.13
186.77
204.23
213.44
215.40
211.93
204.76
195.01
183.20
169.56
154.39
138.25
122.03
107.50
95.93
87.71
82.29
78.80
76.44
74.86
73.92
73.34
73.18
72.37
69.00
61.32
48.94
33.29
17.14
3.51
-11.25
-27.79
-44.43
-58.08
-66.27
-68.33
-65.09
-58.06
-48.87
-38.93
-28.30
-17.02
-5.67
5.08
14.71
23.01
30.00
35.82
40.67
45.70
51.58
58.08
64.85
71.60
78.13
84.35
90.14
95.42
100.61
106.06
111.03
114.76
116.49
115.49
111.06
102.36
88.16
66.62
41.52
14.48
-13.16
-40.09
-65.03
-86.82
-104.40
-116.94
-123.73
-124.25
-119.19
-109.43
-96.01
-80.13
-63.00
-45.67
-28.93
-13.21
1.49
14.73
26.34
36.22
44.24
50.27
54.18
55.89
55.52
53.29
49.03
42.67
34.10
23.24
10.15
-4.94
-21.72
-39.89
-59.26
-79.85
-101.41
-123.15
-143.78
-161.85
-176.25
-186.60
-193.17
-196.52
-197.09
-194.90
-189.78
-181.79
-171.51
-159.97
-148.46
-137.67
-127.41
-116.94
-105.76
-94.09
-82.91
-73.39
-66.30
-61.99
-60.00
-59.31
-58.96
-58.50
-58.12
-58.24
-59.06
-60.18
-61.34
-61.82
-60.65
-57.25
-52.03
-46.42
-42.33
-41.39
-44.55
-53.59
-68.52
-86.88
-104.50
-117.48
-123.43
-121.73
-113.30
-100.01
-87.88
-80.95
-79.23
-79.62
-79.35
-77.79
-75.78
-74.58
-74.73
-81.71
-97.62
-119.20
-139.93
-155.51
-165.70
-172.78
-179.34
-187.29
-205.55
-239.44
-287.31
-341.89
-396.03
-445.02
-486.29
-519.58
-497.53
-403.97
-262.96
-120.02
-5.16
77.55
137.62
184.65
222.60
251.04
261.30
250.41
223.71
194.40
171.74
157.83
150.09
144.60
138.98
127.00
106.63
81.50
58.94
44.27
36.95
34.86
35.71
38.16
38.11
33.62
26.01
18.58
13.23
9.69
6.89
3.91
0.67
-3.96
-9.98
-15.92
-19.54
-19.59
-16.14
-9.84
-1.57
7.95
17.66
26.99
36.03
45.22
54.57
63.56
71.56
78.13
83.40
88.18
93.67
101.11
111.18
123.87
138.51
154.18
170.20
186.19
202.40
219.54
238.80
261.47
288.19
318.13
348.39
374.25
390.39
392.79
380.25
354.93
321.49
285.32
250.86
220.65
195.48
175.05
158.78
146.01
135.95
127.48
119.28
110.22
99.68
87.81
75.26
62.92
51.50
41.26
32.09
23.64
15.57
7.82
0.53
-6.01
-11.62
-16.32
-20.43
-24.30
-28.21
-32.28
-36.41
-40.40
-44.01
-47.10
-49.59
-51.61
-53.38
-55.30
-57.79
-61.09
-64.95
-68.61
-70.81
-70.34
-66.52
-59.53
-50.45
-40.78
-31.96
-24.84
-19.58
-15.93
-13.47
-12.03
-11.57
-12.15
-13.56
-15.34
-16.89
-17.70
-17.61
-16.85
-15.95
-15.48
-15.80
-16.94
-18.62
-20.38
-21.78
-22.56
-22.74
-22.62
-22.66
-23.32
-24.96
-27.64
-31.19
-35.10
-38.67
-41.07
-41.57
-39.66
-35.28
-28.92
-21.45
-14.00
-7.50
-2.52
0.87
2.97
4.17
4.74
4.78
4.26
3.18
1.72
0.22
-0.92
-1.40
-1.13
-0.27
0.77
1.53
1.64
0.94
-0.47
-2.25
-4.06
-5.62
-6.87
-7.88
-8.86
-9.99
-11.47
-13.48
-16.15
-19.50
-23.28
-26.83
-29.22
-29.49
-27.08
-22.07
-15.30
-7.95
-1.17
4.30
8.35
11.28
13.49
15.21
16.37
16.74
16.12
14.51
12.27
9.90
7.90
6.59
6.00
5.88
5.86
5.56
4.77
3.40
1.48
-0.89
-3.56
-6.36
-9.04
-11.35
-13.16
-14.50
-15.68
-17.22
-19.68
-23.53
-28.87
-35.34
-42.03
-47.64
-50.73
-50.18
-45.65
-37.72
-27.79
-17.61
-8.69
-1.83
2.93
6.06
8.16
9.56
10.28
10.16
9.13
7.39
5.34
3.47
2.07
1.19
0.56
-0.10
-0.99
-2.14
-3.42
-4.67
-5.90
-7.22
-8.82
-10.79
-13.01
-15.19
-16.94
-18.06
-18.59
-18.87
-19.43
-20.77
-23.24
-26.81
-31.05
-35.11
-37.85
-38.15
-35.31
-29.29
-20.92
-11.56
-2.73
4.43
9.52
12.83
14.96
16.47
17.51
17.93
17.48
16.10
14.11
12.05
10.49
9.73
9.66
9.90
9.98
9.54
8.50
6.95
5.10
3.15
1.16
-0.86
-2.96
-5.17
-7.50
-9.96
-12.61
-15.56
-18.91
-22.67
-26.55
-29.94
-32.02
-32.02
-29.57
-24.86
-18.67
-12.01
-5.85
-0.76
3.10
5.88
7.79
8.92
9.28
8.87
7.82
6.45
5.17
4.29
3.99
4.23
4.80
5.49
6.07
6.40
6.37
5.94
5.12
4.02
2.80
1.59
0.49
-0.55
-1.70
-3.19
-5.28
-8.12
-11.78
-16.17
-20.94
-25.44
-28.84
-30.32
-29.30
-25.74
-20.15
-13.45
-6.67
-0.62
4.27
8.02
10.90
13.28
15.44
17.51
19.43
21.04
22.21
22.88
23.08
22.86
22.31
21.53
20.59
19.59
18.58
17.55
16.39
14.93
13.01
10.61
7.89
5.14
2.69
0.71
-0.83
-2.22
-3.87
-6.20
-9.49
-13.71
-18.49
-23.10
-26.65
-28.30
-27.59
-24.56
-19.75
-14.02
-8.22
-2.94
1.55
5.24
8.24
10.62
12.35
13.42
13.87
13.85
13.57
13.21
12.88
12.57
12.21
11.78
11.33
10.91
10.58
10.29
9.89
9.16
7.96
6.27
4.19
1.86
-0.56
-2.94
-5.22
-7.37
-9.41
-11.49
-13.82
-16.66
-20.13
-24.07
-27.96
-30.99
-32.35
-31.42
-28.13
-22.97
-16.75
-10.42
-4.70
0.04
3.82
6.85
9.37
11.51
13.21
14.37
14.92
14.92
14.59
14.22
14.07
14.22
14.56
14.79
14.64
13.89
12.56
10.81
8.88
6.97
5.17
3.46
1.75
-0.04
-2.05
-4.35
-7.05
-10.24
-13.91
-17.94
-21.99
-25.57
-28.05
-28.86
-27.63
-24.34
-19.41
-13.55
-7.56
-2.04
2.69
6.67
10.05
12.93
15.27
16.93
17.79
17.85
17.28
16.33
15.29
14.34
13.55
12.90
12.30
11.66
10.87
9.85
8.49
6.74
4.62
2.27
-0.08
-2.17
-3.80
-4.96
-5.83
-6.74
-8.06
-10.08
-12.95
-16.66
-21.06
-25.78
-30.19
-33.45
-34.76
-33.56
-29.88
-24.34
-17.93
-11.61
-5.93
-0.88
3.85
8.53
13.15
17.27
20.36
22.06
22.37
21.74
20.80
20.11
19.98
20.32
20.81
21.09
20.88
20.10
18.88
17.46
16.00
14.57
13.10
11.43
9.42
7.03
4.35
1.61
-0.94
-3.09
-4.78
-6.16
-7.51
-9.23
-11.65
-14.93
-18.96
-23.43
-27.78
-31.25
-33.14
-32.88
-30.25
-25.51
-19.32
-12.53
-5.98
-0.18
4.69
8.73
12.08
14.84
16.99
18.48
19.36
19.77
19.93
20.00
20.03
19.96
19.65
19.02
18.08
16.94
15.80
14.81
14.06
13.49
12.93
12.12
10.78
8.77
6.17
3.25
0.40
-2.06
-4.06
-5.77
-7.52
-9.72
-12.62
-16.30
-20.57
-25.00
-28.98
-31.79
-32.77
-31.47
-27.89
-22.50
-16.16
-9.77
-4.05
0.71
4.57
7.76
10.47
12.71
14.36
15.31
15.60
15.40
15.00
14.62
14.36
14.17
13.92
13.54
12.98
12.31
11.58
10.78
9.86
8.72
7.27
5.48
3.42
1.20
-1.01
-3.06
-4.82
-6.30
-7.65
-9.17
-11.30
-14.36
-18.43
-23.09
-27.54
-30.70
-31.62
-29.86
-25.63
-19.72
-13.17
-6.90
-1.50
2.85
6.24
8.83
10.72
11.99
12.72
13.00
12.96
12.75
12.46
12.18
11.95
11.82
11.77
11.78
11.75
11.52
11.00
10.10
8.82
7.20
5.31
3.25
1.11
-1.04
-3.15
-5.25
-7.43
-9.93
-12.94
-16.55
-20.63
-24.68
-27.97
-29.73
-29.41
-26.90
-22.60
-17.22
-11.54
-6.18
-1.42
2.70
6.25
9.28
11.72
13.44
14.37
14.54
14.12
13.42
12.73
12.22
11.92
11.73
11.51
11.19
10.79
10.40
10.10
9.85
9.48
8.71
7.35
5.36
2.97
0.53
-1.58
-3.16
-4.31
-5.33
-6.68
-8.80
-12.03
-16.46
-21.94
-27.90
-33.45
-37.53
-39.20
-37.99
-34.05
-28.14
-21.32
-14.56
-8.49
-3.28
1.19
5.12
8.55
11.42
13.59
15.01
15.78
16.17
16.46
16.86
17.40
17.93
18.25
18.14
17.58
16.69
15.66
14.69
13.84
13.00
11.98
10.58
8.66
6.29
3.64
0.95
-1.55
-3.81
-5.92
-8.17
-10.89
-14.37
-18.70
-23.73
-28.99
-33.75
-37.22
-38.72
-37.90
-34.83
-29.99
-24.09
-17.86
-11.83
-6.28
-1.27
3.23
7.23
10.68
13.47
15.56
17.01
17.97
18.65
19.21
19.75
20.25
20.61
20.75
20.63
20.27
19.75
19.08
18.24
17.10
15.51
13.36
10.68
7.66
4.58
1.71
-0.78
-2.90
-4.81
-6.81
-9.27
-12.47
-16.53
-21.22
-25.95
-29.86
-32.01
-31.75
-28.93
-23.97
-17.73
-11.23
-5.30
-0.37
3.55
6.72
9.46
11.93
14.05
15.60
16.41
16.51
16.14
15.69
15.49
15.66
16.05
16.35
16.30
15.71
14.61
13.07
11.16
8.94
6.47
3.87
1.30
-1.12
-3.39
-5.72
-8.46
-11.92
-16.22
-21.17
-26.16
-30.33
-32.77
-32.83
-30.33
-25.65
-19.59
-13.12
-7.05
-1.81
2.51
6.07
9.03
11.48
13.42
14.80
15.69
16.17
16.39
16.43
16.40
16.38
16.40
16.50
16.61
16.56
16.15
15.17
13.53
11.33
8.77
6.10
3.48
0.96
-1.53
-4.17
-7.17
-10.73
-15.06
-20.17
-25.87
-31.56
-36.40
-39.44
-39.95
-37.70
-33.09
-26.98
-20.45
-14.34
-9.11
-4.80
-1.16
2.04
4.97
7.61
9.87
11.65
12.90
13.63
13.88
13.81
13.55
13.26
13.03
12.80
12.45
11.76
10.63
9.03
7.06
4.88
2.63
0.39
-1.85
-4.10
-6.45
-9.00
-11.95
-15.42
-19.46
-23.87
-28.07
-31.28
-32.70
-31.82
-28.61
-23.59
-17.63
-11.62
-6.18
-1.51
2.53
6.20
9.65
12.76
15.22
16.77
17.30
16.99
16.22
15.36
14.63
14.03
13.45
12.70
11.70
10.41
8.84
7.07
5.11
3.00
0.77
-1.52
-3.82
-6.15
-8.61
-11.39
-14.76
-18.95
-24.04
-29.78
-35.57
-40.54
-43.73
-44.44
-42.48
-38.17
-32.32
-25.84
-19.49
-13.72
-8.58
-3.93
0.33
4.17
7.43
9.88
11.39
12.04
12.08
11.89
11.79
11.94
12.33
12.76
13.03
12.98
12.58
11.87
10.96
10.00
9.12
8.42
7.94
7.55
7.05
6.07
4.22
1.33
-2.45
-6.49
-9.85
-11.50
-10.66
-7.08
-1.05
6.67
15.13
23.42
30.82
36.85
41.31
44.16
45.61
46.04
45.92
45.63
45.31
44.82
43.81
41.87
38.79
34.55
29.39
23.60
17.42
11.04
4.58
-1.82
-7.96
-13.63
-18.66
-23.01
-26.79
-30.30
-33.86
-37.82
-42.38
-47.52
-52.86
-57.76
-61.39
-62.99
-62.07
-58.55
-52.73
-45.22
-36.64
-27.54
-18.31
-9.22
-0.48
7.69
15.01
21.26
26.29
30.11
32.93
35.09
37.02
39.10
41.57
44.45
47.50
50.30
52.37
53.29
52.78
50.77
47.33
42.70
37.17
31.13
24.96
19.03
13.61
8.76
4.27
-0.29
-5.40
-11.38
-18.19
-25.28
-31.75
-36.50
-38.65
-37.76
-34.03
-28.22
-21.33
-14.32
-7.79
-1.91
3.39
8.22
12.54
16.08
18.47
19.49
19.22
18.08
16.66
15.49
14.80
14.54
14.37
13.96
13.12
11.87
10.40
8.93
7.58
6.30
4.92
3.25
1.14
-1.48
-4.66
-8.42
-12.74
-17.49
-22.28
-26.51
-29.45
-30.47
-29.23
-25.88
-20.96
-15.22
-9.34
-3.81
1.20
5.64
9.43
12.42
14.33
14.98
14.48
13.25
11.93
11.12
11.14
11.90
12.97
13.78
13.94
13.31
12.05
10.44
8.73
7.01
5.18
3.00
0.22
-3.36
-7.79
-12.95
-18.46
-23.72
-28.01
-30.64
-31.10
-29.31
-25.55
-20.38
-14.45
-8.27
-2.21
3.51
8.67
12.99
16.22
18.15
18.82
18.48
17.59
16.60
15.85
15.47
15.32
15.11
14.53
13.34
11.49
9.13
6.56
4.05
1.77
-0.35
-2.60
-5.33
-8.84
-13.18
-18.06
-22.90
-26.93
-29.40
-29.79
-27.99
-24.22
-18.98
-12.91
-6.53
-0.22
5.85
11.56
16.75
21.13
24.36
26.19
26.63
25.99
24.79
23.57
22.66
22.06
21.52
20.72
19.43
17.62
15.45
13.17
10.93
8.79
6.64
4.28
1.51
-1.80
-5.79
-10.41
-15.51
-20.74
-25.58
-29.39
-31.50
-31.41
-28.98
-24.50
-18.58
-12.05
-5.61
0.24
5.29
9.54
13.00
15.73
17.68
18.86
19.35
19.32
19.00
18.59
18.22
17.95
17.76
17.58
17.29
16.76
15.86
14.51
12.72
10.55
8.13
5.58
3.01
0.49
-2.02
-4.60
-7.44
-10.78
-14.82
-19.59
-24.79
-29.77
-33.61
-35.38
-34.48
-30.85
-24.97
-17.70
-10.01
-2.66
3.94
9.62
14.42
18.36
21.49
23.79
25.35
26.31
26.85
27.21
27.48
27.74
27.94
28.00
27.84
27.42
26.70
25.67
24.30
22.60
20.56
18.21
15.61
12.88
10.15
7.48
4.89
2.30
-0.44
-3.55
-7.26
-11.75
-17.03
-22.82
-28.47
-33.09
-35.73
-35.80
-33.21
-28.45
-22.42
-16.02
-9.99
-4.70
-0.29
3.24
5.92
7.76
8.84
9.29
9.35
9.23
9.15
9.20
9.40
9.70
10.01
10.27
10.44
10.50
10.46
10.31
9.96
9.33
8.30
6.83
4.95
2.74
0.38
-1.99
-4.27
-6.48
-8.74
-11.32
-14.50
-18.43
-22.98
-27.63
-31.58
-33.92
-34.01
-31.59
-26.93
-20.66
-13.55
-6.38
0.26
5.98
10.50
13.71
15.68
16.56
16.65
16.29
15.78
15.31
14.94
14.68
14.46
14.20
13.81
13.25
12.49
11.53
10.41
9.17
7.81
6.31
4.64
2.80
0.85
-1.12
-3.03
-4.83
-6.61
-8.54
-10.87
-13.83
-17.56
-21.97
-26.65
-30.88
-33.78
-34.61
-32.93
-28.88
-23.09
-16.44
-9.78
-3.68
1.60
6.04
9.61
12.26
13.88
14.47
14.22
13.51
12.82
12.42
12.43
12.68
12.88
12.81
12.38
11.66
10.75
9.74
8.57
7.17
5.49
3.59
1.67
-0.07
-1.54
-2.81
-4.05
-5.52
-7.38
-9.76
-12.69
-16.18
-20.12
-24.23
-27.99
-30.66
-31.53
-30.06
-26.20
-20.42
-13.60
-6.75
-0.71
4.04
7.44
9.64
10.93
11.49
11.45
10.90
9.97
8.95
8.13
7.74
7.82
8.24
8.78
9.20
9.41
9.38
9.13
8.65
7.84
6.55
4.70
2.32
-0.45
-3.37
-6.23
-8.90
-11.44
-14.07
-17.14
-20.91
-25.38
-30.16
-34.50
-37.48
-38.29
-36.58
-32.51
-26.73
-20.12
-13.50
-7.43
-2.17
2.24
5.77
8.38
10.01
10.69
10.66
10.34
10.22
10.64
11.63
12.93
14.08
14.67
14.50
13.66
12.37
10.85
9.20
7.40
5.43
3.39
1.49
0.01
-0.88
-1.26
-1.45
-1.97
-3.36
-6.01
-10.05
-15.35
-21.43
-27.53
-32.71
-36.02
-36.77
-34.73
-30.25
-24.08
-17.18
-10.38
-4.20
1.04
5.24
8.29
10.17
10.95
10.90
10.46
10.04
9.90
10.03
10.26
10.37
10.21
9.85
9.37
8.90
8.44
7.89
7.10
5.98
4.51
2.80
1.01
-0.70
-2.23
-3.59
-4.91
-6.35
-8.13
-10.43
-13.36
-16.88
-20.69
-24.28
-26.97
-28.07
-27.09
-23.92
-18.86
-12.57
-5.83
0.67
6.43
11.21
14.94
17.62
19.29
20.03
19.98
19.41
18.64
18.01
17.71
17.72
17.92
18.01
17.76
17.09
16.05
14.81
13.53
12.24
10.79
8.98
6.63
3.80
0.76
-2.11
-4.44
-6.11
-7.28
-8.35
-9.79
-11.96
-15.01
-18.80
-22.95
-26.87
-29.83
-31.18
-30.44
-27.55
-22.86
-17.05
-10.95
-5.27
-0.42
3.46
6.41
8.47
9.66
10.04
9.72
9.01
8.31
8.00
8.24
8.89
9.67
10.23
10.37
10.14
9.68
9.20
8.73
8.20
7.44
6.32
4.86
3.17
1.45
-0.15
-1.59
-2.92
-4.33
-6.04
-8.24
-11.12
-14.67
-18.67
-22.58
-25.68
-27.18
-26.54
-23.60
-18.73
-12.72
-6.47
-0.79
3.85
7.31
9.68
11.07
11.61
11.35
10.46
9.21
7.98
7.15
6.93
7.31
8.07
8.89
9.48
9.67
9.43
8.79
7.81
6.52
4.96
3.18
1.27
-0.61
-2.36
-3.89
-5.23
-6.52
-7.99
-9.94
-12.56
-15.91
-19.69
-23.33
-26.01
-26.95
-25.60
-21.95
-16.49
-10.12
-3.89
1.38
5.29
7.86
9.38
10.20
10.54
10.46
9.91
8.95
7.78
6.76
6.30
6.61
7.63
8.95
9.99
10.23
9.41
7.64
5.30
2.86
0.64
-1.32
-3.15
-5.04
-7.08
-9.32
-11.78
-14.61
-18.00
-22.02
-26.37
-30.28
-32.70
-32.67
-29.76
-24.25
-17.10
-9.52
-2.65
2.86
6.89
9.70
11.65
13.01
13.88
14.25
14.15
13.75
13.41
13.49
14.18
15.42
16.86
18.06
18.68
18.65
18.16
17.60
17.28
17.38
17.85
18.55
19.30
19.98
20.52
20.83
20.80
20.39
19.70
19.17
19.52
21.53
25.84
32.71
41.97
53.08
65.29
77.72
89.35
98.98
105.27
107.01
103.49
94.92
82.55
68.48
55.00
43.99
36.41
32.24
30.65
30.43
30.37
29.40
26.76
21.99
15.00
6.16
-3.74
-13.61
-22.44
-29.76
-35.81
-41.53
-47.97
-55.69
-64.23
-72.25
-78.08
-80.64
-80.10
-77.95
-76.38
-77.27
-81.37
-87.94
-95.27
-101.52
-105.55
-107.25
-107.33
-106.64
-105.56
-103.80
-100.58
-95.21
-87.48
-77.87
-67.21
-56.22
-45.26
-34.35
-23.58
-13.44
-4.84
1.21
4.11
3.92
1.21
-3.35
-9.48
-17.30
-26.99
-38.16
-49.64
-59.62
-66.37
-68.76
-66.64
-60.57
-51.54
-40.61
-28.95
-18.04
-9.72
-5.87
-7.79
-15.66
-28.26
-43.40
-58.63
-72.05
-82.60
-90.07
-94.68
-96.71
-96.29
-93.52
-88.71
-82.49
-75.85
-69.76
-64.94
-61.61
-59.68
-58.98
-59.61
-61.92
-66.15
-71.85
-77.56
-80.96
-79.68
-72.32
-59.18
-42.22
-24.24
-7.67
6.15
17.13
25.90
33.08
38.99
43.75
47.74
51.85
57.14
64.22
72.75
81.33
88.09
91.45
90.71
86.20
79.05
70.70
62.59
55.97
51.78
50.42
51.57
54.23
57.05
58.97
59.85
60.59
62.71
67.62
75.83
86.77
99.06
111.28
122.57
132.95
142.94
153.18
163.88
174.63
184.59
192.77
198.38
201.09
201.10
199.18
196.36
193.61
191.35
189.24
186.24
181.18
173.39
163.11
151.40
139.63
128.77
118.97
109.58
99.57
88.04
74.57
59.24
42.49
24.87
6.81
-11.48
-30.05
-49.22
-69.52
-91.52
-115.71
-142.29
-170.99
-200.89
-230.21
-256.50
-277.25
-290.71
-296.65
-296.62
-293.35
-289.63
-287.19
-286.16
-285.29
-282.82
-277.39
-268.60
-257.07
-244.14
-231.42
-220.41
-212.20
-207.21
-205.12
-204.89
-204.96
-203.69
-199.67
-192.06
-180.68
-166.14
-149.67
-132.99
-117.91
-105.97
-98.03
-94.05
-93.15
-93.84
-94.39
-93.20
-89.03
-81.36
-70.35
-56.81
-41.83
-26.42
-11.21
3.64
18.35
33.27
48.76
65.11
82.44
100.51
118.37
134.35
146.30
152.29
151.51
144.74
134.25
122.96
113.30
106.34
101.70
98.16
94.74
91.35
88.87
88.50
90.82
95.23
100.04
103.18
103.11
99.53
93.45
86.64
80.88
77.33
76.49
78.43
83.25
91.09
101.88
114.87
128.30
139.61
146.06
145.48
137.01
121.32
100.40
77.04
54.08
33.84
17.61
5.54
-3.20
-9.98
-16.11
-22.41
-28.99
-35.40
-40.92
-44.93
-47.03
-47.10
-45.15
-41.25
-35.46
-27.95
-18.99
-9.05
1.30
11.46
20.99
29.67
37.60
45.12
52.71
60.83
69.79
79.56
89.75
99.65
108.43
115.33
119.88
122.05
122.17
120.83
118.64
116.04
113.19
109.91
105.81
100.50
93.73
85.55
76.34
66.65
56.99
47.68
38.79
30.29
22.20
14.69
8.11
2.78
-1.03
-3.10
-3.26
-1.33
2.64
8.26
14.60
20.33
24.15
25.37
24.23
21.92
20.01
19.81
21.80
25.52
29.81
33.37
35.20
34.79
32.13
27.57
21.58
14.76
7.65
0.80
-5.40
-10.85
-15.78
-20.79
-26.47
-33.11
-40.35
-47.14
-52.07
-53.92
-52.18
-47.33
-40.60
-33.43
-26.93
-21.51
-16.95
-12.73
-8.45
-4.04
0.27
4.11
7.19
9.45
11.01
12.16
13.31
14.90
17.23
20.38
23.90
26.88
28.15
26.84
22.93
17.65
13.21
12.08
15.92
24.63
36.21
47.27
54.24
54.56
47.50
34.31
17.73
1.16
-12.31
-20.52
-22.65
-19.23
-11.71
-1.99
8.13
17.37
25.05
30.86
34.66
36.21
35.28
31.98
27.05
21.89
18.29
17.70
20.62
26.26
32.78
37.95
39.93
37.85
31.84
22.77
11.84
0.31
-10.64
-19.89
-26.62
-30.63
-32.69
-34.44
-37.80
-44.20
-53.81
-65.33
-76.51
-84.94
-88.94
-87.90
-82.21
-72.82
-60.76
-46.99
-32.40
-18.00
-4.90
5.87
13.65
18.41
20.75
21.67
22.19
22.94
24.01
25.03
25.43
24.82
23.19
20.91
18.70
17.34
17.56
19.80
24.17
30.33
37.45
44.40
49.95
53.25
54.09
52.96
50.74
48.21
45.62
42.62
38.64
33.49
27.73
22.80
20.48
22.19
28.40
38.51
51.19
64.84
78.11
90.04
100.08
108.10
114.46
120.05
126.10
133.68
143.03
153.10
161.72
166.35
165.15
157.91
146.18
132.62
119.77
108.87
99.54
90.20
78.98
64.64
46.92
26.23
3.29
-21.20
-46.34
-70.74
-92.34
-108.84
-118.59
-121.47
-119.18
-114.68
-111.03
-110.34
-113.22
-119.11
-126.90
-135.65
-144.90
-154.51
-164.43
-174.29
-183.39
-190.75
-195.38
-196.48
-193.67
-187.04
-177.03
-164.45
-150.27
-135.68
-122.00
-110.62
-102.73
-98.92
-98.92
-101.54
-105.07
-107.82
-108.75
-107.59
-104.79
-100.94
-96.44
-91.31
-85.31
-78.25
-70.23
-61.64
-52.99
-44.69
-36.92
-29.61
-22.67
-16.04
-9.76
-3.81
2.00
8.03
14.61
21.77
29.10
35.80
41.10
44.63
46.76
48.44
50.85
54.86
60.61
67.35
73.55
77.42
77.29
72.18
62.09
48.11
32.10
16.33
2.90
-6.69
-11.74
-12.35
-9.18
-3.20
4.47
12.71
20.38
26.45
30.15
31.14
29.63
26.37
22.41
18.88
16.63
16.11
17.30
19.82
23.06
26.33
28.90
30.16
29.66
27.36
23.60
19.13
14.93
11.85
10.39
10.52
11.67
12.94
13.40
12.43
9.97
6.46
2.81
-0.04
-1.26
-0.43
2.41
6.84
12.29
18.25
24.40
30.73
37.35
44.31
51.42
58.27
64.30
69.02
72.20
74.05
75.27
76.84
79.72
84.19
89.33
93.00
92.25
84.49
68.57
45.55
18.33
-9.29
-33.95
-53.69
-68.07
-77.72
-83.51
-86.21
-86.43
-84.95
-82.88
-81.49
-81.72
-83.62
-86.30
-88.12
-87.45
-83.27
-75.60
-65.49
-54.54
-44.40
-36.22
-30.45
-26.86
-24.65
-22.62
-19.38
-13.50
-3.98
9.27
25.09
41.09
54.30
62.09
63.08
57.52
46.98
33.60
19.22
4.93
-8.83
-21.93
-34.20
-45.22
-54.64
-62.30
-68.26
-72.66
-75.43
-76.19
-74.43
-69.82
-62.51
-53.26
-43.27
-33.84
-25.97
-20.20
-16.54
-14.58
-13.70
-13.29
-12.89
-12.30
-11.50
-10.56
-9.44
-7.79
-5.06
-0.66
5.54
12.99
20.41
26.24
29.19
28.86
25.87
21.65
17.78
15.40
14.86
15.77
17.33
18.70
19.30
18.79
17.11
14.38
10.90
7.26
4.20
2.46
2.54
4.50
7.90
11.94
15.72
18.56
20.21
20.90
21.17
21.64
22.65
24.11
25.53
26.19
25.56
23.45
20.18
16.36
12.66
9.55
7.22
5.61
4.45
3.51
2.52
1.33
-0.13
-1.90
-3.95
-6.25
-8.76
-11.42
-14.19
-17.04
-19.96
-22.95
-25.95
-28.78
-31.04
-32.12
-31.41
-28.56
-23.67
-17.31
-10.38
-3.74
2.03
6.78
10.67
13.96
16.82
19.26
21.15
22.38
22.95
22.98
22.65
22.13
21.54
20.98
20.49
20.11
19.80
19.41
18.76
17.70
16.19
14.38
12.53
10.87
9.47
8.17
6.66
4.61
1.79
-1.87
-6.26
-11.18
-16.24
-20.96
-24.68
-26.72
-26.56
-24.06
-19.55
-13.77
-7.67
-2.10
2.43
5.78
8.13
9.72
10.78
11.38
11.51
11.17
10.51
9.78
9.28
9.25
9.72
10.50
11.23
11.55
11.24
10.24
8.70
6.83
4.80
2.74
0.71
-1.27
-3.17
-4.99
-6.82
-8.85
-11.32
-14.38
-17.94
-21.60
-24.67
-26.42
-26.28
-24.05
-19.99
-14.73
-9.08
-3.78
0.68
4.16
6.68
8.43
9.54
10.14
10.29
10.16
9.98
10.02
10.49
11.45
12.72
13.95
14.77
14.87
14.17
12.80
11.02
9.12
7.28
5.50
3.67
1.61
-0.84
-3.67
-6.85
-10.26
-13.83
-17.49
-21.11
-24.36
-26.76
-27.76
-26.90
-24.10
-19.71
-14.40
-9.00
-4.13
-0.13
3.00
5.47
7.56
9.40
11.01
12.35
13.39
14.14
14.67
15.06
15.34
15.52
15.55
15.44
15.21
14.89
14.50
13.98
13.23
12.12
10.57
8.55
6.15
3.53
0.88
-1.66
-3.99
-6.21
-8.46
-10.99
-13.92
-17.18
-20.41
-23.00
-24.30
-23.85
-21.53
-17.67
-12.85
-7.69
-2.68
1.95
6.16
9.96
13.30
16.04
18.05
19.26
19.75
19.75
19.54
19.32
19.19
19.15
19.08
18.90
18.59
18.18
17.72
17.20
16.50
15.45
13.86
11.69
9.08
6.31
3.69
1.41
-0.48
-2.12
-3.74
-5.57
-7.80
-10.57
-13.91
-17.62
-21.23
-24.00
-25.16
-24.18
-21.03
-16.24
-10.73
-5.42
-0.93
2.58
5.33
7.62
9.63
11.33
12.56
13.21
13.29
12.98
12.55
12.22
12.09
12.11
12.12
11.90
11.34
10.35
9.01
7.46
5.83
4.22
2.63
1.02
-0.71
-2.63
-4.78
-7.19
-9.84
-12.67
-15.58
-18.35
-20.68
-22.21
-22.56
-21.48
-18.93
-15.14
-10.55
-5.77
-1.35
2.31
5.04
6.90
8.05
8.75
9.17
9.48
9.79
10.19
10.71
11.33
11.96
12.44
12.58
12.27
11.46
10.23
8.69
7.00
5.23
3.42
1.57
-0.30
-2.16
-3.96
-5.68
-7.37
-9.14
-11.13
-13.43
-16.10
-19.04
-21.96
-24.38
-25.71
-25.38
-23.10
-18.98
-13.56
-7.68
-2.21
2.27
5.58
7.96
9.78
11.40
12.94
14.32
15.41
16.11
16.46
16.57
16.57
16.49
16.28
15.83
15.06
14.04
12.85
11.61
10.39
9.19
7.95
6.63
5.19
3.67
2.10
0.53
-1.06
-2.77
-4.74
-7.16
-10.14
-13.59
-17.16
-20.26
-22.24
-22.55
-21.02
-17.86
-13.68
-9.19
-5.01
-1.44
1.47
3.91
6.03
7.89
9.40
10.42
10.85
10.70
10.13
9.35
8.59
7.95
7.43
6.97
6.45
5.86
5.20
4.55
3.98
3.47
2.92
2.15
1.00
-0.64
-2.71
-5.11
-7.75
-10.57
-13.58
-16.64
-19.42
-21.36
-21.81
-20.37
-17.12
-12.61
-7.73
-3.26
0.38
3.24
5.63
7.79
9.73
11.22
11.96
11.89
11.21
10.36
9.74
9.54
9.68
9.90
9.93
9.57
8.80
7.68
6.30
4.76
3.13
1.49
-0.09
-1.55
-2.89
-4.13
-5.38
-6.79
-8.55
-10.80
-13.56
-16.61
-19.54
-21.76
-22.70
-21.97
-19.54
-15.74
-11.13
-6.25
-1.53
2.85
6.81
10.33
13.28
15.49
16.80
17.20
16.86
16.08
15.19
14.39
13.77
13.28
12.86
12.48
12.12
11.75
11.24
10.38
8.97
6.95
4.45
1.78
-0.68
-2.69
-4.21
-5.39
-6.51
-7.80
-9.43
-11.42
-13.77
-16.39
-19.17
-21.84
-24.02
-25.25
-25.17
-23.62
-20.72
-16.87
-12.54
-8.14
-3.90
0.07
3.75
7.07
9.85
11.92
13.12
13.51
13.28
12.79
12.35
12.14
12.10
12.04
11.74
11.08
10.09
8.93
7.76
6.66
5.62
4.51
3.23
1.78
0.29
-1.03
-2.04
-2.69
-3.14
-3.72
-4.80
-6.63
-9.28
-12.61
-16.27
-19.85
-22.92
-25.12
-26.15
-25.83
-24.07
-20.93
-16.67
-11.65
-6.35
-1.19
3.53
7.69
11.28
14.31
16.76
18.56
19.70
20.25
20.43
20.53
20.80
21.31
21.97
22.56
22.84
22.64
21.89
20.61
18.85
16.65
14.12
11.36
8.54
5.84
3.46
1.54
0.15
-0.74
-1.32
-1.84
-2.61
-3.94
-6.04
-8.96
-12.58
-16.61
-20.54
-23.78
-25.71
-25.92
-24.31
-21.17
-17.02
-12.48
-8.06
-4.05
-0.60
2.19
4.17
5.20
5.23
4.41
3.13
1.89
1.17
1.26
2.20
3.80
5.77
7.79
9.57
10.88
11.57
11.53
10.77
9.32
7.33
5.00
2.53
0.12
-2.08
-3.94
-5.38
-6.40
-7.08
-7.61
-8.32
-9.54
-11.51
-14.25
-17.47
-20.62
-23.03
-24.12
-23.58
-21.43
-18.00
-13.79
-9.28
-4.87
-0.83
2.70
5.64
7.94
9.58
10.66
11.34
11.86
12.40
13.03
13.64
14.03
13.99
13.39
12.24
10.65
8.79
6.80
4.79
2.86
1.03
-0.69
-2.34
-3.99
-5.61
-7.14
-8.45
-9.41
-9.97
-10.26
-10.54
-11.20
-12.57
-14.85
-17.98
-21.55
-24.87
-27.14
-27.68
-26.15
-22.68
-17.77
-12.17
-6.62
-1.68
2.36
5.40
7.49
8.78
9.42
9.62
9.64
9.71
10.00
10.59
11.42
12.37
13.25
13.88
14.10
13.85
13.16
12.13
10.93
9.69
8.44
7.15
5.74
4.17
2.49
0.78
-0.82
-2.29
-3.64
-4.97
-6.35
-7.83
-9.45
-11.25
-13.36
-15.85
-18.70
-21.68
-24.35
-26.14
-26.62
-25.53
-23.00
-19.42
-15.32
-11.19
-7.40
-4.13
-1.39
0.82
2.58
3.95
5.06
6.05
7.06
8.16
9.27
10.26
10.91
11.10
10.82
10.18
9.38
8.53
7.66
6.67
5.44
3.88
2.08
0.27
-1.30
-2.44
-3.15
-3.54
-3.85
-4.27
-4.90
-5.85
-7.25
-9.25
-11.88
-14.96
-17.92
-20.06
-20.71
-19.58
-16.84
-13.06
-8.94
-5.06
-1.71
1.07
3.41
5.40
7.13
8.62
9.90
11.02
12.01
12.83
13.39
13.52
13.12
12.18
10.77
9.14
7.57
6.34
5.59
5.30
5.24
5.08
4.48
3.24
1.38
-0.90
-3.34
-5.67
-7.80
-9.77
-11.74
-13.94
-16.54
-19.56
-22.78
-25.73
-27.79
-28.33
-27.01
-23.89
-19.48
-14.51
-9.67
-5.38
-1.73
1.42
4.27
6.88
9.13
10.86
11.95
12.47
12.63
12.73
12.96
13.37
13.84
14.13
14.06
13.56
12.74
11.82
11.03
10.48
10.08
9.62
8.84
7.57
5.86
3.89
1.95
0.24
-1.21
-2.57
-4.05
-5.95
-8.49
-11.87
-16.13
-21.18
-26.68
-31.94
-36.11
-38.29
-37.93
-34.96
-29.83
-23.33
-16.29
-9.37
-3.00
2.62
7.37
11.19
14.14
16.38
18.20
19.86
21.52
23.16
24.63
25.81
26.67
27.34
28.07
29.08
30.45
32.02
33.37
33.91
32.96
29.93
24.63
17.35
8.95
0.57
-6.79
-12.59
-16.92
-20.45
-24.03
-28.17
-32.66
-36.64
-38.96
-38.63
-35.21
-28.74
-19.97
-10.09
-0.35
8.29
15.32
20.77
25.24
29.62
35.13
42.30
50.83
59.82
68.45
76.48
84.48
93.44
103.86
115.37
125.79
131.85
130.68
121.34
105.20
85.37
65.47
46.09
29.22
16.90
10.30
9.29
13.10
20.79
31.46
44.02
56.85
68.84
79.04
87.02
92.63
96.77
100.53
104.74
109.78
115.11
120.35
124.95
128.41
130.44
130.98
129.80
126.00
121.33
116.02
110.17
103.66
96.37
88.38
80.05
71.84
64.18
57.38
51.07
44.94
38.61
31.78
24.36
16.58
8.83
1.52
-5.09
-11.34
-17.74
-24.86
-33.14
-42.69
-53.16
-63.90
-74.21
-83.59
-92.21
-100.59
-109.41
-119.20
-130.02
-141.45
-152.78
-163.32
-172.75
-181.33
-189.72
-198.82
-209.66
-223.37
-240.96
-262.85
-288.01
-313.56
-334.88
-346.75
-345.04
-328.15
-297.50
-256.62
-209.67
-160.00
-109.79
-60.47
-13.66
28.46
63.52
89.84
107.21
116.90
121.02
121.53
119.66
115.80
109.91
102.12
93.04
83.80
75.67
69.58
65.84
63.97
62.95
61.64
59.26
55.66
51.32
46.95
43.08
39.81
36.68
33.01
28.18
21.93
14.48
6.43
-1.40
-8.28
-13.77
-17.86
-20.88
-23.33
-25.65
-27.95
-30.04
-31.53
-32.13
-31.85
-30.99
-30.02
-29.38
-29.28
-29.70
-30.53
-31.57
-32.60
-33.38
-33.60
-32.98
-31.32
-28.64
-25.19
-21.38
-17.65
-14.34
-11.63
-9.57
-8.11
-7.12
-6.48
-6.04
-5.68
-5.35
-5.02
-4.68
-4.38
-4.11
-3.99
-4.11
-4.62
-5.52
-6.68
-7.82
-8.65
-9.06
-9.21
-9.47
-10.26
-11.85
-14.21
-17.09
-20.17
-23.17
-25.93
-28.31
-30.19
-31.42
-31.90
-31.72
-31.11
-30.36
-29.69
-29.11
-28.48
-27.60
-26.44
-25.19
-24.19
-23.73
-23.87
-24.36
-24.66
-24.24
-22.81
-20.41
-17.41
-14.28
-11.36
-8.75
-6.32
-3.91
-1.49
0.79
2.63
3.82
4.30
4.23
3.79
3.14
2.30
1.19
-0.19
-1.74
-3.23
-4.37
-4.98
-5.01
-4.57
-3.77
-2.66
-1.19
0.74
3.25
6.27
9.57
12.74
15.39
17.21
18.13
18.33
18.11
17.84
17.82
18.16
18.79
19.46
19.86
19.76
19.09
17.94
16.49
14.92
13.32
11.65
9.79
7.59
4.95
1.84
-1.61
-5.16
-8.39
-10.79
-11.91
-11.47
-9.49
-6.32
-2.49
1.45
5.11
8.27
10.87
12.85
14.11
14.52
14.06
12.89
11.36
9.93
8.99
8.67
8.85
9.23
9.45
9.27
8.58
7.40
5.86
4.06
2.09
-0.03
-2.33
-4.86
-7.68
-10.79
-14.09
-17.38
-20.33
-22.57
-23.70
-23.43
-21.69
-18.64
-14.66
-10.26
-5.89
-1.84
1.78
4.98
7.77
10.08
11.70
12.45
12.23
11.18
9.64
8.03
6.77
6.04
5.80
5.78
5.67
5.21
4.23
2.76
0.88
-1.28
-3.58
-5.93
-8.27
-10.57
-12.89
-15.38
-18.17
-21.36
-24.85
-28.36
-31.42
-33.57
-34.41
-33.75
-31.69
-28.51
-24.64
-20.49
-16.33
-12.22
-8.09
-3.80
0.64
5.05
9.07
12.28
14.40
15.35
15.35
14.74
13.86
12.94
12.05
11.13
10.07
8.77
7.18
5.28
3.11
0.77
-1.67
-4.17
-6.73
-9.38
-12.18
-15.14
-18.24
-21.44
-24.68
-27.85
-30.70
-32.81
-33.67
-32.75
-29.82
-25.03
-18.95
-12.32
-5.79
0.28
5.86
11.03
15.76
19.83
22.89
24.66
25.11
24.56
23.49
22.38
21.54
21.05
20.83
20.75
20.65
20.38
19.87
19.05
17.91
16.47
14.72
12.67
10.27
7.48
4.35
0.95
-2.62
-6.25
-9.78
-12.97
-15.37
-16.53
-16.03
-13.75
-9.93
-5.20
-0.21
4.47
8.55
12.00
14.83
17.05
18.49
18.98
18.52
17.27
15.63
14.04
12.85
12.15
11.85
11.73
11.50
10.99
10.10
8.81
7.12
5.08
2.68
-0.02
-2.94
-5.93
-8.85
-11.67
-14.45
-17.36
-20.53
-23.94
-27.25
-29.91
-31.24
-30.77
-28.32
-24.13
-18.71
-12.68
-6.57
-0.74
4.68
9.63
14.09
17.92
20.97
23.09
24.22
24.54
24.31
23.88
23.41
22.94
22.29
21.27
19.78
17.87
15.74
13.58
11.55
9.65
7.75
5.73
3.49
1.05
-1.53
-4.24
-7.01
-9.93
-13.06
-16.46
-20.08
-23.73
-26.99
-29.35
-30.27
-29.36
-26.55
-22.14
-16.71
-10.94
-5.39
-0.35
4.17
8.29
12.17
15.82
19.11
21.85
23.84
24.99
25.38
25.23
24.81
24.33
23.90
23.46
22.81
21.76
20.18
18.07
15.51
12.55
9.24
5.61
1.78
-1.98
-5.34
-8.03
-10.01
-11.57
-13.23
-15.47
-18.49
-22.01
-25.40
-27.91
-28.85
-27.98
-25.42
-21.59
-17.02
-12.24
-7.68
-3.62
-0.26
2.25
3.80
4.27
3.65
2.10
0.07
-1.77
-2.71
-2.28
-0.45
2.25
5.00
6.96
7.55
6.65
4.47
1.36
-2.32
-6.30
-10.37
-14.35
-18.06
-21.45
-24.45
-27.12
-29.46
-31.47
-33.02
-33.93
-34.00
-33.10
-31.17
-28.29
-24.63
-20.36
-15.66
-10.71
-5.69
-0.85
3.36
6.44
7.90
7.42
5.10
1.35
-3.07
-7.31
-10.55
-12.15
-11.71
-9.19
-4.99
0.14
5.19
9.18
11.48
12.00
11.16
9.68
8.27
7.33
6.91
6.74
6.56
6.23
5.92
6.01
7.05
9.43
13.33
18.62
24.92
31.83
38.91
45.80
52.14
57.40
61.01
62.48
61.59
58.55
54.07
49.05
44.35
40.54
37.66
35.41
33.26
30.76
27.65
23.97
19.99
16.06
12.44
9.24
6.32
3.42
0.24
-3.44
-7.49
-11.42
-14.36
-15.25
-13.24
-8.03
0.00
9.84
20.13
29.66
37.64
43.76
48.09
50.79
51.96
51.55
49.54
46.02
41.32
36.01
30.76
26.14
22.50
19.83
17.78
15.72
13.00
9.15
4.15
-1.58
-7.28
-12.12
-15.47
-17.20
-17.76
-18.02
-19.02
-21.55
-25.92
-31.65
-37.53
-41.97
-43.38
-40.70
-33.75
-23.28
-10.69
2.43
14.87
26.09
36.15
45.41
54.10
62.02
68.41
72.13
72.00
67.23
57.71
44.18
28.18
11.70
-3.26
-15.20
-23.49
-28.27
-30.28
-30.43
-29.57
-28.36
-27.50
-27.76
-30.00
-34.89
-42.60
-52.56
-63.38
-73.26
-80.33
-83.21
-81.31
-74.95
-65.23
-53.67
-41.75
-30.53
-20.55
-11.91
-4.57
1.37
5.60
7.80
7.98
6.67
4.80
3.30
2.66
2.74
2.91
2.42
0.88
-1.50
-4.10
-6.12
-6.97
-6.51
-4.97
-2.96
-1.25
-0.77
-2.37
-6.71
-13.99
-23.70
-34.61
-45.08
-53.46
-58.64
-60.30
-58.87
-55.10
-49.68
-42.99
-35.18
-26.37
-16.90
-7.35
1.61
9.46
15.93
20.94
24.46
26.46
26.99
26.30
24.95
23.77
23.52
24.58
26.68
29.02
30.66
30.99
30.13
28.82
28.19
29.12
31.76
35.27
37.93
37.57
32.34
21.42
5.59
-12.74
-30.18
-43.41
-50.37
-50.84
-46.42
-39.50
-32.32
-26.00
-20.60
-15.63
-10.75
-6.30
-3.13
-2.09
-3.44
-6.64
-10.55
-13.83
-15.50
-15.17
-13.08
-9.85
-6.22
-2.63
0.58
3.59
6.77
10.51
14.88
19.46
23.46
25.98
26.37
24.30
20.02
14.20
7.50
0.34
-7.43
-16.26
-26.60
-38.44
-51.52
-64.91
-77.00
-85.59
-88.25
-82.88
-68.79
-47.83
-24.88
-7.80
-4.07
-17.71
-47.55
-87.72
-129.93
-166.24
-191.24
-202.71
-202.81
-194.33
-179.32
-159.02
-135.11
-110.48
-88.64
-72.56
-63.73
-64.52
-74.53
-90.64
-108.12
-123.09
-133.95
-141.15
-146.24
-150.68
-158.78
-172.15
-188.99
-205.21
-217.30
-224.39
-228.20
-231.88
-215.72
-172.44
-108.97
-42.34
13.02
51.85
75.75
88.79
95.06
97.76
94.02
84.45
71.42
58.50
48.72
43.29
42.13
44.72
50.89
58.47
64.44
68.14
70.77
73.64
77.13
80.75
83.75
85.50
83.90
77.93
68.09
55.99
43.31
31.05
19.61
9.20
0.07
-8.32
-16.01
-22.50
-26.96
-28.82
-28.07
-25.04
-20.19
-13.63
-5.62
3.71
14.36
26.24
39.06
52.27
65.25
77.43
88.73
99.37
109.73
120.25
131.40
143.49
156.53
169.90
182.27
192.46
199.77
204.52
208.37
213.74
222.68
235.56
250.44
263.77
273.20
277.59
277.15
272.64
264.83
254.45
242.57
231.01
222.37
221.79
232.32
252.42
276.03
295.40
305.15
304.26
295.28
281.82
270.34
263.85
260.62
255.98
245.91
230.22
212.42
197.01
186.99
188.44
204.63
235.03
276.05
323.20
373.36
424.38
473.50
481.91
424.73
302.14
142.82
-14.47
-142.61
-232.54
-288.38
-320.09
-337.71
-342.67
-333.08
-310.39
-279.32
-246.59
-217.45
-194.24
-177.06
-164.84
-151.75
-133.42
-109.27
-81.77
-55.88
-35.24
-20.91
-12.21
-7.94
-4.17
1.72
10.10
17.00
18.08
11.74
-0.39
-15.49
-31.40
-45.47
-57.09
-66.84
-80.43
-102.05
-131.14
-163.05
-192.67
-217.47
-236.39
-251.92
-266.84
-290.37
-327.92
-377.57
-431.51
-481.61
-523.77
-556.63
-584.03
-610.18
-648.18
-707.08
-786.94
-879.01
-970.88
-1051.43
-1110.25
-1143.87
-1093.01
-934.94
-695.92
-436.84
-211.03
-39.99
67.77
138.42
189.33
229.74
254.94
262.17
257.08
250.08
250.90
263.40
287.81
317.79
347.42
365.66
366.40
351.27
327.94
304.68
286.07
274.29
266.65
260.64
250.29
232.38
208.11
182.05
158.94
141.11
129.36
121.51
115.43
107.44
95.22
78.80
60.03
41.32
24.38
10.61
0.16
-6.87
-11.14
-13.24
-13.22
-10.69
-5.06
4.06
16.96
33.38
52.94
75.25
99.86
126.16
153.11
179.01
201.50
218.00
226.55
226.45
218.65
205.35
189.14
172.05
155.14
138.53
122.07
105.81
90.18
75.69
62.45
50.07
37.83
25.36
13.10
2.34
-5.15
-7.95
-5.65
0.74
9.12
16.88
21.90
23.18
21.27
18.09
16.28
18.27
25.36
37.28
52.34
67.93
81.26
89.85
91.77
85.69
70.92
47.60
17.08
-18.00
-53.88
-86.20
-110.87
-124.96
-127.56
-119.93
-105.36
-88.26
-72.91
-62.22
-56.91
-55.52
-55.02
-52.02
-43.91
-29.76
-10.55
11.28
32.75
51.36
65.78
76.03
83.08
88.17
92.20
95.50
97.94
99.16
98.58
95.18
87.39
73.31
51.54
22.29
-11.86
-46.19
-75.08
-93.83
-100.29
-95.51
-83.11
-67.80
-53.59
-42.62
-34.86
-28.86
-22.86
-15.79
-7.66
0.68
8.25
14.55
19.76
24.49
29.29
34.26
38.98
42.85
45.40
46.40
45.30
40.93
31.78
16.99
-2.25
-21.84
-35.23
-35.61
-18.84
14.14
56.65
98.12
127.49
136.90
124.09
92.76
50.84
7.72
-28.47
-52.63
-63.12
-61.08
-49.28
-31.05
-9.73
11.20
28.21
38.01
38.37
28.96
11.86
-8.78
-27.95
-41.47
-47.25
-45.75
-39.45
-31.57
-24.86
-20.90
-19.94
-21.45
-24.63
-28.87
-33.79
-39.02
-43.96
-47.78
-49.56
-48.76
-45.61
-41.03
-36.42
-32.96
-31.12
-30.32
-29.15
-25.92
-19.30
-8.93
4.57
19.88
35.50
50.36
63.91
75.97
86.41
94.92
101.01
104.31
104.64
101.55
93.91
80.23
59.98
35.13
10.62
-7.01
-12.60
-5.28
10.53
27.02
36.70
35.95
26.17
12.15
-1.11
-11.00
-18.04
-24.54
-32.61
-43.15
-55.67
-68.96
-81.54
-91.55
-96.48
-93.41
-79.72
-54.28
-18.63
22.60
62.65
94.30
111.95
113.22
99.47
74.97
45.27
15.33
-11.61
-34.14
-52.01
-65.23
-73.46
-76.13
-73.01
-64.59
-52.26
-38.00
-23.87
-11.58
-2.14
4.21
7.90
9.88
11.39
13.60
17.25
22.50
28.87
35.33
40.50
42.90
41.40
35.58
26.10
14.71
3.74
-4.71
-9.60
-11.37
-11.61
-12.14
-14.16
-17.76
-22.05
-25.85
-28.38
-29.55
-29.81
-29.67
-29.27
-28.32
-26.36
-23.18
-19.00
-14.39
-9.92
-5.89
-2.25
1.21
4.54
7.44
9.15
8.83
6.07
1.46
-3.19
-5.16
-1.67
9.02
26.81
49.61
74.20
97.45
117.39
133.40
145.36
152.60
153.41
145.58
127.74
100.46
66.44
29.55
-6.43
-38.72
-65.51
-85.50
-97.61
-101.28
-97.21
-87.76
-76.59
-67.41
-62.57
-62.31
-64.80
-67.07
-66.00
-59.07
-44.70
-22.59
5.84
37.14
66.28
87.95
98.45
97.19
86.90
72.55
59.33
50.87
48.28
50.33
54.35
57.39
57.11
52.35
43.37
31.76
19.93
10.35
4.58
2.71
3.25
3.80
1.98
-3.81
-13.92
-27.48
-42.81
-58.20
-72.41
-85.00
-96.14
-106.36
-116.04
-125.12
-132.80
-137.32
-135.89
-125.29
-102.97
-68.90
-26.58
17.21
54.53
79.46
90.69
91.81
89.13
88.04
90.03
92.24
89.67
78.68
59.58
36.64
15.88
1.90
-4.31
-5.31
-5.55
-9.09
-17.99
-32.15
-50.06
-69.74
-89.28
-106.77
-120.17
-127.26
-126.05
-115.09
-93.79
-62.53
-23.02
21.44
65.78
103.89
130.19
141.61
138.88
126.38
110.33
96.24
86.71
80.81
75.21
66.18
51.54
31.45
7.91
-16.36
-39.22
-59.56
-77.11
-91.71
-102.84
-109.48
-110.42
-104.95
-93.34
-76.91
-57.67
-37.59
-18.09
-0.01
16.10
29.56
39.41
44.84
45.71
43.02
38.85
35.53
34.77
37.11
41.91
48.00
54.45
60.84
66.94
72.29
75.85
76.35
72.99
65.92
56.09
44.74
32.70
20.39
8.48
-1.71
-8.27
-9.73
-6.35
-0.48
4.32
5.16
1.50
-4.53
-9.73
-11.94
-11.47
-10.54
-11.44
-14.52
-17.80
-18.12
-13.17
-2.92
10.57
24.38
36.16
44.83
50.16
52.05
49.91
42.98
30.92
14.50
-4.38
-23.37
-40.38
-54.25
-64.78
-72.44
-78.00
-82.10
-85.13
-87.22
-88.36
-88.53
-87.85
-86.65
-85.48
-84.90
-85.33
-86.73
-88.56
-89.81
-89.46
-86.79
-81.71
-74.53
-65.56
-54.76
-41.70
-25.94
-7.54
12.71
33.36
52.89
70.16
84.74
96.64
105.97
112.59
116.00
115.57
110.80
101.36
87.04
67.66
43.23
14.36
-17.39
-49.58
-79.37
-104.41
-123.53
-136.83
-145.18
-149.34
-149.40
-144.77
-134.84
-119.64
-100.05
-77.23
-52.03
-24.59
5.08
35.99
65.52
89.73
104.84
109.13
104.20
94.67
86.47
84.58
91.11
104.84
121.91
137.53
147.66
150.05
144.54
132.50
115.95
96.67
75.55
52.75
28.09
1.71
-25.53
-52.12
-76.30
-96.51
-111.75
-121.60
-126.14
-126.00
-122.49
-117.69
-114.24
-114.58
-120.00
-129.64
-140.26
-146.82
-143.81
-127.05
-95.10
-49.87
3.62
58.43
107.20
143.86
164.82
169.71
161.00
142.97
120.19
96.18
72.73
50.27
28.68
8.24
-10.05
-24.96
-35.89
-43.63
-50.31
-58.60
-70.49
-86.31
-104.60
-122.67
-137.42
-146.17
-147.05
-139.28
-123.26
-100.67
-74.12
-46.37
-19.24
6.96
32.98
59.39
85.25
107.86
124.14
132.72
135.15
135.14
136.21
139.45
143.19
144.39
140.89
132.45
120.06
104.07
83.07
54.61
17.51
-25.93
-69.44
-104.79
-124.96
-126.82
-112.02
-85.70
-54.43
-24.16
0.88
18.38
27.90
30.39
27.77
22.67
18.32
17.97
24.18
37.69
56.59
76.50
91.75
97.51
91.74
76.01
54.75
33.30
15.68
3.19
-5.46
-12.95
-21.67
-32.58
-44.90
-56.90
-66.89
-74.18
-79.27
-83.43
-87.89
-92.96
-97.74
-100.34
-98.61
-91.20
-78.17
-61.32
-43.60
-28.25
-17.61
-12.32
-11.10
-11.21
-9.40
-2.76
10.39
29.93
53.50
76.53
92.62
95.02
79.04
44.44
-3.17
-53.42
-94.48
-117.36
-119.19
-103.67
-78.85
-53.21
-32.47
-18.28
-9.48
-4.09
-1.13
-0.79
-3.38
-8.00
-12.11
-12.63
-7.67
2.15
13.91
23.83
29.22
29.77
27.28
24.38
22.93
23.29
24.78
26.68
29.05
32.63
38.02
44.75
51.15
55.06
54.92
50.44
42.47
32.20
20.34
6.95
-8.21
-24.91
-42.02
-57.68
-69.90
-77.38
-79.85
-77.96
-72.77
-65.12
-55.54
-44.39
-32.26
-20.09
-9.02
0.09
7.01
12.19
16.39
20.16
23.53
26.03
27.08
26.46
24.44
21.76
19.14
16.97
15.26
13.67
11.82
9.31
5.72
0.64
-6.08
-13.92
-21.48
-26.85
-28.42
-25.79
-20.24
-14.22
-10.15
-9.26
-11.06
-13.77
-15.47
-15.01
-12.39
-8.32
-3.50
1.80
7.64
13.87
19.80
24.18
25.65
23.46
17.80
9.75
1.05
-6.41
-10.86
-11.03
-6.58
1.56
11.16
19.33
23.59
23.08
19.04
14.19
11.44
12.36
16.50
21.77
25.66
26.45
23.80
18.60
12.32
6.32
1.59
-1.22
-1.72
0.27
4.64
11.09
18.91
27.26
35.16
41.51
45.26
45.57
42.15
35.48
26.82
17.87
10.27
5.00
2.09
0.82
0.09
-0.96
-2.73
-5.14
-7.94
-11.10
-14.85
-19.54
-25.20
-31.35
-36.90
-40.53
-41.13
-38.16
-31.88
-23.26
-13.91
-5.79
-0.88
-0.64
-5.39
-13.91
-23.41
-30.31
-31.43
-25.38
-13.17
2.07
16.37
26.52
31.18
31.02
27.92
23.80
19.72
15.80
11.59
6.73
1.27
-4.51
-10.32
-15.97
-21.23
-25.50
-27.66
-26.50
-21.31
-12.54
-1.79
8.65
16.85
21.92
24.34
25.61
27.54
31.40
37.57
45.46
53.83
61.18
66.13
67.60
64.98
58.21
47.87
35.17
21.85
9.82
0.61
-5.09
-7.66
-8.38
-8.95
-10.83
-14.74
-20.63
-27.83
-35.36
-42.28
-47.84
-51.52
-53.07
-52.38
-49.45
-44.45
-37.75
-29.96
-21.73
-13.42
-4.93
4.24
14.59
26.04
37.69
48.11
56.10
61.45
65.15
68.78
73.52
79.24
84.43
86.96
85.10
78.13
66.33
50.53
31.61
10.34
-12.49
-35.93
-58.96
-80.66
-100.42
-117.97
-133.05
-145.07
-152.96
-155.28
-150.79
-139.06
-120.84
-98.20
-74.12
-51.73
-33.44
-20.14
-10.98
-3.75
4.15
14.69
28.42
44.45
60.97
76.14
88.72
98.30
104.99
108.99
110.22
108.29
102.76
93.53
80.94
65.84
49.45
33.18
18.31
5.76
-4.28
-12.39
-19.67
-27.20
-35.36
-43.43
-49.77
-52.53
-50.58
-44.19
-34.88
-24.81
-15.86
-9.10
-4.72
-2.47
-2.14
-3.64
-6.95
-11.73
-17.15
-21.98
-24.84
-24.58
-20.58
-12.81
-1.85
11.28
25.24
38.51
49.57
57.06
60.06
58.20
51.88
42.23
30.81
19.27
8.78
-0.28
-8.45
-16.92
-27.04
-39.59
-54.25
-69.45
-82.79
-91.74
-94.64
-91.20
-82.57
-70.69
-57.50
-44.21
-31.16
-18.32
-5.96
5.04
13.36
17.94
18.66
16.64
13.83
12.23
13.17
16.97
23.01
30.27
37.78
44.88
51.39
57.40
63.14
68.66
73.59
76.94
77.42
73.94
66.38
55.97
44.91
35.42
28.49
23.37
17.93
9.93
-1.63
-15.89
-30.55
-43.12
-52.06
-57.36
-60.08
-61.51
-62.30
-62.29
-60.90
-57.82
-53.41
-48.64
-44.54
-41.66
-39.83
-38.32
-36.31
-33.15
-28.51
-22.18
-13.88
-3.33
9.50
24.16
39.61
54.51
67.59
77.96
85.17
89.01
89.31
85.91
78.83
68.49
55.72
41.59
27.08
12.84
-0.83
-13.87
-26.37
-38.48
-50.48
-62.65
-75.05
-87.21
-97.87
-105.13
-107.00
-102.19
-90.75
-74.38
-56.03
-38.97
-25.64
-16.93
-12.08
-9.21
-6.17
-1.17
6.86
18.30
32.99
50.35
69.34
88.49
106.09
120.45
130.26
134.80
133.93
127.91
117.39
103.40
87.44
71.32
56.75
44.84
35.78
28.79
22.52
15.56
6.86
-3.89
-16.30
-29.47
-42.25
-53.65
-63.03
-70.09
-74.71
-76.65
-75.52
-70.89
-62.61
-51.02
-36.96
-21.72
-6.84
6.23
16.55
24.28
31.14
40.38
55.94
80.69
114.68
154.05
191.64
219.24
230.25
221.68
194.36
151.94
99.23
41.24
-17.03
-70.44
-113.97
-143.74
-158.26
-159.27
-151.24
-139.93
-130.39
-125.56
-126.05
-130.99
-139.05
-149.14
-160.32
-171.20
-179.55
-182.40
-176.71
-160.22
-132.14
-93.75
-48.21
-0.24
44.84
82.29
109.18
125.12
132.01
132.96
130.70
126.48
119.78
109.37
94.64
76.72
58.30
42.38
30.56
21.87
13.05
-0.09
-20.65
-49.02
-82.38
-115.64
-143.22
-161.04
-167.59
-164.10
-153.68
-140.01
-126.25
-114.41
-105.13
-97.67
-90.01
-79.21
-62.06
-36.20
-1.20
40.67
84.49
123.74
152.06
165.15
161.89
144.56
117.83
87.17
57.26
30.90
8.87
-9.48
-25.26
-39.31
-51.76
-62.12
-69.75
-74.16
-75.26
-73.28
-68.78
-62.60
-55.82
-49.54
-44.46
-40.45
-36.23
-29.77
-19.01
-2.86
18.07
41.54
64.27
83.07
95.78
101.78
101.82
97.41
90.10
80.86
69.88
56.66
40.38
20.53
-2.65
-27.88
-52.86
-74.73
-90.78
-99.22
-99.85
-94.14
-84.69
-74.31
-65.04
-57.55
-51.13
-44.19
-35.14
-23.02
-8.03
8.45
24.10
36.26
42.70
42.36
35.89
25.53
14.45
5.84
1.86
3.17
8.97
17.50
26.75
34.94
40.94
44.17
44.63
42.64
38.72
33.49
27.66
22.03
17.49
14.81
14.40
15.96
18.38
20.03
19.28
15.15
7.65
-2.32
-13.58
-25.41
-37.91
-51.77
-67.23
-82.73
-94.39
-96.64
-84.59
-56.62
-16.01
29.44
70.04
97.73
108.78
104.41
89.50
69.73
49.38
30.47
13.44
-1.58
-13.77
-21.71
-24.23
-21.17
-14.09
-5.62
2.06
8.56
15.47
25.22
39.21
56.36
73.51
86.19
90.41
84.21
68.08
44.46
16.82
-11.11
-35.68
-53.28
-62.35
-64.00
-61.51
-58.34
-55.83
-51.93
-41.83
-20.46
15.17
62.64
114.31
160.28
192.38
207.09
205.87
193.76
171.51
142.76
112.67
86.06
65.65
52.06
45.25
44.93
50.31
59.62
71.06
82.40
91.39
97.47
101.63
105.78
111.23
118.31
126.17
133.88
140.07
143.48
143.32
139.24
133.66
128.01
122.91
118.25
113.81
109.11
103.70
97.46
90.73
84.22
78.25
72.92
68.06
63.53
59.08
54.51
49.76
44.99
40.53
36.44
32.75
29.40
26.33
23.44
20.64
17.89
15.19
12.68
10.32
8.07
5.91
3.77
1.64
-0.52
-2.65
-4.71
-6.60
-8.36
-10.02
-11.66
-13.37
-15.24
-17.26
-19.39
-21.51
-23.45
-25.16
-26.68
-28.14
-29.80
-31.85
-34.39
-37.34
-40.48
-43.51
-46.28
-48.84
-51.49
-54.68
-58.83
-64.09
-70.29
-76.95
-83.50
-89.55
-95.11
-100.64
-106.86
-114.46
-123.74
-134.54
-146.24
-158.08
-169.49
-180.33
-190.96
-202.11
-214.78
-230.09
-248.97
-271.55
-296.64
-321.37
-341.54
-352.74
-351.81
-338.07
-313.60
-282.48
-249.22
-217.34
-188.67
-163.43
-141.05
-120.99
-103.04
-87.28
-73.68
-61.87
-51.23
-41.19
-31.48
-22.25
-13.99
-7.20
-2.08
1.58
4.40
7.09
10.17
13.72
17.40
20.57
22.58
23.07
22.00
19.63
16.41
12.75
9.05
5.65
2.88
1.09
0.51
1.20
2.94
5.28
7.65
9.61
10.91
11.63
11.95
12.07
12.05
11.75
11.05
9.94
8.67
7.61
7.11
7.24
7.74
8.15
8.05
7.32
6.16
5.02
4.33
4.31
4.89
5.72
6.37
6.40
5.51
3.57
0.62
-3.09
-7.05
-10.53
-12.64
-12.56
-9.77
-4.34
3.04
11.24
19.03
25.53
30.47
34.09
36.89
39.27
41.36
43.05
44.24
45.02
45.64
46.40
47.34
48.13
48.14
46.76
43.63
38.86
33.02
26.93
21.39
17.05
14.31
13.26
13.72
15.27
17.35
19.38
20.91
21.87
22.63
23.96
26.75
31.74
39.08
48.23
58.07
67.27
74.74
80.05
83.55
86.17
89.07
93.23
99.24
107.21
116.78
127.32
137.98
147.96
156.69
163.99
170.00
174.91
178.60
180.42
179.44
174.74
166.03
153.74
138.89
122.55
105.34
87.23
67.75
46.43
23.15
-1.69
-27.37
-53.01
-77.82
-101.10
-122.28
-141.03
-157.29
-171.52
-184.70
-198.19
-213.41
-231.35
-252.31
-275.68
-300.26
-324.53
-347.19
-367.62
-386.01
-403.40
-421.44
-442.12
-467.14
-496.99
-530.12
-562.47
-588.20
-601.30
-597.76
-577.16
-542.77
-500.28
-455.57
-412.79
-373.64
-337.93
-304.86
-274.03
-245.68
-220.26
-197.77
-177.44
-158.11
-138.81
-119.28
-99.97
-81.93
-66.08
-52.89
-42.06
-32.75
-23.85
-14.44
-4.10
7.03
18.38
29.29
39.25
48.19
56.45
64.70
73.65
83.87
95.50
108.25
121.49
134.44
146.48
157.40
167.52
177.55
188.38
200.64
214.49
229.46
244.73
259.50
273.34
286.38
299.29
313.02
328.57
346.95
369.03
395.13
424.37
454.21
480.47
498.38
504.14
496.48
477.16
450.18
420.11
390.30
362.20
335.62
309.95
285.10
261.79
241.02
223.26
208.08
194.32
180.76
166.78
152.56
138.97
127.06
117.48
110.24
104.68
99.87
95.02
89.86
84.70
80.17
76.77
74.40
72.22
68.87
63.02
53.93
41.78
27.64
12.99
-0.78
-12.77
-22.60
-30.26
-35.80
-39.26
-40.74
-40.66
-39.85
-39.56
-41.01
-45.01
-51.58
-60.00
-69.04
-77.40
-84.02
-88.27
-89.92
-89.05
-85.91
-80.97
-74.90
-68.53
-62.73
-58.22
-55.36
-54.06
-53.91
-54.33
-54.81
-55.05
-54.99
-54.67
-54.09
-53.14
-51.67
-49.56
-46.79
-43.47
-39.72
-35.62
-31.26
-26.74
-22.33
-18.39
-15.23
-12.99
-11.49
-10.30
-9.02
-7.41
-5.57
-3.85
-2.63
-2.00
-1.71
-1.17
0.28
3.10
7.43
13.00
19.30
25.72
31.62
36.48
39.92
41.81
42.39
42.15
41.69
41.45
41.44
41.34
40.75
39.55
38.13
37.17
37.35
38.87
41.29
43.66
44.89
44.14
40.96
35.37
27.67
18.42
8.29
-1.95
-11.64
-20.29
-27.70
-33.88
-38.84
-42.52
-44.82
-45.78
-45.75
-45.41
-45.57
-46.83
-49.40
-53.04
-57.35
-62.11
-67.38
-73.49
-80.63
-88.59
-96.66
-103.95
-109.78
-114.18
-117.95
-122.31
-128.40
-136.83
-147.49
-159.76
-172.94
-186.57
-200.49
-214.63
-228.71
-242.04
-253.55
-262.14
-266.90
-267.40
-263.48
-255.10
-242.14
-224.48
-202.25
-176.16
-147.37
-117.29
-86.97
-56.85
-26.77
3.58
34.04
63.70
91.04
114.45
132.91
146.21
154.98
160.18
162.63
162.85
161.01
157.24
151.81
145.20
138.01
130.73
123.60
116.62
109.59
102.35
94.88
87.38
80.14
73.40
67.12
61.03
54.66
47.54
39.39
30.30
20.68
11.29
3.08
-3.01
-6.20
-6.06
-2.76
3.07
10.37
18.05
25.29
31.68
37.25
42.10
46.35
49.88
52.50
54.02
54.48
54.08
53.13
51.90
50.52
49.00
47.28
45.36
43.29
41.18
39.13
37.14
35.14
33.02
30.60
27.75
24.30
20.14
15.15
9.29
2.64
-4.44
-11.30
-17.04
-20.68
-21.44
-18.99
-13.59
-6.06
2.50
11.02
18.78
25.49
31.20
36.02
39.96
42.91
44.69
45.24
44.69
43.34
41.52
39.49
37.44
35.42
33.44
31.42
29.31
27.01
24.52
21.88
19.20
16.59
14.01
11.28
8.07
4.06
-0.93
-6.89
-13.50
-20.13
-25.92
-29.91
-31.22
-29.40
-24.54
-17.30
-8.75
-0.02
7.94
14.65
20.04
24.33
27.85
30.85
33.38
35.36
36.69
37.33
37.40
37.14
36.85
36.79
37.06
37.58
38.13
38.41
38.21
37.40
35.95
33.87
31.15
27.79
23.82
19.31
14.40
9.18
3.71
-1.98
-7.69
-12.89
-16.71
-18.14
-16.48
-11.64
-4.25
4.60
13.75
22.42
30.38
37.77
44.77
51.35
57.18
61.78
64.77
66.16
66.33
65.89
65.47
65.46
65.93
66.63
67.15
67.10
66.12
63.99
60.50
55.47
48.75
40.26
30.04
18.25
5.17
-8.82
-23.19
-37.20
-49.79
-59.61
-65.36
-66.11
-61.77
-53.18
-41.93
-29.91
-18.69
-9.21
-1.77
3.67
7.16
8.65
8.05
5.49
1.48
-3.09
-7.24
-10.14
-11.48
-11.36
-10.27
-8.81
-7.51
-6.70
-6.50
-6.90
-7.78
-9.09
-10.87
-13.29
-16.58
-20.90
-26.16
-31.83
-36.90
-40.10
-40.24
-36.68
-29.60
-20.00
-9.32
1.07
10.23
17.85
24.02
28.86
32.34
34.21
34.27
32.64
29.83
26.61
23.67
21.35
19.46
17.47
14.84
11.31
7.08
2.67
-1.38
-4.73
-7.47
-10.04
-13.04
-17.05
-22.45
-29.35
-37.47
-46.12
-54.22
-60.44
-63.61
-63.06
-58.97
-52.33
-44.57
-37.03
-30.60
-25.55
-21.76
-19.08
-17.49
-17.24
-18.56
-21.45
-25.56
-30.25
-34.84
-38.87
-42.25
-45.26
-48.37
-51.94
-56.08
-60.52
-64.80
-68.43
-71.12
-72.95
-74.37
-76.05
-78.70
-82.86
-88.65
-95.70
-103.23
-110.19
-115.52
-118.40
-118.37
-115.45
-110.08
-103.10
-95.55
-88.41
-82.21
-76.85
-71.57
-65.39
-57.70
-48.63
-39.01
-29.87
-21.74
-14.45
-7.38
-0.15
6.75
11.97
14.03
12.19
7.07
0.49
-5.30
-8.54
-8.49
-5.28
0.57
8.53
18.11
28.62
39.02
48.10
54.94
59.36
61.97
63.89
66.26
69.93
75.47
83.22
93.41
105.93
120.10
134.58
147.70
158.07
165.11
169.07
170.68
170.36
167.85
162.29
152.82
139.28
122.57
104.50
87.08
71.89
59.63
50.12
42.66
36.36
30.35
23.91
16.49
7.86
-1.77
-11.68
-20.75
-27.78
-31.78
-32.22
-29.10
-22.85
-14.26
-4.35
5.74
14.90
22.27
27.46
30.62
32.31
33.30
34.18
35.24
36.44
37.43
37.84
37.38
35.93
33.59
30.64
27.41
24.27
21.50
19.21
17.27
15.38
13.12
10.14
6.34
1.96
-2.46
-6.28
-8.98
-10.45
-11.03
-11.48
-12.69
-15.35
-19.79
-25.89
-33.21
-41.19
-49.32
-57.26
-64.76
-71.54
-77.27
-81.52
-83.89
-84.08
-82.02
-77.80
-71.64
-63.87
-54.88
-45.19
-35.47
-26.42
-18.65
-12.45
-7.76
-4.25
-1.66
0.07
0.72
0.16
-1.41
-3.25
-4.38
-4.02
-2.14
0.50
2.62
3.08
1.40
-2.00
-6.06
-9.67
-12.15
-13.47
-14.10
-14.59
-15.28
-16.01
-16.30
-15.52
-13.33
-9.84
-5.65
-1.62
1.42
3.01
3.11
2.10
0.51
-1.23
-2.89
-4.44
-5.96
-7.38
-8.49
-8.92
-8.35
-6.64
-3.91
-0.45
3.41
7.53
12.00
17.02
22.75
29.12
35.74
42.00
47.26
51.06
53.24
53.96
53.65
52.81
51.91
51.26
51.00
51.08
51.42
51.96
52.71
53.69
54.89
56.15
57.20
57.71
57.38
56.03
53.54
49.93
45.30
39.96
34.45
29.49
25.75
23.67
23.22
23.98
25.36
26.86
28.23
29.36
30.15
30.34
29.60
27.67
24.57
20.69
16.60
12.84
9.63
6.93
4.50
2.09
-0.45
-3.08
-5.71
-8.20
-10.43
-12.34
-13.97
-15.51
-17.32
-19.85
-23.46
-28.26
-34.02
-40.17
-45.99
-50.70
-53.72
-54.73
-53.69
-50.89
-46.84
-42.13
-37.35
-32.91
-28.94
-25.38
-22.06
-18.85
-15.75
-12.93
-10.60
-8.95
-8.05
-7.82
-8.06
-8.48
-8.81
-8.85
-8.52
-7.89
-7.14
-6.55
-6.27
-6.41
-6.97
-7.87
-9.04
-10.40
-11.92
-13.65
-15.67
-18.06
-20.90
-24.07
-27.28
-29.99
-31.56
-31.45
-29.45
-25.75
-20.92
-15.63
-10.48
-5.76
-1.56
2.20
5.58
8.54
10.99
12.83
14.03
14.64
14.71
14.30
13.43
12.20
10.75
9.29
7.97
6.82
5.74
4.58
3.22
1.70
0.12
-1.43
-2.96
-4.64
-6.71
-9.33
-12.49
-15.97
-19.39
-22.34
-24.44
-25.40
-25.06
-23.39
-20.51
-16.65
-12.11
-7.23
-2.29
2.44
6.77
10.53
13.53
15.62
16.67
16.67
15.67
13.88
11.63
9.26
7.15
5.54
4.52
3.97
3.63
3.19
2.43
1.31
-0.06
-1.47
-2.76
-3.87
-4.90
-5.99
-7.32
-8.96
-10.95
-13.21
-15.70
-18.28
-20.71
-22.60
-23.48
-22.94
-20.80
-17.21
-12.63
-7.62
-2.76
1.61
5.39
8.64
11.49
14.02
16.21
17.92
18.98
19.22
18.59
17.19
15.28
13.20
11.31
9.85
8.95
8.58
8.59
8.79
8.94
8.76
8.03
6.60
4.45
1.74
-1.29
-4.39
-7.37
-10.24
-13.18
-16.42
-20.12
-24.24
-28.40
-32.01
-34.37
-34.92
-33.55
-30.52
-26.34
-21.66
-16.87
-12.20
-7.67
-3.36
0.56
3.86
6.30
7.86
8.70
9.11
9.35
9.53
9.61
9.52
9.19
8.69
8.19
7.80
7.58
7.42
7.06
6.23
4.74
2.60
-0.00
-2.77
-5.43
-7.77
-9.78
-11.61
-13.51
-15.76
-18.61
-22.12
-26.09
-29.93
-32.84
-33.99
-32.84
-29.36
-24.07
-17.86
-11.60
-5.94
-1.12
2.94
6.40
9.35
11.74
13.46
14.42
14.66
14.34
13.64
12.73
11.71
10.65
9.60
8.59
7.67
6.84
6.02
5.09
3.87
2.22
0.10
-2.41
-5.13
-7.83
-10.30
-12.44
-14.30
-16.08
-18.03
-20.24
-22.57
-24.58
-25.65
-25.24
-23.12
-19.43
-14.68
-9.49
-4.40
0.26
4.39
7.98
11.06
13.60
15.56
16.90
17.64
17.76
17.29
16.21
14.61
12.69
10.74
9.15
8.20
7.95
8.20
8.51
8.36
7.29
5.15
2.11
-1.29
-4.40
-6.65
-7.82
-8.13
-8.21
-8.87
-10.76
-14.17
-18.85
-24.07
-28.82
-32.07
-33.05
-31.47
-27.54
-21.92
-15.52
-9.17
-3.51
1.22
5.04
8.16
10.84
13.24
15.41
17.37
19.10
20.52
21.54
22.02
21.86
21.03
19.63
17.90
16.07
14.35
12.82
11.46
10.16
8.85
7.45
5.96
4.33
2.59
0.76
-1.15
-3.13
-5.27
-7.75
-10.78
-14.53
-18.95
-23.74
-28.31
-31.91
-33.86
-33.71
-31.42
-27.33
-22.10
-16.46
-11.03
-6.16
-1.97
1.65
4.86
7.70
10.14
12.02
13.23
13.78
13.83
13.67
13.55
13.59
13.69
13.59
13.00
11.76
9.86
7.45
4.79
2.06
-0.56
-2.98
-5.17
-7.13
-9.01
-10.96
-13.22
-15.91
-19.01
-22.23
-25.07
-26.91
-27.21
-25.69
-22.43
-17.84
-12.54
-7.13
-2.07
2.42
6.33
9.72
12.61
14.90
16.44
17.09
16.84
15.81
14.27
12.52
10.90
9.68
9.05
9.04
9.53
10.24
10.84
11.04
10.69
9.79
8.42
6.71
4.74
2.60
0.38
-1.77
-3.78
-5.69
-7.78
-10.40
-13.78
-17.81
-21.95
-25.39
-27.31
-27.20
-25.04
-21.28
-16.59
-11.66
-6.95
-2.72
0.98
4.14
6.78
8.88
10.40
11.34
11.74
11.75
11.53
11.24
10.97
10.72
10.40
9.92
9.24
8.40
7.52
6.68
5.84
4.91
3.66
1.95
-0.21
-2.62
-4.95
-6.89
-8.31
-9.31
-10.21
-11.45
-13.36
-16.11
-19.66
-23.75
-27.90
-31.47
-33.76
-34.14
-32.28
-28.27
-22.68
-16.38
-10.25
-4.91
-0.59
2.82
5.59
7.93
9.90
11.45
12.54
13.22
13.56
13.73
13.84
13.94
14.03
14.05
13.94
13.61
13.00
12.09
10.89
9.41
7.64
5.52
2.99
0.11
-2.89
-5.73
-8.16
-10.13
-11.85
-13.71
-16.07
-18.99
-22.15
-24.87
-26.37
-26.04
-23.65
-19.42
-13.91
-7.81
-1.77
3.70
8.31
11.90
14.41
15.89
16.49
16.49
16.24
16.04
16.10
16.39
16.72
16.77
16.25
15.01
13.10
10.74
8.20
5.71
3.38
1.15
-1.12
-3.57
-6.27
-9.16
-12.07
-14.83
-17.29
-19.48
-21.60
-23.96
-26.94
-30.73
-35.25
-40.05
-44.45
-47.76
-49.49
-49.61
-48.42
-46.45
-44.23
-42.14
-40.37
-39.01
-38.16
-37.91
-38.28
-39.13
-40.18
-41.07
-41.51
-41.40
-40.80
-39.77
-38.28
-36.07
-32.72
-27.84
-21.27
-13.12
-3.76
6.40
17.05
28.09
39.54
51.50
64.03
77.23
91.30
106.65
123.65
142.36
162.16
181.64
198.95
212.49
221.66
227.30
231.48
236.82
245.41
258.36
275.70
296.91
321.10
347.08
372.80
395.28
410.91
416.57
410.86
394.84
371.65
345.25
318.97
294.48
271.82
250.17
228.77
207.48
186.68
166.84
148.03
129.91
111.90
93.56
74.83
56.10
38.05
21.25
5.98
-7.98
-21.20
-34.43
-48.25
-62.89
-78.11
-93.45
-108.41
-122.72
-136.45
-149.97
-163.74
-178.21
-193.74
-210.65
-229.09
-248.86
-269.11
-288.32
-304.39
-315.29
-319.70
-317.50
-309.69
-298.00
-284.18
-269.52
-254.70
-239.99
-225.59
-211.84
-199.04
-187.35
-176.52
-166.03
-155.35
-144.28
-133.08
-122.33
-112.70
-104.45
-97.37
-90.85
-84.13
-76.73
-68.60
-60.16
-52.05
-44.80
-38.66
-33.56
-29.13
-24.99
-20.85
-16.67
-12.57
-8.82
-5.69
-3.37
-2.00
-1.69
-2.50
-4.39
-7.21
-10.66
-14.43
-18.29
-22.20
-26.28
-30.64
-35.34
-40.29
-45.24
-49.97
-54.30
-58.20
-61.76
-65.10
-68.29
-71.30
-73.99
-76.12
-77.53
-78.15
-78.09
-77.53
-76.69
-75.73
-74.65
-73.31
-71.49
-69.02
-65.79
-61.82
-57.26
-52.34
-47.34
-42.50
-37.95
-33.64
-29.36
-24.82
-19.79
-14.18
-8.08
-1.62
5.09
12.05
19.38
27.24
35.68
44.48
53.02
60.28
64.97
65.82
61.93
53.03
39.63
23.02
4.96
-12.60
-27.91
-39.81
-47.83
-52.25
-53.87
-53.73
-52.74
-51.50
-50.20
-48.77
-47.01
-44.75
-41.85
-38.26
-34.03
-29.34
-24.52
-20.04
-16.30
-13.48
-11.47
-9.93
-8.47
-6.84
-5.06
-3.34
-1.89
-0.78
0.10
0.98
2.04
3.31
4.59
5.51
5.69
4.99
3.53
1.61
-0.06
-0.35
1.94
7.67
16.66
27.86
39.86
51.26
60.85
68.13
73.29
76.84
79.19
80.01
78.70
74.93
68.92
60.75
51.05
40.78
30.79
21.81
13.26
4.32
-5.41
-15.97
-29.25
-46.47
-67.55
-91.23
-114.86
-138.27
-161.75
-185.22
-208.37
-234.63
-265.28
-297.94
-327.24
-345.31
-350.94
-346.17
-334.49
-320.26
-313.92
-321.92
-344.07
-374.47
-402.07
-424.89
-444.11
-460.90
-476.22
-498.23
-530.71
-570.69
-610.15
-636.37
-649.44
-653.85
-653.83
-595.25
-453.95
-244.77
-14.05
159.13
275.62
349.21
392.28
421.82
445.15
458.00
457.50
445.72
429.38
420.66
420.24
425.69
435.26
447.58
456.43
459.54
460.32
466.09
486.56
518.93
554.03
581.08
590.56
574.27
531.79
470.36
401.24
336.71
279.96
229.46
182.70
137.63
91.96
44.97
-2.75
-49.67
-92.46
-129.26
-157.55
-174.34
-177.83
-169.13
-151.84
-130.93
-111.15
-95.49
-85.90
-82.63
-84.58
-90.01
-96.89
-103.22
-107.02
-106.44
-99.93
-86.73
-67.25
-43.30
-17.87
5.66
24.60
37.83
46.04
51.19
55.49
60.49
66.58
73.18
79.37
84.28
87.42
88.52
87.54
84.48
79.62
73.53
67.11
61.36
57.12
54.75
53.81
52.98
50.20
43.26
30.60
12.09
-10.44
-33.50
-52.84
-64.71
-66.99
-59.80
-45.43
-27.56
-10.14
3.73
12.54
16.52
17.16
16.23
14.88
13.14
10.24
5.33
-1.54
-9.05
-14.99
-17.30
-15.22
-9.79
-3.42
1.42
3.54
3.85
4.99
10.03
20.85
36.99
55.58
72.36
83.12
85.28
78.58
65.01
48.40
33.45
24.97
26.83
40.52
63.79
90.20
110.55
116.24
103.39
75.32
41.85
15.00
3.49
8.62
24.15
39.89
47.20
42.91
29.93
14.53
2.30
-4.53
-7.40
-9.47
-13.21
-19.03
-25.38
-30.27
-32.52
-32.31
-30.97
-29.77
-29.19
-28.59
-26.75
-22.75
-16.75
-10.05
-4.58
-1.92
-2.42
-4.96
-7.20
-6.50
-0.84
10.18
25.14
41.08
54.53
62.73
64.63
61.18
54.67
47.71
42.08
38.27
35.80
34.06
33.07
33.69
37.16
44.46
55.64
69.52
83.71
94.84
99.07
93.01
74.98
46.02
10.17
-26.28
-56.62
-75.74
-81.50
-74.97
-59.46
-39.09
-17.55
2.48
19.19
31.35
38.17
39.37
35.39
27.47
17.45
7.38
-1.03
-6.76
-9.64
-10.20
-9.19
-7.03
-3.50
2.04
10.09
20.39
31.67
41.95
49.28
52.35
50.79
45.01
35.79
24.09
11.05
-1.82
-12.74
-20.20
-23.59
-23.64
-22.03
-20.54
-20.07
-20.28
-20.03
-18.22
-14.62
-9.96
-5.60
-2.84
-2.23
-3.43
-5.34
-6.56
-5.82
-2.35
3.97
12.54
22.31
32.01
40.27
45.84
47.59
44.69
37.00
25.37
11.77
-1.11
-10.67
-15.33
-15.09
-11.30
-5.99
-0.82
3.56
7.54
12.10
18.19
26.19
35.88
46.56
57.22
66.54
72.96
74.86
71.03
61.30
47.00
30.77
16.01
5.80
1.86
3.97
9.83
15.70
17.33
11.40
-3.34
-25.47
-51.14
-75.22
-92.89
-101.14
-99.50
-89.91
-75.80
-61.02
-48.86
-41.48
-39.60
-42.34
-47.51
-52.24
-53.89
-51.04
-43.89
-34.00
-23.55
-14.35
-7.35
-2.68
-0.11
0.57
-0.71
-4.05
-9.27
-15.68
-22.31
-28.21
-32.61
-34.95
-34.57
-30.70
-22.71
-10.73
3.89
18.72
30.96
38.59
41.27
40.59
39.41
40.73
46.46
56.88
70.59
85.14
97.64
105.46
106.56
99.82
85.29
64.39
39.91
15.66
-4.35
-16.89
-20.63
-16.63
-8.04
0.96
6.71
7.35
3.25
-3.42
-9.89
-13.94
-14.68
-12.74
-9.89
-8.23
-9.56
-14.61
-22.85
-32.55
-41.42
-47.26
-48.57
-44.83
-36.38
-24.07
-8.96
7.66
24.14
38.41
48.21
51.81
48.53
39.15
25.60
10.46
-3.82
-15.38
-23.21
-27.13
-27.58
-25.48
-21.94
-18.12
-15.05
-13.40
-13.51
-15.34
-18.59
-22.74
-27.11
-30.90
-33.35
-33.77
-31.73
-27.05
-19.94
-10.91
-0.79
9.43
18.78
26.57
32.49
36.56
38.95
39.74
38.86
36.23
32.10
27.08
22.06
17.77
14.36
11.34
7.92
3.57
-1.57
-6.61
-10.43
-12.19
-11.84
-10.05
-7.97
-6.68
-6.91
-8.80
-12.08
-16.13
-20.26
-23.93
-26.82
-28.87
-30.05
-30.21
-29.00
-26.02
-21.16
-14.85
-8.20
-2.73
0.08
-0.70
-5.07
-11.89
-19.03
-23.81
-23.68
-17.12
-4.42
12.04
28.25
39.79
43.28
37.63
24.21
6.29
-12.20
-27.75
-37.95
-41.70
-39.01
-30.77
-18.58
-4.54
9.05
20.17
27.59
31.09
31.30
29.25
25.76
21.21
15.66
9.34
3.01
-1.90
-3.73
-1.18
6.19
17.72
31.77
45.95
57.41
63.17
60.90
49.83
31.58
10.32
-8.28
-18.87
-18.49
-7.74
9.58
28.19
43.48
53.01
56.69
55.72
51.27
43.64
32.49
17.64
-0.09
-19.02
-37.33
-54.08
-69.62
-84.97
-100.53
-114.94
-125.08
-127.29
-119.28
-101.53
-77.39
-51.80
-29.36
-12.76
-2.39
3.00
5.09
5.22
4.21
2.86
2.31
4.03
9.10
17.48
27.58
36.61
41.72
41.11
34.81
24.63
13.46
4.17
-1.35
-2.52
0.07
5.12
11.17
17.07
22.04
25.75
28.05
28.87
28.13
25.80
21.96
16.82
10.73
4.10
-2.51
-8.26
-11.96
-12.23
-8.00
1.04
14.08
29.31
44.36
56.97
65.56
69.58
69.68
67.50
65.28
65.12
68.23
74.34
81.78
88.09
91.07
89.56
83.71
74.59
63.42
51.10
38.15
25.03
12.37
0.93
-8.88
-17.39
-25.70
-35.30
-47.22
-61.51
-77.02
-91.71
-103.36
-110.21
-111.41
-107.10
-98.29
-86.66
-74.37
-63.78
-56.94
-55.03
-57.71
-62.97
-67.62
-68.32
-62.76
-50.50
-33.10
-13.60
4.32
17.21
22.51
18.95
6.89
-11.68
-33.48
-54.65
-71.72
-82.52
-86.51
-84.59
-78.47
-69.92
-60.35
-50.68
-41.36
-32.47
-23.74
-14.66
-4.63
6.67
18.96
31.34
42.46
51.00
56.10
57.69
56.43
53.50
50.09
47.13
45.01
43.66
42.81
42.33
42.55
44.20
47.91
53.64
60.24
65.69
67.77
64.99
57.06
44.81
29.64
13.06
-3.36
-17.75
-27.76
-30.94
-25.57
-11.58
9.13
33.18
56.77
76.71
90.84
97.98
97.60
89.71
75.05
55.36
33.37
12.27
-5.12
-17.19
-23.92
-26.98
-29.07
-33.21
-41.78
-55.82
-74.68
-96.09
-116.65
-132.62
-140.76
-139.14
-127.60
-107.82
-82.86
-56.38
-31.71
-11.23
3.84
13.22
17.13
16.01
10.58
2.03
-7.81
-16.66
-22.38
-23.59
-20.08
-12.74
-3.09
7.33
17.31
26.09
33.22
38.47
41.82
43.63
44.67
45.99
48.52
52.67
58.23
64.65
71.59
79.19
87.69
96.76
104.81
109.07
106.67
95.99
77.66
54.41
29.92
7.34
-11.55
-26.26
-36.79
-42.87
-43.99
-39.98
-31.78
-21.68
-12.64
-7.30
-6.90
-11.04
-18.01
-25.70
-32.49
-37.83
-42.28
-46.90
-52.55
-59.29
-66.14
-71.45
-73.68
-72.16
-67.44
-61.18
-55.48
-52.07
-51.58
-53.28
-55.13
-54.27
-47.83
-33.88
-12.43
14.11
41.13
62.94
74.37
72.37
56.89
30.82
-0.90
-32.65
-59.37
-77.36
-84.73
-81.44
-69.08
-50.53
-29.39
-9.22
7.15
18.20
23.79
24.89
22.99
19.54
15.60
11.59
7.49
3.10
-1.53
-5.80
-8.55
-8.29
-3.84
5.11
17.53
31.22
43.35
51.43
54.17
52.01
46.93
41.78
39.21
40.70
46.04
53.35
59.89
62.88
60.45
52.03
38.29
20.80
1.50
-17.84
-35.85
-51.81
-65.60
-77.48
-87.76
-96.44
-103.03
-106.58
-106.09
-101.01
-91.62
-79.10
-65.13
-51.31
-38.69
-27.61
-17.86
-9.10
-1.07
6.19
12.51
17.60
21.27
23.46
24.28
24.22
24.09
25.01
27.91
33.10
39.81
46.28
50.28
49.97
44.65
34.92
22.40
9.05
-3.34
-13.51
-20.71
-24.52
-24.84
-21.84
-16.04
-8.33
0.12
8.08
14.51
18.74
20.59
20.40
18.95
17.23
16.17
16.45
18.35
21.80
26.45
31.90
37.61
43.02
47.50
50.57
52.03
52.12
51.51
51.07
51.57
53.42
56.71
61.32
67.10
73.96
81.70
89.62
96.34
99.77
97.79
88.90
73.01
51.60
27.37
3.28
-18.32
-36.33
-50.87
-62.81
-73.13
-82.44
-90.95
-98.49
-104.78
-109.52
-112.32
-112.83
-110.75
-106.10
-99.23
-90.88
-81.85
-72.77
-63.87
-55.06
-46.15
-37.23
-28.89
-22.14
-18.10
-17.57
-20.63
-26.39
-33.07
-38.26
-39.36
-34.21
-21.80
-2.94
19.47
40.80
55.94
60.92
54.29
37.72
15.26
-8.15
-28.36
-42.96
-51.41
-54.29
-52.57
-47.21
-39.16
-29.68
-20.28
-12.55
-7.49
-5.19
-4.84
-5.03
-4.38
-1.98
2.43
8.49
15.51
22.84
30.01
36.97
44.04
51.78
60.61
70.44
80.52
89.62
96.63
101.19
103.92
106.24
109.56
114.63
120.99
127.11
130.78
129.64
121.53
104.75
78.35
42.54
-0.72
-47.52
-92.44
-129.76
-155.10
-166.61
-165.42
-154.87
-139.23
-122.18
-106.03
-91.57
-78.74
-67.24
-57.05
-48.46
-41.83
-37.33
-34.76
-33.69
-33.50
-33.59
-33.44
-32.64
-30.77
-27.42
-22.22
-15.21
-7.06
0.82
6.55
8.43
5.70
-1.00
-9.66
-17.52
-21.99
-21.31
-15.03
-3.90
10.34
25.15
37.58
44.79
44.77
37.08
23.14
5.90
-11.10
-24.95
-34.09
-38.48
-39.08
-37.05
-33.19
-27.75
-20.84
-12.77
-4.38
3.15
8.70
11.54
11.71
9.87
7.05
4.29
2.38
1.70
2.38
4.39
7.60
11.85
16.94
22.82
29.79
38.57
50.01
64.57
81.75
99.82
116.01
127.17
130.55
124.62
109.56
87.41
61.79
37.14
17.58
5.73
1.86
3.76
7.47
8.62
3.79
-8.57
-27.91
-52.05
-77.80
-101.62
-120.16
-130.76
-131.92
-123.70
-107.86
-87.46
-66.18
-47.30
-32.79
-22.94
-16.57
-11.78
-6.92
-1.22
5.06
11.06
16.04
19.88
23.13
26.74
31.51
37.73
45.15
53.06
60.58
66.81
70.84
71.84
69.19
62.72
52.99
41.32
29.77
20.62
15.61
15.27
18.49
22.76
24.98
22.40
13.55
-1.39
-20.82
-42.41
-63.84
-83.33
-99.73
-112.25
-120.36
-123.77
-122.34
-116.27
-106.13
-92.92
-77.84
-62.17
-47.06
-33.50
-22.40
-14.28
-9.22
-7.08
-7.59
-10.31
-14.61
-19.33
-23.09
-24.82
-23.43
-18.02
-8.26
5.77
23.69
44.91
68.86
94.17
118.25
138.71
153.99
163.51
167.80
168.06
165.57
161.69
157.14
151.47
144.63
136.93
128.38
118.73
107.59
92.01
71.70
51.84
33.09
12.15
-15.02
-51.79
-98.28
-149.75
-197.02
-228.84
-236.52
-217.83
-176.84
-122.61
-66.64
-19.68
10.55
20.62
11.62
-11.98
-43.95
-76.82
-103.66
-120.03
-124.82
-119.94
-108.96
-95.42
-82.21
-71.51
-64.36
-60.94
-60.77
-62.64
-64.72
-64.87
-61.40
-53.98
-44.08
-34.30
-27.51
-26.01
-30.72
-40.83
-53.87
-66.01
-72.76
-69.69
-53.51
-23.21
19.11
68.14
116.48
156.53
182.56
192.21
186.60
169.43
145.25
117.98
90.27
63.70
39.44
18.80
3.24
-6.26
-9.87
-9.19
-6.78
-5.16
-5.69
-8.12
-10.76
-11.41
-8.39
-1.26
9.00
20.31
29.88
34.59
31.47
18.40
-4.66
-34.43
-64.15
-85.16
-90.07
-76.16
-47.06
-11.63
19.65
38.92
43.61
36.33
22.50
7.45
-5.41
-14.62
-19.68
-20.24
-16.10
-7.94
2.04
10.55
14.35
11.60
2.76
-9.62
-21.80
-30.05
-31.93
-26.92
-16.42
-3.23
9.46
19.14
24.68
26.35
25.36
23.05
20.20
16.91
12.63
6.62
-1.58
-11.69
-22.24
-30.55
-33.30
-27.54
-11.91
12.45
42.01
71.86
97.05
113.80
120.02
115.33
100.71
78.53
52.36
26.64
5.82
-6.86
-10.20
-5.33
4.95
17.28
28.94
38.46
45.78
51.72
57.14
62.27
66.21
67.19
63.24
53.20
37.44
17.90
-2.64
-21.61
-37.41
-49.68
-58.66
-64.61
-67.40
-66.85
-63.40
-58.56
-54.62
-53.67
-56.39
-61.43
-65.76
-66.11
-60.50
-49.32
-35.25
-22.21
-13.83
-12.12
-17.05
-26.89
-39.16
-51.62
-62.92
-72.62
-80.77
-87.28
-91.35
-91.50
-86.09
-74.09
-55.86
-33.25
-9.28
12.76
30.14
41.22
45.60
44.05
38.20
30.19
22.26
16.30
13.56
14.37
18.25
24.03
30.08
34.59
35.87
32.94
25.91
16.23
6.41
-0.75
-3.15
-0.11
7.40
17.32
27.28
35.41
40.69
42.84
42.03
38.54
32.70
25.01
16.20
7.16
-1.28
-8.61
-14.76
-19.93
-24.38
-28.15
-30.92
-32.18
-31.39
-28.23
-22.66
-14.91
-5.50
4.67
14.35
22.18
27.24
29.62
30.68
32.64
37.48
45.86
56.54
66.72
73.28
74.05
68.59
58.04
44.29
29.04
13.23
-2.88
-19.23
-35.57
-51.25
-65.40
-77.01
-85.10
-88.75
-87.22
-80.12
-67.68
-50.95
-31.72
-12.20
5.52
19.96
30.57
37.68
42.06
44.43
45.05
43.55
39.17
31.34
20.16
6.69
-7.21
-19.46
-28.51
-33.85
-36.07
-36.55
-36.69
-37.38
-38.65
-39.76
-39.67
-37.53
-32.94
-26.06
-17.46
-7.91
1.81
10.92
18.66
24.31
27.32
27.50
25.11
20.94
16.06
11.56
8.27
6.56
6.30
7.02
8.13
9.13
9.77
10.12
10.43
11.02
12.14
13.92
16.39
19.64
23.96
29.90
38.12
49.05
62.53
77.50
92.13
104.14
111.44
112.66
107.40
96.16
80.16
61.05
40.84
21.68
5.65
-5.72
-11.91
-13.66
-12.70
-11.03
-10.19
-10.76
-12.51
-14.82
-17.26
-19.78
-22.52
-25.45
-28.29
-30.72
-32.65
-34.53
-37.06
-40.72
-45.28
-49.64
-52.40
-52.51
-49.94
-45.71
-41.50
-38.85
-38.59
-40.48
-43.47
-46.20
-47.57
-47.16
-45.21
-42.48
-39.74
-37.52
-35.97
-34.84
-33.75
-32.23
-29.97
-26.76
-22.63
-17.86
-12.96
-8.54
-5.04
-2.54
-0.64
1.30
3.73
6.45
8.57
8.80
6.08
0.26
-7.64
-15.65
-21.55
-23.70
-21.71
-16.50
-9.94
-4.14
-0.58
0.34
-0.64
-2.02
-2.21
-0.20
3.94
9.06
13.17
14.03
9.74
-0.32
-14.96
-30.94
-43.30
-46.35
-35.38
-8.55
31.65
78.30
121.77
152.82
165.70
159.90
139.55
111.12
80.38
50.61
22.47
-4.55
-30.45
-53.87
-72.54
-84.50
-89.13
-87.32
-80.74
-71.13
-59.92
-48.67
-39.32
-34.25
-35.75
-45.13
-61.85
-83.35
-105.42
-123.11
-131.90
-128.73
-112.85
-86.09
-52.45
-17.05
15.20
40.83
58.45
68.65
73.31
74.73
74.99
75.47
76.83
78.99
81.39
83.24
83.90
83.12
81.21
78.91
77.13
76.62
77.69
80.01
82.49
83.41
80.82
73.20
60.12
42.61
22.90
3.75
-12.33
-23.64
-29.41
-29.77
-25.61
-18.51
-10.61
-4.23
-1.24
-2.44
-7.25
-13.93
-20.26
-24.41
-25.50
-23.74
-20.25
-16.46
-13.69
-12.75
-13.86
-16.72
-20.72
-25.03
-28.84
-31.39
-32.16
-30.93
-27.93
-23.75
-19.23
-15.12
-11.96
-9.88
-8.67
-7.97
-7.37
-6.58
-5.45
-3.96
-2.26
-0.61
0.66
1.27
1.04
0.08
-1.33
-2.78
-3.95
-4.75
-5.38
-6.21
-7.54
-9.39
-11.39
-12.97
-13.63
-13.28
-12.30
-11.47
-11.58
-13.06
-15.78
-19.11
-22.14
-24.17
-24.97
-24.92
-24.84
-25.64
-27.97
-31.97
-37.19
-42.51
-46.36
-46.90
-42.50
-32.31
-16.85
1.84
20.67
36.53
47.52
53.70
56.99
60.10
65.16
72.68
81.37
88.80
92.54
91.05
84.04
72.24
56.96
39.64
21.67
4.24
-11.74
-25.88
-38.33
-49.75
-60.92
-72.31
-83.75
-94.36
-102.81
-107.65
-107.78
-102.78
-93.14
-80.13
-65.65
-51.67
-39.73
-30.54
-23.82
-18.53
-13.28
-6.92
1.04
10.33
20.04
29.14
36.85
43.01
48.09
52.83
57.86
63.22
68.43
72.71
75.52
76.89
77.39
77.80
78.58
79.52
79.87
78.75
75.62
70.65
64.64
58.67
53.70
50.04
47.24
44.20
39.66
32.78
23.57
13.06
3.08
-4.33
-7.63
-6.35
-1.12
6.66
15.40
23.71
30.61
35.48
38.18
38.64
36.89
33.08
27.83
22.22
17.64
15.45
16.52
21.32
29.19
38.27
46.06
50.37
50.15
45.69
38.10
28.72
19.32
11.07
4.71
0.87
0.54
4.64
13.12
24.43
36.11
47.04
57.34
67.93
79.28
90.64
99.77
103.60
99.82
82.99
53.85
19.34
-10.66
-29.57
-36.77
-35.84
-30.89
-24.45
-17.13
-7.78
4.20
18.13
31.81
43.31
51.56
57.13
61.36
65.70
71.84
80.52
91.29
102.40
112.22
119.95
125.63
129.74
132.55
134.24
133.91
132.87
130.68
126.81
121.20
114.27
106.72
99.19
92.30
86.40
81.47
76.82
71.90
66.54
60.87
55.17
49.71
44.71
40.21
36.15
32.03
27.48
22.41
16.95
11.37
5.91
0.70
-4.35
-9.45
-15.09
-21.60
-29.05
-37.21
-45.70
-54.16
-62.42
-70.65
-79.24
-88.79
-99.68
-111.93
-125.15
-138.79
-152.36
-165.63
-178.77
-192.13
-206.22
-221.53
-238.61
-257.94
-279.63
-302.89
-325.76
-345.22
-358.16
-362.46
-357.93
-346.32
-330.60
-313.81
-298.07
-284.30
-272.52
-262.43
-253.72
-246.15
-239.31
-232.63
-225.61
-218.26
-211.40
-206.46
-204.88
-207.45
-213.76
-222.18
-230.16
-234.89
-233.90
-225.57
-209.40
-186.03
-156.95
-124.13
-89.55
-54.56
-19.79
14.80
49.14
82.31
112.17
135.68
150.01
153.73
147.68
134.62
118.28
101.87
87.11
74.13
62.18
50.61
39.52
29.71
22.08
16.94
13.78
11.66
9.90
8.79
9.63
14.05
23.10
36.45
52.35
68.09
80.97
89.02
91.28
87.81
79.43
67.62
54.46
42.57
34.64
32.71
37.46
47.73
60.89
73.62
83.05
87.57
87.13
82.87
76.36
68.91
61.14
53.19
45.07
36.94
29.12
22.09
16.70
14.39
17.15
26.88
44.16
66.86
89.58
104.79
105.56
88.77
56.98
17.99
-18.29
-43.75
-55.07
-54.17
-46.27
-36.67
-28.27
-20.98
-12.81
-1.99
11.52
25.66
37.30
43.90
44.58
40.36
33.41
25.89
19.01
12.59
5.59
-2.77
-11.99
-20.07
-24.33
-23.01
-16.45
-7.23
0.84
4.34
1.71
-6.16
-16.68
-26.78
-34.29
-38.37
-39.16
-37.57
-34.89
-32.39
-30.86
-30.15
-28.83
-24.41
-13.93
5.66
35.26
72.50
112.12
147.77
174.17
188.50
190.63
182.34
168.19
152.52
138.48
127.93
122.32
123.07
130.95
145.09
162.72
182.76
203.55
222.70
237.37
245.57
247.31
244.54
240.25
237.72
243.55
262.35
294.36
334.79
375.95
410.39
432.98
441.68
414.56
342.85
235.00
114.60
6.14
-77.14
-134.00
-169.47
-189.86
-200.12
-199.98
-189.34
-170.43
-148.00
-127.06
-110.42
-98.22
-89.59
-83.18
-75.17
-63.07
-47.04
-29.67
-14.22
-2.66
4.84
8.60
9.47
10.08
12.25
16.04
19.66
20.21
14.58
4.80
-8.36
-24.11
-40.74
-56.79
-71.53
-85.14
-98.29
-111.58
-125.31
-140.20
-156.67
-174.62
-193.71
-213.31
-232.32
-249.15
-261.81
-268.49
-268.56
-262.17
-250.14
-233.68
-214.40
-194.47
-176.82
-164.72
-160.75
-165.81
-177.79
-191.93
-202.43
-204.63
-196.90
-181.25
-162.53
-146.60
-138.42
-139.89
-148.99
-160.03
-164.99
-155.64
-125.99
-74.11
-3.87
74.94
148.27
201.38
223.90
214.42
182.24
144.67
120.02
119.66
142.76
177.03
204.94
212.11
193.07
151.54
95.88
33.65
-31.16
-96.88
-160.49
-215.42
-252.63
-264.47
-249.06
-211.66
-162.43
-112.02
-67.72
-32.93
-9.16
1.63
-3.46
-26.34
-64.97
-112.12
-157.12
-189.98
-205.36
-204.11
-191.77
-174.94
-158.06
-142.37
-127.13
-111.70
-96.86
-84.37
-75.44
-69.31
-63.12
-53.26
-37.02
-13.99
13.84
43.20
70.93
95.22
115.94
134.01
150.71
167.06
183.38
198.87
211.46
217.91
214.64
199.12
171.40
134.86
95.54
60.20
34.06
19.28
14.88
17.87
24.75
32.69
39.75
44.65
46.57
45.10
40.50
33.64
25.85
18.45
12.46
8.61
7.22
8.30
11.57
16.47
22.38
28.86
35.89
43.80
52.90
63.04
73.30
82.07
87.58
88.54
84.58
76.37
65.37
53.27
41.60
31.40
23.04
16.39
11.00
6.27
1.77
-2.75
-7.29
-11.74
-15.83
-19.30
-21.86
-23.32
-23.57
-22.72
-21.00
-18.67
-15.85
-12.46
-8.25
-2.97
3.43
10.73
18.39
25.73
32.04
36.77
39.63
40.59
39.92
38.01
35.34
32.40
29.64
27.44
26.05
25.60
25.98
26.93
28.05
28.93
29.18
28.54
26.87
24.12
20.41
15.97
11.22
6.75
3.29
1.62
2.42
6.11
12.66
21.54
31.73
42.00
51.10
58.09
62.53
64.45
64.30
62.71
60.34
57.60
54.63
51.22
47.01
41.64
35.06
27.78
20.73
15.13
12.03
11.82
14.01
17.11
18.96
17.15
9.67
-4.42
-24.39
-47.54
-69.55
-85.42
-90.94
-84.02
-65.43
-38.52
-8.19
20.51
43.48
57.96
62.62
57.38
43.57
24.10
3.39
-13.54
-22.50
-21.69
-12.61
0.39
11.69
16.45
12.21
-0.54
-18.89
-38.82
-56.47
-69.06
-75.20
-74.84
-68.99
-59.42
-48.29
-37.72
-29.26
-23.60
-20.49
-19.02
-18.11
-16.91
-15.12
-12.90
-10.63
-8.57
-6.64
-4.45
-1.46
2.74
8.20
14.53
20.94
26.45
30.20
31.60
30.39
26.57
20.37
12.32
3.35
-5.29
-12.19
-16.36
-17.61
-16.67
-14.80
-13.08
-11.86
-10.61
-8.31
-4.23
1.51
7.83
13.17
16.33
16.91
15.49
13.13
10.81
8.94
7.44
6.14
5.26
5.53
7.87
12.80
19.84
27.52
33.80
36.92
36.13
31.88
25.44
18.15
10.90
3.84
-3.33
-10.88
-18.56
-25.48
-30.38
-32.06
-29.92
-24.15
-15.67
-5.83
4.10
13.19
20.98
27.35
32.31
35.78
37.64
37.80
36.36
33.69
30.35
26.97
23.99
21.57
19.55
17.63
15.47
12.93
10.05
7.05
4.16
1.44
-1.16
-3.78
-6.36
-8.51
-9.52
-8.60
-5.21
0.64
8.37
16.98
25.33
32.50
37.87
41.19
42.45
41.84
39.65
36.34
32.43
28.46
24.84
21.77
19.25
17.12
15.22
13.44
11.81
10.40
9.27
8.37
7.50
6.28
4.31
1.26
-2.97
-8.11
-13.52
-18.27
-21.37
-22.05
-20.05
-15.69
-9.75
-3.26
2.84
7.86
11.47
13.64
14.54
14.41
13.57
12.33
10.94
9.57
8.28
7.00
5.63
4.11
2.43
0.66
-1.07
-2.68
-4.15
-5.57
-7.13
-9.11
-11.68
-14.83
-18.25
-21.21
-22.82
-22.22
-18.96
-13.19
-5.68
2.47
10.11
16.39
20.89
23.57
24.66
24.46
23.22
21.22
18.72
16.05
13.50
11.26
9.37
7.73
6.18
4.58
2.86
1.03
-0.91
-3.02
-5.43
-8.28
-11.58
-15.18
-18.67
-21.44
-22.82
-22.24
-19.41
-14.42
-7.83
-0.45
6.73
12.87
17.44
20.31
21.65
21.84
21.26
20.23
18.96
17.62
16.29
15.04
13.92
12.91
11.98
11.06
10.05
8.84
7.29
5.29
2.78
-0.24
-3.71
-7.50
-11.37
-14.94
-17.70
-19.06
-18.51
-15.81
-11.15
-5.15
1.32
7.38
12.39
16.09
18.51
19.84
20.28
19.93
18.80
16.97
14.60
12.01
9.50
7.38
5.73
4.54
3.68
3.06
2.64
2.37
2.18
1.88
1.24
0.02
-1.93
-4.62
-7.84
-11.18
-14.02
-15.63
-15.39
-12.94
-8.43
-2.48
3.91
9.72
14.23
17.11
18.47
18.66
17.99
16.69
14.92
12.84
10.66
8.66
7.08
5.99
5.31
4.78
4.07
2.94
1.26
-0.92
-3.45
-6.14
-8.88
-11.67
-14.55
-17.49
-20.17
-22.02
-22.30
-20.39
-16.13
-9.91
-2.64
4.60
10.87
15.58
18.57
19.94
19.97
18.92
17.10
14.82
12.38
10.04
7.99
6.27
4.87
3.67
2.59
1.52
0.39
-0.91
-2.50
-4.48
-6.90
-9.77
-13.04
-16.55
-20.00
-22.94
-24.70
-24.65
-22.38
-17.93
-11.86
-5.09
1.37
6.83
11.03
14.09
16.30
17.83
18.65
18.65
17.76
16.15
14.14
12.14
10.46
9.24
8.48
8.03
7.72
7.36
6.80
5.95
4.81
3.44
1.87
0.00
-2.39
-5.56
-9.51
-13.91
-18.00
-20.92
-21.99
-21.00
-18.25
-14.48
-10.59
-7.58
-6.35
-7.63
-11.74
-18.39
-26.45
-34.11
-39.38
-40.84
-38.13
-32.11
-24.33
-16.33
-9.08
-2.81
2.59
7.23
11.00
13.69
15.22
15.82
15.84
15.54
15.02
14.46
14.35
15.58
19.10
25.39
34.27
45.03
56.97
69.70
83.07
96.63
109.19
118.95
124.13
123.94
119.09
111.72
104.66
100.64
101.63
108.58
121.19
137.83
155.54
170.45
178.65
177.35
166.04
146.89
124.29
103.50
89.02
83.21
85.93
95.00
107.51
120.99
133.99
145.85
156.02
163.49
166.98
165.71
160.27
152.93
146.69
143.80
144.43
146.39
146.23
140.81
128.84
111.16
90.14
68.37
47.73
29.06
12.35
-2.86
-17.25
-31.62
-46.74
-63.08
-80.49
-98.10
-114.57
-128.62
-139.34
-146.20
-148.95
-147.61
-142.81
-136.10
-129.73
-125.82
-125.25
-127.00
-128.60
-127.53
-122.82
-115.78
-109.45
-106.97
-109.95
-117.82
-128.44
-139.57
-149.96
-159.67
-169.42
-179.65
-189.94
-199.16
-206.05
-209.90
-210.79
-209.32
-205.98
-200.68
-192.42
-179.60
-160.47
-133.82
-99.69
-59.79
-17.45
22.90
56.95
81.72
96.34
102.09
101.58
97.50
91.67
84.75
76.57
66.76
55.04
41.23
25.00
5.82
-16.68
-42.18
-69.34
-96.01
-119.91
-139.46
-154.22
-164.84
-172.46
-178.24
-182.88
-186.52
-188.73
-188.47
-184.23
-174.30
-157.39
-133.28
-103.31
-70.30
-37.93
-9.78
11.65
25.48
32.54
34.98
35.66
37.23
41.51
49.07
59.38
71.43
84.42
98.17
112.97
128.97
145.77
162.35
177.58
190.82
202.19
212.20
221.17
228.74
234.13
236.91
237.60
237.78
239.15
242.43
246.54
248.94
246.74
238.13
223.12
203.37
181.19
158.42
135.92
113.58
90.93
67.54
43.27
18.19
-7.37
-32.79
-57.02
-78.73
-96.61
-109.92
-118.71
-123.79
-126.41
-127.93
-129.68
-132.86
-138.49
-147.03
-158.02
-169.92
-180.36
-186.97
-188.12
-183.53
-174.20
-162.00
-149.01
-137.02
-127.23
-120.04
-114.87
-110.14
-103.65
-93.25
-77.82
-57.81
-35.22
-13.11
5.31
17.24
20.52
13.68
-3.97
-31.76
-67.02
-104.84
-138.93
-163.34
-174.52
-172.54
-160.72
-143.91
-126.21
-109.65
-94.18
-79.01
-64.04
-50.55
-40.64
-35.88
-36.20
-39.74
-43.84
-46.43
-46.98
-46.49
-46.64
-48.72
-52.88
-58.35
-63.95
-68.78
-72.47
-75.04
-76.62
-77.20
-76.68
-75.03
-72.38
-69.00
-65.15
-61.01
-56.74
-52.56
-48.84
-45.90
-43.73
-42.03
-40.25
-37.99
-35.28
-32.58
-30.52
-29.46
-29.25
-29.16
-28.32
-25.97
-21.81
-16.07
-9.38
-2.62
3.40
8.10
11.39
13.59
15.29
17.09
19.28
21.79
24.20
25.91
26.23
24.44
19.89
12.35
2.37
-8.50
-17.90
-23.34
-23.16
-17.25
-7.12
4.63
15.34
23.10
27.14
27.70
25.53
21.43
16.09
10.04
3.88
-1.70
-5.94
-8.23
-8.39
-6.72
-3.99
-1.09
1.22
2.52
2.76
2.09
0.65
-1.39
-3.91
-6.67
-9.21
-10.97
-11.44
-10.38
-7.84
-4.23
-0.07
4.10
7.90
11.12
13.67
15.54
16.73
17.28
17.31
17.10
17.00
17.32
18.08
18.96
19.47
19.15
17.91
16.08
14.27
13.06
12.73
13.11
13.63
13.54
12.13
8.99
4.27
-1.32
-6.54
-9.99
-10.55
-7.79
-2.11
5.41
13.44
20.79
26.70
30.89
33.39
34.40
34.23
33.22
31.76
30.17
28.69
27.33
26.02
24.54
22.75
20.55
17.99
15.19
12.35
9.70
7.39
5.47
3.76
1.84
-0.87
-4.80
-9.94
-15.60
-20.41
-22.75
-21.35
-15.83
-6.88
3.90
14.66
23.85
30.60
34.72
36.47
36.25
34.42
31.32
27.28
22.83
18.50
14.80
12.05
10.25
9.19
8.48
7.77
6.81
5.54
3.97
2.09
-0.23
-3.28
-7.32
-12.35
-17.84
-22.71
-25.59
-25.24
-21.02
-13.25
-3.13
7.69
17.57
25.44
30.90
34.06
35.28
34.89
33.14
30.28
26.67
22.78
19.10
15.88
13.14
10.66
8.12
5.30
2.18
-1.15
-4.56
-8.01
-11.64
-15.72
-20.49
-25.98
-31.77
-36.94
-40.22
-40.31
-36.47
-28.74
-18.15
-6.29
5.12
14.81
22.13
27.02
29.68
30.37
29.32
26.88
23.63
20.32
17.66
16.00
15.19
14.63
13.59
11.56
8.51
4.89
1.35
-1.50
-3.45
-4.68
-5.72
-7.27
-9.92
-13.97
-19.22
-24.86
-29.59
-31.88
-30.51
-25.01
-15.97
-4.83
6.59
16.69
24.60
30.21
