1513829719.00
64.000000
-0.00
-0.00
-0.00
-0.00
-0.00
-0.00
-0.00
-0.00
-0.00
-0.00
0.00
0.01
0.01
-0.00
-0.03
-0.05
-0.05
0.00
0.13
0.36
0.66
1.01
1.37
1.72
2.06
2.40
2.79
3.24
3.80
4.42
5.06
5.66
6.20
6.68
7.15
7.68
8.31
9.14
10.09
11.04
11.88
12.56
13.14
13.76
14.65
15.96
17.91
20.32
22.90
25.38
27.58
29.57
31.68
34.32
37.81
42.54
48.15
54.10
59.83
64.97
69.58
74.14
79.34
85.71
93.76
103.00
112.62
121.73
129.77
136.75
143.30
150.75
157.77
166.64
177.95
191.79
206.97
220.57
228.25
225.36
208.53
176.87
132.76
80.05
23.07
-34.94
-92.44
-149.16
-205.23
-260.37
-313.74
-363.87
-409.83
-450.91
-486.50
-515.74
-537.23
-549.22
-549.96
-538.37
-514.21
-478.67
-433.88
-382.45
-327.02
-269.84
-212.63
-156.66
-102.95
-52.37
-5.90
35.58
71.43
101.36
125.51
144.38
158.69
169.14
176.36
180.75
182.61
182.15
179.60
175.28
169.58
162.91
155.65
148.10
140.45
132.81
125.19
117.63
110.13
102.69
95.36
88.14
81.10
74.30
67.82
61.73
56.05
50.72
45.65
40.76
36.03
31.52
27.38
23.72
20.57
17.82
15.25
12.61
9.76
6.75
3.80
1.28
-0.50
-1.45
-1.77
-1.92
-2.44
-3.75
-5.95
-8.70
-11.35
-13.18
-13.71
-13.01
-11.65
-10.61
-10.80
-12.74
-16.19
-20.36
-23.96
-25.78
-25.09
-21.90
-17.51
-14.24
-14.94
-21.56
-33.31
-45.59
-50.96
-42.58
-17.49
21.06
64.69
103.24
128.52
136.52
127.28
103.63
70.19
33.44
1.39
-17.65
-18.22
-0.69
28.04
56.91
75.62
78.82
68.04
49.24
29.31
12.49
-0.23
-9.57
-16.58
-21.06
-22.05
-18.76
-11.79
-3.11
4.94
10.27
11.94
9.63
3.73
-5.10
-15.50
-25.23
-31.63
-32.82
-29.01
-22.35
-15.86
-11.34
-8.47
-5.22
0.20
7.50
14.21
16.63
12.71
3.64
-6.70
-14.29
-17.22
-16.45
-14.68
-14.50
-16.38
-19.23
-21.61
-22.96
-23.86
-25.44
-28.39
-32.59
-36.75
-39.51
-40.04
-38.48
-36.15
-34.90
-36.36
-41.60
-50.90
-63.37
-76.74
-87.07
-89.27
-79.13
-55.59
-21.92
14.88
46.91
68.89
80.25
84.90
89.10
97.72
112.13
130.00
147.16
160.04
167.56
170.97
170.51
167.34
162.23
155.60
147.71
138.83
129.98
122.81
119.05
119.90
125.78
135.77
148.06
160.22
168.54
170.00
163.37
149.71
131.85
113.49
97.56
85.82
78.82
74.31
70.98
69.21
70.50
75.30
81.51
84.49
79.30
62.81
30.81
-17.02
-77.42
-144.37
-211.96
-276.29
-335.90
-390.62
-440.62
-491.40
-546.39
-605.70
-664.83
-717.16
-757.00
-781.19
-789.03
-748.49
-644.29
-482.48
-290.84
-102.20
61.11
190.97
289.08
361.56
415.32
448.00
461.06
457.10
441.96
422.81
405.20
391.87
383.13
377.73
366.79
345.38
311.25
267.30
219.34
172.84
131.34
96.55
68.91
41.60
8.87
-32.11
-79.11
-126.77
-169.95
-205.57
-232.88
-252.88
-273.98
-303.72
-346.24
-400.30
-461.32
-525.37
-591.15
-658.81
-697.33
-684.65
-613.42
-495.50
-352.89
-206.25
-71.34
41.21
126.44
185.68
220.10
233.97
233.53
225.90
218.02
216.42
225.74
248.56
284.69
326.44
363.22
385.04
381.40
351.92
304.95
253.73
211.30
185.48
174.40
170.65
166.25
156.36
142.08
127.29
115.37
107.39
101.76
94.55
81.65
61.45
34.39
4.21
-25.20
-51.60
-74.68
-95.93
-117.99
-143.06
-167.87
-192.10
-215.16
-236.65
-255.87
-270.94
-278.42
-274.25
-255.90
-224.20
-184.88
-145.52
-113.22
-91.82
-80.85
-76.58
-74.64
-72.31
-68.25
-63.16
-57.33
-50.40
-41.64
-30.86
-19.10
-8.65
-2.23
-1.72
-8.17
-20.98
-38.52
-58.83
-80.47
-102.89
-126.37
-151.64
-178.62
-206.90
-235.20
-261.74
-284.62
-301.84
-311.93
-313.78
-310.26
-302.61
-291.54
-277.18
-259.46
-238.36
-213.84
-186.41
-157.26
-128.00
-99.66
-73.07
-48.62
-26.33
-5.98
13.68
33.59
53.92
74.13
93.95
113.20
132.08
150.82
169.66
191.29
217.18
246.69
277.13
305.67
330.20
349.87
364.61
374.87
386.67
404.04
427.00
451.81
474.06
490.97
502.13
508.58
511.88
522.24
546.25
583.88
628.83
673.35
712.16
743.64
768.34
787.59
813.73
854.38
908.27
965.93
1015.93
1050.30
1066.10
1063.87
975.23
771.60
472.18
134.98
-180.04
-438.65
-633.46
-771.95
-866.53
-929.20
-958.58
-954.66
-923.75
-878.30
-830.64
-789.91
-759.50
-739.10
-726.75
-711.65
-686.14
-649.50
-607.47
-567.76
-535.36
-511.03
-492.66
-476.60
-456.70
-428.05
-390.14
-346.93
-304.47
-267.22
-236.44
-211.41
-190.19
-168.12
-141.55
-109.12
-72.66
-37.09
-6.32
18.63
38.58
55.70
73.46
94.66
121.61
154.01
186.47
214.39
236.74
254.22
269.28
285.58
307.39
341.04
390.02
448.05
505.65
553.20
579.78
576.48
539.51
472.22
388.40
305.46
233.40
180.14
151.91
148.34
164.27
192.92
205.85
185.78
166.58
164.28
167.06
165.80
151.54
118.98
68.38
4.69
-61.46
-121.47
-177.01
-229.69
-276.06
-310.82
-328.18
-324.76
-302.37
-265.25
-220.95
-181.90
-155.21
-140.12
-132.94
-129.89
-128.64
-128.72
-128.49
-126.26
-123.28
-119.73
-114.36
-107.00
-98.82
-91.29
-85.59
-80.96
-75.77
-69.67
-62.11
-52.59
-41.74
-31.39
-23.64
-20.15
-20.95
-24.67
-29.63
-33.62
-34.68
-31.73
-24.82
-14.72
-2.60
10.25
22.57
32.98
40.30
43.41
41.86
35.84
26.35
14.95
3.29
-7.19
-15.64
-21.59
-25.17
-26.67
-26.56
-25.24
-22.86
-19.50
-15.22
-10.47
-5.88
-2.36
-0.31
0.37
0.45
1.01
2.73
5.73
9.55
13.73
18.06
22.76
27.76
32.65
36.84
39.46
40.26
39.80
39.48
40.82
44.90
50.80
56.60
60.01
59.10
53.31
44.01
34.15
27.42
27.09
33.38
44.27
56.18
64.76
66.87
61.56
49.98
35.37
22.07
12.97
10.87
18.57
37.82
64.37
90.30
104.79
99.74
83.18
64.43
52.71
53.81
65.02
79.20
86.71
79.60
52.90
10.69
-37.52
-80.51
-111.43
-130.63
-142.74
-151.88
-158.78
-160.96
-155.17
-141.63
-123.49
-105.63
-92.33
-85.34
-83.44
-83.56
-82.14
-76.40
-66.41
-54.16
-42.58
-34.17
-29.79
-28.60
-28.72
-28.00
-24.83
-19.19
-12.17
-5.38
-0.19
2.91
4.33
4.93
5.75
7.57
10.49
14.19
18.07
21.57
24.39
26.46
27.75
28.45
28.71
28.65
28.37
27.84
26.93
25.27
22.40
17.51
10.72
2.36
-6.83
-15.88
-23.96
-30.70
-36.38
-40.98
-45.75
-51.12
-56.93
-62.46
-66.73
-69.28
-70.11
-69.94
-69.72
-70.22
-71.56
-73.94
-77.77
-83.49
-90.71
-97.34
-99.49
-92.69
-74.56
-45.37
-9.70
25.45
53.39
70.38
76.80
75.98
72.43
69.63
69.38
72.02
77.71
86.84
99.71
115.14
129.58
137.66
134.04
116.06
85.61
48.81
13.65
-13.30
-29.45
-36.50
-38.55
-39.66
-42.09
-45.72
-49.48
-52.67
-55.74
-60.00
-66.99
-77.56
-91.77
-108.15
-123.08
-131.53
-128.52
-111.18
-80.55
-41.71
-1.80
32.04
55.69
69.24
75.87
79.70
83.75
89.23
96.34
105.93
119.05
136.53
157.38
177.61
190.67
189.96
171.90
135.94
91.08
48.72
18.02
2.68
0.64
6.15
13.36
18.85
22.13
24.81
27.85
31.16
33.45
34.24
33.45
31.93
31.03
31.91
35.28
40.28
45.61
50.27
54.50
58.37
62.50
67.64
74.31
82.65
91.74
100.48
108.23
115.40
121.89
127.89
133.55
138.84
143.31
145.34
143.15
135.08
125.36
115.46
106.05
97.13
88.49
79.76
68.80
54.49
37.63
22.26
9.54
-0.74
-9.97
-19.44
-30.20
-46.48
-70.19
-99.57
-126.47
-148.05
-164.50
-178.53
-192.63
-208.84
-234.31
-272.57
-321.50
-368.75
-409.54
-443.59
-474.21
-504.32
-537.01
-583.38
-650.89
-738.90
-830.68
-914.42
-979.89
-1020.05
-1029.83
-960.73
-799.10
-570.59
-372.84
-228.27
-132.31
-59.63
1.70
58.36
112.33
154.94
179.95
188.71
196.95
212.70
239.12
275.14
320.06
372.65
424.42
467.30
495.42
510.50
507.14
479.16
423.94
347.66
263.22
181.92
113.70
65.16
41.98
40.84
54.73
76.48
101.93
128.79
153.55
173.27
187.13
198.78
211.79
230.23
257.73
297.18
349.27
411.01
476.23
536.64
584.02
610.97
613.61
593.05
554.99
507.15
456.31
406.18
357.40
309.17
261.25
214.88
172.28
134.75
101.08
67.43
28.85
-17.56
-70.47
-123.79
-168.70
-197.37
-206.26
-197.61
-178.22
-156.82
-140.81
-134.53
-138.87
-152.51
-173.14
-198.44
-226.46
-255.68
-285.31
-315.60
-348.18
-385.44
-428.95
-477.71
-527.28
-570.29
-598.67
-606.77
-593.56
-563.22
-523.32
-481.70
-443.94
-412.10
-385.62
-362.97
-343.15
-325.86
-310.89
-297.31
-282.88
-265.32
-243.32
-217.34
-189.31
-162.02
-137.80
-117.79
-101.80
-88.19
-75.17
-61.50
-47.12
-32.90
-20.14
-9.84
-2.22
3.20
8.35
14.94
23.88
34.77
46.34
57.16
66.17
73.00
77.85
83.55
92.55
105.82
122.34
139.98
156.74
171.48
184.04
194.76
208.75
230.28
260.64
297.40
336.11
372.80
405.21
432.79
455.94
482.56
519.52
568.87
626.81
686.29
740.96
787.15
823.81
851.42
880.35
919.95
973.30
1035.79
1098.52
1153.40
1195.79
1224.47
1180.36
1030.89
779.75
467.40
148.35
-135.98
-367.29
-545.01
-677.14
-766.87
-818.07
-831.63
-810.72
-763.84
-702.79
-638.02
-575.61
-516.86
-466.35
-419.37
-370.52
-318.39
-266.58
-221.48
-188.65
-170.61
-166.70
-173.85
-182.89
-184.69
-174.61
-153.58
-126.43
-98.92
-76.02
-61.74
-59.25
-67.67
-83.44
-101.32
-115.41
-120.94
-115.78
-101.80
-84.50
-70.49
-63.09
-60.52
-58.36
-51.67
-38.33
-19.95
-1.76
9.59
8.84
-5.36
-29.67
-57.02
-78.98
-89.33
-85.35
-68.82
-45.06
-20.92
-2.38
6.82
6.03
-2.69
-16.65
-32.48
-47.42
-59.87
-69.49
-76.97
-83.99
-92.50
-98.04
-98.93
-94.03
-83.60
-69.43
-53.87
-38.40
-23.50
-8.20
8.52
25.78
41.88
54.74
62.88
66.16
66.04
63.27
60.12
57.91
55.94
52.81
46.88
36.95
22.78
8.37
-4.84
-15.49
-22.71
-26.72
-28.09
-27.61
-26.17
-24.26
-21.60
-18.55
-14.84
-10.24
-4.83
1.25
7.95
15.01
20.48
25.90
31.50
37.62
44.57
52.94
62.94
74.62
87.18
100.09
113.25
125.70
136.89
146.61
155.27
163.20
170.71
177.25
182.59
186.83
188.90
188.00
183.60
176.10
164.54
152.31
140.11
128.43
117.60
105.80
92.05
76.47
62.40
51.41
44.14
39.24
36.05
34.06
29.17
18.75
2.68
-12.20
-22.76
-27.94
-29.83
-29.65
-28.63
-33.71
-49.20
-75.64
-102.64
-125.69
-143.65
-159.70
-175.62
-193.74
-223.26
-268.45
-328.84
-390.52
-447.06
-496.40
-541.93
-585.41
-581.43
-504.48
-354.42
-218.91
-123.48
-72.82
-42.96
-25.57
-15.37
-12.75
-25.64
-52.31
-89.00
-122.17
-145.95
-159.04
-165.39
-167.34
-171.54
-187.94
-213.33
-243.17
-266.92
-279.34
-278.70
-267.84
-216.32
-112.36
-15.24
50.27
94.91
128.34
156.05
180.93
202.62
221.08
230.94
227.01
215.85
202.02
187.75
173.58
159.32
144.39
130.26
115.99
101.52
93.59
93.63
97.32
99.03
94.38
81.21
60.07
30.21
-8.70
-52.44
-98.14
-143.65
-184.28
-214.02
-228.28
-225.37
-208.34
-182.44
-151.12
-117.86
-85.32
-54.57
-25.86
0.15
22.94
41.82
56.66
68.46
78.03
86.04
92.68
100.86
109.83
116.65
118.24
113.21
102.02
86.24
68.32
50.17
33.13
17.61
4.02
-7.06
-15.11
-19.91
-22.27
-21.24
-16.12
-6.31
8.21
27.64
52.05
81.12
113.82
144.59
170.04
188.28
199.14
203.53
203.25
200.19
195.61
189.76
182.13
172.93
162.35
151.16
140.38
131.06
124.02
119.79
118.66
120.51
124.60
128.08
126.31
114.40
89.78
54.18
13.61
-23.72
-50.83
-64.37
-66.00
-60.51
-53.20
-47.42
-43.95
-41.94
-40.31
-38.96
-38.51
-40.16
-44.48
-50.99
-58.14
-63.60
-65.37
-62.49
-55.39
-45.89
-36.62
-29.35
-24.64
-21.74
-19.51
-17.51
-16.30
-16.51
-17.20
-15.95
-8.73
7.28
31.06
57.13
77.60
85.95
80.54
65.54
47.62
33.23
24.87
20.30
14.48
3.06
-15.74
-40.76
-63.10
-79.18
-89.02
-95.25
-101.25
-109.01
-118.09
-126.73
-132.97
-135.24
-133.56
-127.55
-116.67
-101.00
-82.40
-64.55
-52.81
-51.12
-59.63
-75.10
-91.65
-104.05
-110.14
-113.58
-115.75
-118.02
-119.86
-118.81
-113.01
-102.00
-87.88
-74.21
-64.24
-59.86
-62.32
-71.63
-87.04
-107.22
-129.45
-149.46
-161.60
-160.76
-144.82
-116.18
-80.41
-43.74
-10.95
16.39
39.91
60.52
79.99
99.28
118.04
135.65
152.14
168.04
183.62
198.43
213.44
229.15
244.73
258.78
270.42
280.09
289.16
298.94
309.67
322.81
337.62
350.70
357.88
356.71
347.96
334.68
320.07
287.72
230.09
150.06
59.38
-28.68
-105.12
-166.17
-211.98
-245.09
-269.03
-283.97
-290.17
-289.09
-283.17
-274.87
-265.91
-257.22
-249.08
-241.33
-231.45
-216.43
-195.13
-168.14
-137.02
-103.37
-68.61
-33.92
-2.87
24.52
48.70
69.57
86.57
99.03
106.61
109.40
107.89
102.62
95.70
88.98
83.46
79.37
76.40
73.91
71.16
67.66
62.79
57.41
52.55
48.98
47.02
46.36
46.08
45.00
43.69
40.31
34.95
28.64
22.73
18.33
15.85
14.78
14.06
13.19
11.59
10.20
10.53
13.96
21.53
33.67
50.36
69.14
89.00
106.50
116.84
115.21
99.14
70.65
35.99
3.44
-20.12
-31.51
-32.59
-27.84
-21.94
-17.85
-15.82
-15.24
-15.83
-18.25
-23.45
-32.21
-44.04
-56.32
-67.44
-75.85
-81.06
-83.60
-84.53
-84.69
-84.67
-84.39
-83.46
-81.67
-78.92
-75.60
-72.27
-69.44
-67.18
-65.37
-63.78
-62.25
-61.09
-60.64
-61.17
-62.73
-64.87
-66.92
-68.30
-68.76
-68.55
-68.33
-68.77
-70.57
-74.56
-81.36
-90.76
-100.93
-108.22
-108.01
-96.73
-74.21
-43.48
-10.95
16.23
33.19
39.04
36.73
31.10
26.56
25.51
28.15
33.26
39.56
46.25
53.10
60.12
67.46
75.24
83.39
91.56
98.94
104.45
106.88
105.30
99.73
91.35
82.55
76.41
75.73
81.87
93.32
105.39
111.18
103.97
80.11
40.84
-7.54
-55.18
-91.13
-106.39
-96.33
-62.83
-14.18
37.04
77.60
98.01
95.80
76.03
47.96
23.18
8.78
5.61
10.05
17.53
25.04
31.61
37.09
40.35
39.45
32.46
18.95
0.87
-18.38
-35.60
-48.94
-58.64
-66.54
-74.35
-82.93
-91.63
-98.95
-103.29
-104.01
-101.74
-97.81
-94.26
-92.40
-93.06
-96.44
-101.91
-107.60
-110.03
-105.07
-89.71
-64.48
-32.81
-0.05
28.66
50.43
65.09
74.05
77.61
73.60
57.03
24.63
-22.21
-75.99
-125.06
-158.29
-169.70
-161.03
-136.47
-107.03
-84.04
-73.89
-75.45
-82.80
-90.51
-96.43
-101.27
-106.25
-112.98
-118.41
-117.61
-106.37
-83.09
-49.04
-7.28
39.31
89.42
137.61
180.15
214.63
239.93
255.72
262.04
259.15
247.90
229.82
206.58
181.29
157.02
136.04
119.19
105.96
95.01
85.05
75.09
64.52
53.91
44.18
36.11
29.98
25.54
22.11
19.12
16.10
12.68
9.04
5.59
2.67
0.59
-0.61
-1.08
-1.00
-0.55
-0.01
0.40
0.52
0.25
-0.30
0.06
0.59
0.71
0.13
-1.71
-5.46
-11.47
-19.84
-29.90
-41.75
-53.45
-63.61
-71.13
-75.22
-76.64
-75.86
-73.16
-67.87
-59.77
-48.60
-35.04
-19.66
-3.44
12.86
29.21
43.89
56.59
65.52
70.26
68.72
62.02
53.50
47.32
46.81
52.43
62.27
72.39
79.20
78.51
72.20
63.41
54.74
48.96
45.98
46.60
51.79
62.98
80.45
103.31
127.77
146.22
151.38
139.38
112.79
79.24
48.42
27.06
17.04
14.85
12.77
4.72
-11.05
-31.99
-54.86
-74.85
-91.09
-104.77
-117.66
-132.79
-151.31
-172.77
-195.96
-220.66
-247.88
-279.49
-316.43
-342.83
-347.57
-327.76
-289.89
-244.31
-199.62
-160.96
-131.15
-111.10
-100.07
-97.51
-99.82
-100.08
-90.04
-64.19
-22.76
27.61
77.03
116.50
139.88
147.18
143.37
135.29
127.83
122.45
117.83
112.48
106.22
99.54
93.78
90.33
89.96
92.62
97.74
104.91
113.93
123.88
132.22
135.47
130.54
116.26
94.28
68.71
44.63
26.26
15.04
9.83
8.25
8.45
10.28
14.97
24.21
38.82
58.00
78.54
96.62
109.35
115.62
116.17
112.43
105.57
95.96
83.60
67.87
49.37
30.15
13.03
-0.03
-9.35
-17.79
-29.21
-46.52
-72.10
-105.66
-144.49
-184.39
-221.28
-252.46
-277.15
-295.56
-297.28
-275.48
-229.14
-164.42
-91.53
-19.84
44.95
100.01
144.91
180.60
207.00
224.37
233.25
235.97
235.08
232.76
228.94
223.20
215.31
204.48
190.46
173.73
155.12
135.02
116.31
97.60
76.98
53.30
26.46
-2.14
-30.18
-55.22
-75.34
-89.72
-102.85
-119.51
-142.67
-172.39
-206.23
-240.56
-272.28
-299.44
-321.52
-344.34
-373.52
-412.19
-459.94
-514.36
-573.09
-634.46
-696.27
-726.21
-700.93
-613.51
-479.26
-326.27
-181.51
-62.59
23.59
79.15
111.91
126.45
126.52
114.94
95.28
71.52
48.96
31.96
23.08
22.73
25.63
26.35
21.11
9.84
-4.54
-17.76
-26.00
-26.53
-17.76
-4.58
8.61
18.66
24.90
28.79
32.95
39.78
50.93
66.77
85.18
103.77
120.21
133.35
143.56
152.45
162.24
174.99
191.83
211.98
234.12
256.16
276.20
293.41
308.52
323.55
341.13
363.64
392.46
428.50
470.37
514.13
554.00
583.81
598.52
595.54
574.92
538.87
492.21
438.83
380.40
316.72
247.32
173.56
99.80
32.98
-18.97
-48.08
-51.74
-34.62
-7.36
17.19
28.95
23.75
3.63
-36.15
-91.52
-152.48
-207.60
-249.60
-277.14
-291.73
-294.72
-286.83
-269.47
-244.07
-214.75
-187.11
-166.08
-153.77
-149.16
-149.04
-150.40
-151.80
-152.87
-155.73
-163.87
-178.59
-199.85
-226.09
-254.64
-281.89
-302.91
-311.24
-301.59
-272.26
-226.65
-173.10
-121.94
-81.72
-56.42
-44.00
-38.53
-34.01
-27.49
-19.31
-11.84
-6.88
-4.22
-1.86
3.64
14.63
31.11
50.68
69.32
83.40
91.23
93.46
92.35
92.05
96.11
106.79
124.96
150.32
181.59
216.85
253.40
278.74
282.71
259.82
212.92
153.16
94.66
48.47
19.09
4.46
-1.02
-1.05
3.03
11.32
23.97
38.98
53.15
64.28
71.22
73.97
75.18
77.51
81.70
86.91
89.68
86.29
75.95
59.08
36.91
12.98
-8.82
-26.16
-37.91
-46.16
-53.70
-60.32
-66.50
-73.94
-83.63
-90.73
-93.84
-93.10
-91.96
-93.95
-97.99
-103.23
-109.46
-114.60
-116.08
-112.56
-90.50
-44.09
4.53
45.27
81.05
110.92
133.64
147.11
150.06
144.23
131.99
116.92
104.86
96.70
88.07
74.19
50.26
15.66
-24.95
-65.70
-101.59
-128.44
-147.12
-161.83
-175.51
-192.37
-213.77
-237.88
-261.91
-283.41
-299.81
-310.92
-317.97
-321.39
-325.94
-335.10
-350.07
-370.39
-395.93
-427.40
-466.77
-516.02
-543.87
-531.24
-478.09
-402.48
-324.36
-253.17
-187.45
-121.83
-53.37
16.03
75.59
115.18
130.78
126.66
111.38
92.12
74.24
59.63
48.94
39.24
29.19
19.90
14.56
14.94
20.03
27.26
34.38
41.59
49.31
60.40
74.07
90.68
108.83
125.38
136.76
140.93
138.40
130.94
121.82
114.93
114.89
124.80
144.70
170.36
193.44
203.66
192.48
157.75
105.61
49.07
1.89
-27.25
-38.05
-37.45
-35.02
-37.69
-46.96
-59.63
-70.51
-76.25
-76.61
-73.75
-70.27
-67.59
-65.36
-61.92
-55.42
-44.49
-29.18
-10.81
8.43
26.34
41.47
53.86
65.14
78.08
95.91
121.31
155.92
200.03
252.22
308.67
362.72
405.46
427.75
423.49
392.80
343.44
289.21
245.31
222.65
223.54
240.80
260.69
268.25
252.55
210.48
147.19
74.12
5.23
-47.01
-74.60
-75.01
-50.20
-4.82
55.13
122.44
188.52
243.54
277.87
284.94
263.84
220.30
164.74
108.09
57.00
11.35
-34.89
-89.38
-156.08
-232.00
-307.22
-368.82
-405.88
-413.49
-393.49
-352.17
-296.94
-234.18
-169.98
-111.73
-68.40
-48.25
-54.40
-81.63
-116.77
-143.35
-147.94
-124.99
-77.44
-14.28
53.24
114.83
162.74
192.13
201.23
191.51
167.02
133.14
94.69
54.62
14.06
-27.00
-68.34
-109.27
-148.20
-182.80
-209.72
-224.84
-224.06
-204.67
-167.03
-115.17
-55.87
3.42
56.95
102.33
141.00
177.42
217.26
264.63
319.74
377.59
428.65
461.79
468.58
446.42
399.12
335.25
265.16
198.51
143.07
104.32
84.61
81.85
88.99
95.36
90.97
71.76
43.04
18.09
11.96
33.53
80.14
138.29
189.83
220.35
225.16
209.65
184.78
160.91
143.15
130.38
117.81
101.15
79.97
57.99
40.86
32.44
32.25
35.18
33.67
21.59
-3.04
-37.44
-76.43
-115.66
-153.42
-189.52
-222.19
-245.83
-251.93
-233.24
-189.22
-128.46
-66.32
-19.09
2.83
-1.79
-25.69
-57.66
-87.60
-109.74
-123.34
-131.37
-138.87
-151.98
-177.43
-221.24
-286.32
-370.28
-464.18
-553.96
-624.53
-664.76
-671.39
-649.42
-609.53
-563.17
-518.32
-477.75
-439.65
-400.24
-356.20
-305.95
-250.39
-193.46
-142.14
-105.79
-93.16
-108.50
-148.47
-202.11
-254.37
-291.78
-307.39
-302.23
-282.80
-256.65
-228.52
-199.60
-169.30
-137.85
-107.47
-81.42
-61.62
-46.97
-33.48
-16.07
8.55
40.20
75.27
108.21
134.13
150.94
160.11
165.87
173.77
188.93
214.53
250.42
292.55
332.71
359.74
362.29
332.81
271.21
186.28
93.91
12.11
-44.85
-70.78
-68.37
-46.39
-15.44
16.20
44.23
67.99
88.86
109.04
131.23
158.35
192.58
233.73
277.30
313.97
331.72
320.12
275.23
202.55
116.40
35.44
-23.58
-50.87
-45.79
-15.29
29.67
77.98
121.16
154.25
175.87
187.43
192.29
194.19
195.81
197.45
196.81
190.16
174.43
149.49
118.67
87.77
62.53
46.57
40.09
40.38
43.47
45.79
45.60
42.98
39.41
36.50
35.29
35.82
37.57
40.06
43.08
46.52
49.71
51.17
48.82
41.04
27.75
10.93
-5.93
-19.32
-27.13
-29.61
-28.91
-27.89
-28.78
-32.37
-37.97
-44.04
-49.10
-52.17
-53.14
-52.38
-50.52
-48.06
-45.26
-42.21
-38.89
-35.28
-31.25
-26.81
-22.04
-17.21
-12.66
-8.60
-5.00
-1.47
2.46
7.18
12.55
17.95
22.55
25.62
26.91
26.62
25.26
23.23
20.82
18.12
15.35
13.01
11.67
11.78
13.10
14.81
15.65
14.62
11.25
5.92
-0.46
-6.87
-12.40
-16.59
-19.17
-20.05
-19.12
-16.36
-11.85
-5.97
0.60
7.10
12.72
16.96
19.61
20.86
21.06
20.59
19.69
18.35
16.49
13.92
10.65
6.81
2.62
-1.74
-6.28
-11.15
-16.62
-22.63
-28.77
-34.07
-37.31
-37.51
-34.21
-27.73
-18.90
-8.88
1.10
9.66
15.37
17.08
14.51
8.74
2.03
-2.83
-3.91
-0.96
4.72
11.21
17.39
23.32
29.59
36.05
41.45
44.27
44.17
42.50
41.43
41.99
42.72
40.18
31.36
16.65
1.09
-7.23
-0.82
23.54
63.35
111.55
159.72
200.70
229.90
244.80
244.06
226.98
193.61
145.83
88.01
26.71
-30.88
-79.21
-116.01
-142.64
-162.72
-179.92
-196.02
-210.61
-222.29
-230.56
-236.77
-243.22
-251.02
-258.39
-260.83
-253.12
-232.43
-199.84
-159.59
-116.41
-72.92
-29.33
15.12
59.72
100.98
133.22
151.03
151.67
135.77
106.15
66.18
19.14
-31.75
-82.39
-127.44
-161.01
-178.75
-179.96
-168.33
-150.58
-133.27
-120.08
-110.43
-100.56
-85.87
-63.98
-36.59
-8.88
12.53
22.90
21.67
12.98
4.08
2.78
14.67
41.81
82.25
130.24
177.48
214.54
232.87
226.44
193.23
136.46
64.54
-10.19
-74.79
-119.23
-139.09
-136.23
-116.91
-88.60
-56.78
-23.94
9.53
43.13
75.01
102.66
125.30
145.92
170.52
205.03
251.17
304.38
355.22
393.66
413.33
413.97
400.02
377.31
350.21
320.37
287.62
251.79
214.04
176.63
142.05
111.37
84.13
59.38
36.82
16.99
0.94
-10.43
-16.93
-19.01
-18.61
-18.40
-20.32
-24.82
-31.14
-38.12
-44.98
-51.72
-58.64
-67.56
-81.47
-103.47
-135.87
-179.47
-232.73
-290.90
-348.01
-390.39
-405.20
-389.51
-352.56
-309.29
-271.79
-245.29
-226.84
-211.03
-192.99
-171.40
-147.54
-122.35
-94.80
-62.24
-22.58
23.59
71.93
115.11
143.73
149.62
128.75
83.13
19.69
-52.40
-122.34
-178.98
-212.86
-219.02
-197.79
-154.39
-96.92
-35.39
18.06
52.82
63.13
48.94
16.47
-22.44
-53.62
-64.71
-50.09
-14.64
31.07
77.12
117.43
151.46
183.08
210.90
231.61
250.55
265.97
262.55
232.02
175.94
106.30
40.06
-9.66
-38.16
-48.66
-51.84
-55.72
-62.85
-73.57
-88.17
-108.35
-136.42
-172.51
-212.95
-251.72
-276.21
-274.64
-244.33
-194.03
-139.15
-93.95
-65.29
-52.27
-50.53
-55.10
-62.93
-73.53
-86.85
-101.08
-112.90
-118.88
-116.85
-107.68
-94.35
-80.86
-70.74
-65.26
-62.72
-59.97
-53.62
-41.39
-22.51
2.56
32.07
62.80
87.23
98.03
89.62
60.91
17.11
-31.10
-70.93
-92.39
-91.66
-71.64
-39.00
-1.03
37.14
73.12
106.17
135.78
161.00
181.08
196.70
210.93
228.12
252.16
283.98
320.21
353.51
374.86
377.17
358.12
321.55
275.73
230.14
191.83
163.18
142.03
123.60
103.23
78.44
49.67
19.48
-8.93
-33.23
-52.80
-68.53
-81.86
-93.52
-102.87
-108.39
-108.64
-103.54
-94.78
-85.34
-78.29
-75.32
-76.16
-78.94
-81.49
-82.38
-81.38
-79.15
-76.43
-73.65
-70.70
-67.14
-62.50
-56.95
-51.26
-46.52
-43.82
-43.65
-46.12
-50.28
-54.17
-55.19
-51.82
-44.34
-34.94
-26.54
-21.31
-19.89
-20.35
-19.03
-11.90
1.99
20.40
39.12
54.63
65.57
72.00
75.13
75.78
74.21
67.69
52.57
26.56
-9.65
-53.21
-102.29
-156.04
-213.87
-272.70
-328.44
-375.23
-406.75
-418.25
-401.41
-356.60
-292.75
-231.99
-183.47
-148.09
-120.59
-96.88
-74.06
-50.62
-26.86
-2.40
24.53
57.77
98.39
144.10
189.27
227.10
251.73
259.35
250.42
229.64
204.99
182.77
166.22
155.35
148.48
143.50
138.24
131.50
123.00
113.63
103.48
92.27
79.58
65.65
51.28
37.38
24.89
14.58
7.11
2.28
-0.70
-2.76
-4.50
-6.04
-7.26
-7.95
-8.03
-7.54
-6.85
-6.41
-6.61
-7.50
-8.94
-10.66
-12.49
-14.46
-16.68
-19.33
-22.36
-25.50
-28.24
-30.00
-30.34
-29.16
-26.72
-23.57
-20.29
-17.38
-15.02
-13.18
-11.70
-10.42
-9.33
-8.55
-8.26
-8.58
-9.46
-10.69
-11.98
-13.06
-13.78
-14.06
-13.98
-13.56
-12.83
-11.81
-10.55
-9.22
-8.07
-7.41
-7.49
-8.36
-9.85
-11.57
-12.99
-13.58
-12.97
-10.95
-7.52
-2.79
2.94
9.28
15.71
21.71
26.79
30.62
33.09
34.29
34.41
33.72
32.42
30.71
28.76
26.73
24.76
22.94
21.22
19.51
17.63
15.49
13.10
10.60
8.26
6.32
5.03
4.54
4.89
5.95
7.48
9.23
11.02
12.82
14.70
16.83
19.51
22.96
27.20
32.04
37.23
42.50
47.73
52.89
57.96
63.06
68.03
72.26
74.81
74.86
72.11
67.08
60.88
54.90
50.58
48.79
49.66
52.48
55.88
58.05
56.97
50.80
36.76
14.49
-13.30
-41.25
-63.69
-77.10
-81.08
-77.27
-67.84
-54.28
-37.26
-17.32
4.53
26.41
46.18
62.20
74.08
82.54
89.15
95.24
101.22
106.33
108.82
106.91
99.78
88.37
75.05
63.05
54.61
50.40
49.05
47.51
42.30
30.92
12.75
-11.51
-36.67
-59.67
-79.65
-97.95
-117.17
-139.84
-167.26
-199.09
-234.27
-269.53
-301.08
-323.20
-328.96
-312.29
-270.61
-206.61
-128.36
-47.72
25.93
85.04
126.37
149.85
156.28
145.88
118.55
75.71
20.75
-35.13
-79.76
-101.74
-95.03
-62.29
-15.21
29.45
55.84
53.18
25.10
-18.88
-66.04
-106.25
-136.20
-159.64
-184.27
-203.25
-234.34
-269.56
-298.57
-310.38
-297.72
-259.07
-198.38
-122.93
-40.73
38.73
110.86
169.25
208.54
226.75
227.56
220.66
219.02
233.31
265.02
309.13
351.36
375.87
371.61
336.23
275.94
201.75
124.45
50.30
-17.06
-78.91
-138.66
-199.68
-263.91
-330.81
-396.74
-455.73
-501.55
-528.72
-536.20
-527.31
-508.10
-484.36
-459.32
-432.61
-401.47
-363.00
-315.31
-258.30
-192.64
-119.22
-39.34
44.23
126.80
202.17
264.51
310.28
339.37
354.58
359.61
356.94
346.37
325.35
290.34
239.21
173.25
98.17
23.92
-37.37
-74.22
-78.83
-48.74
12.51
96.27
190.48
280.97
353.21
394.12
394.94
354.34
280.91
192.39
111.21
56.57
36.67
45.03
63.24
69.53
49.15
1.57
-60.03
-115.42
-147.29
-148.81
-125.09
-89.27
-55.80
-35.42
-33.33
-50.03
-82.80
-126.64
-174.79
-219.34
-252.98
-270.81
-271.35
-256.27
-229.20
-194.44
-156.07
-117.37
-79.94
-43.44
-5.79
34.96
78.28
119.56
150.98
164.87
157.86
133.12
98.74
63.96
35.12
14.30
1.02
-4.72
-0.65
16.62
48.27
89.89
130.83
157.00
156.73
126.43
73.47
14.64
-29.79
-42.97
-17.60
41.76
120.67
199.87
261.16
291.92
287.16
248.99
185.22
107.28
28.22
-39.21
-84.64
-101.79
-89.97
-54.55
-6.25
41.15
74.32
84.37
69.69
36.32
-4.44
-40.73
-64.29
-72.79
-68.95
-57.69
-43.14
-27.90
-14.48
-6.47
-8.34
-23.26
-50.87
-86.44
-122.75
-152.74
-171.28
-175.11
-161.41
-127.36
-71.74
2.07
83.99
158.39
208.33
221.64
195.21
136.12
58.91
-19.07
-82.46
-121.08
-131.08
-115.03
-79.98
-35.01
11.57
54.22
91.56
125.95
161.89
203.52
252.11
304.73
354.28
391.22
406.39
393.99
353.84
292.10
220.69
155.13
111.08
99.67
123.24
173.37
232.60
280.06
299.01
282.92
237.04
174.95
111.71
57.31
13.96
-22.81
-59.95
-102.89
-153.49
-210.05
-267.98
-320.70
-360.56
-380.58
-377.25
-353.20
-317.70
-284.70
-267.87
-274.66
-303.02
-341.88
-375.73
-390.83
-380.55
-347.52
-302.00
-257.45
-224.94
-208.87
-205.32
-204.33
-195.04
-171.35
-135.81
-98.55
-73.04
-69.65
-91.02
-130.87
-176.62
-214.27
-233.04
-228.43
-201.91
-159.70
-110.19
-61.58
-19.63
13.18
37.60
57.17
75.58
96.02
119.79
146.54
174.91
202.84
227.28
243.53
246.30
229.49
192.50
142.43
93.48
61.79
57.30
77.66
107.54
127.54
120.30
84.38
34.06
-7.84
-21.63
-0.40
47.78
104.95
154.65
181.48
181.73
158.78
119.39
71.16
21.41
-22.08
-51.63
-57.60
-40.64
-3.01
48.67
106.08
162.35
214.05
260.70
281.43
300.20
309.88
306.20
286.40
250.82
203.03
148.39
92.40
39.70
-2.54
-34.35
-53.31
-59.45
-56.84
-53.40
-58.40
-78.18
-112.35
-150.44
-182.02
-194.13
-178.80
-136.58
-76.59
-13.81
35.16
56.76
45.91
3.13
-60.85
-129.46
-185.05
-213.82
-209.66
-175.42
-121.18
-60.09
-6.58
29.11
41.97
32.47
5.88
-29.17
-62.80
-86.00
-92.67
-81.77
-56.87
-25.08
5.14
26.49
34.68
29.33
13.53
-7.66
-28.60
-44.13
-49.92
-42.75
-21.06
13.98
57.50
101.19
134.97
150.42
143.89
118.13
80.97
42.01
8.96
-14.28
-27.19
-30.98
-27.14
-17.43
-4.71
6.60
11.53
6.75
-7.63
-27.60
-47.03
-60.13
-63.82
-58.26
-45.99
-30.23
-13.67
1.94
15.49
26.14
33.29
36.60
36.14
32.29
25.66
16.96
6.87
-3.82
-14.28
-23.47
-30.26
-33.52
-32.45
-27.07
-18.42
-8.64
-0.32
4.42
4.72
1.26
-4.22
-9.70
-13.67
-15.35
-14.73
-12.15
-8.09
-3.19
1.71
5.59
7.60
7.24
4.74
0.92
-2.99
-5.86
-6.95
-6.06
-3.56
-0.17
3.14
5.53
6.42
5.72
3.87
1.65
-0.08
-0.67
0.13
2.08
4.55
6.72
7.73
7.06
4.53
0.55
-4.10
-8.42
-11.52
-12.89
-12.57
-11.07
-9.08
-7.31
-6.21
-5.95
-6.37
-7.08
-7.64
-7.63
-6.87
-5.35
-3.30
-1.01
1.21
3.14
4.69
5.86
6.82
7.74
8.79
10.01
11.31
12.45
13.12
13.06
12.16
10.51
8.27
5.70
3.03
0.59
-1.23
-2.11
-1.91
-0.87
0.48
1.45
1.57
0.73
-0.75
-2.30
-3.43
-3.91
-3.84
-3.46
-3.00
-2.53
-1.96
-1.27
-0.47
0.22
0.52
0.10
-1.11
-2.95
-4.99
-6.60
-7.38
-7.19
-6.37
-5.43
-4.87
-4.86
-5.16
-5.40
-5.18
-4.48
-3.47
-2.45
-1.51
-0.57
0.58
2.08
3.79
5.43
6.60
7.09
6.86
6.04
4.83
3.44
2.06
0.87
0.03
-0.44
-0.56
-0.46
-0.34
-0.32
-0.39
-0.42
-0.30
0.10
0.62
1.07
1.14
0.74
-0.07
-1.09
-2.05
-2.84
-3.41
-3.85
-4.25
-4.65
-5.07
-5.43
-5.73
-5.96
-6.18
-6.39
-6.54
-6.48
-6.03
-5.07
-3.54
-1.59
0.49
2.32
3.51
3.86
3.40
2.44
1.40
0.77
0.78
1.42
2.39
3.29
3.73
3.54
2.71
1.42
-0.12
-1.78
-3.45
-5.08
-6.53
-7.60
-8.09
-7.90
-7.13
-6.00
-4.84
-3.81
-2.92
-2.05
-1.08
0.00
1.12
2.07
2.75
3.14
3.36
3.57
3.90
4.40
4.99
5.58
6.07
6.42
6.64
6.76
6.86
7.01
7.21
7.44
7.62
7.61
7.36
6.84
6.05
5.02
3.77
2.37
0.91
-0.46
-1.63
-2.57
-3.29
-3.92
-4.49
-4.97
-5.18
-4.99
-4.26
-3.11
-1.76
-0.42
0.72
1.66
2.42
2.99
3.26
3.18
2.82
2.40
2.25
2.58
3.41
4.47
5.40
5.94
6.06
5.86
5.50
5.02
4.38
3.50
2.33
1.02
-0.24
-1.23
-1.78
-1.88
-1.57
-1.02
-0.45
-0.07
-0.03
-0.34
-0.91
-1.52
-2.02
-2.33
-2.53
-2.80
-3.27
-3.99
-4.81
-5.52
-5.87
-5.82
-5.43
-4.96
-4.64
-4.60
-4.84
-5.22
-5.54
-5.58
-5.21
-4.39
-3.14
-1.56
0.26
2.13
3.83
5.06
5.58
5.29
4.34
3.04
1.79
0.89
0.44
0.37
0.48
0.61
0.70
0.77
0.96
1.30
1.78
2.23
2.51
2.44
1.95
1.06
-0.07
-1.19
-2.09
-2.60
-2.76
-2.67
-2.49
-2.27
-2.03
-1.79
-1.58
-1.51
-1.60
-1.79
-1.99
-2.10
-2.13
-2.10
-2.09
-2.12
-2.13
-1.97
-1.55
-0.87
-0.02
0.80
1.53
2.10
2.60
3.05
3.40
3.55
3.40
3.02
2.63
2.58
3.08
4.10
5.31
6.21
6.43
5.83
4.63
3.17
1.78
0.61
-0.29
-0.91
-1.24
-1.25
-0.94
-0.40
0.24
0.89
1.51
2.11
2.74
3.38
3.96
4.31
4.25
3.60
2.28
0.39
-1.79
-3.81
-5.25
-5.87
-5.72
-5.08
-4.37
-3.87
-3.70
-3.78
-3.92
-4.00
-3.96
-3.81
-3.61
-3.43
-3.34
-3.36
-3.49
-3.65
-3.71
-3.43
-2.61
-1.22
0.49
2.00
2.74
2.32
0.82
-1.32
-3.38
-4.81
-5.41
-5.37
-5.17
-5.21
-5.63
-6.28
-6.91
-7.36
-7.69
-8.17
-8.98
-10.18
-11.58
-12.77
-13.29
-12.82
-11.23
-8.74
-5.76
-2.74
-0.13
1.81
2.96
3.34
3.05
2.24
1.11
-0.12
-1.15
-1.77
-1.85
-1.57
-1.32
-1.58
-2.72
-4.73
-7.25
-9.57
-11.03
-11.08
-9.55
-6.55
-2.42
2.36
7.29
11.78
15.40
17.82
19.05
19.42
19.40
19.51
20.08
21.24
22.80
24.44
25.63
25.79
24.45
21.34
16.70
11.20
5.92
1.96
0.19
0.83
3.38
6.74
9.49
10.44
8.93
5.12
-0.11
-5.49
-9.84
-12.47
-13.24
-12.54
-10.87
-8.69
-6.32
-4.08
-2.33
-1.47
-1.81
-3.31
-5.70
-8.51
-11.40
-14.22
-16.89
-19.20
-20.63
-20.69
-19.14
-16.40
-13.36
-11.01
-9.89
-9.88
-10.28
-10.31
-9.59
-8.16
-6.49
-4.96
-3.78
-2.84
-1.96
-1.07
-0.27
0.21
0.27
-0.04
-0.39
-0.28
0.71
2.75
5.57
8.60
11.07
12.37
12.22
10.81
8.70
6.56
5.04
4.49
4.99
6.27
7.90
9.37
10.28
10.52
10.12
9.33
8.36
7.40
6.57
5.96
5.72
5.95
6.71
7.83
9.01
9.92
10.32
10.21
9.77
9.30
8.93
8.64
8.18
7.27
5.77
3.78
1.66
-0.16
-1.32
-1.77
-1.68
-1.48
-1.49
-1.90
-2.71
-3.73
-4.77
-5.65
-6.38
-6.97
-7.46
-7.89
-8.24
-8.57
-8.82
-8.98
-8.91
-8.48
-7.67
-6.57
-5.43
-4.56
-4.13
-4.11
-4.31
-4.45
-4.31
-3.87
-3.19
-2.47
-1.86
-1.48
-1.32
-1.34
-1.38
-1.29
-1.04
-0.67
-0.39
-0.37
-0.77
-1.55
-2.55
-3.46
-3.98
-3.94
-3.29
-2.18
-0.89
0.24
0.91
0.90
0.20
-1.07
-2.68
-4.35
-5.89
-7.11
-7.93
-8.24
-8.05
-7.42
-6.49
-5.47
-4.47
-3.61
-2.90
-2.32
-1.86
-1.56
-1.48
-1.58
-1.87
-2.31
-2.97
-3.98
-5.35
-6.99
-8.57
-9.77
-10.27
-10.09
-9.50
-8.93
-8.81
-9.31
-10.36
-11.55
-12.40
-12.41
-11.35
-9.18
-6.21
-2.91
0.26
2.89
4.94
6.53
7.93
9.31
10.74
12.13
13.33
14.24
14.75
14.93
14.82
14.56
14.22
13.87
13.55
13.19
12.75
12.14
11.44
10.67
9.95
9.35
8.81
8.28
7.64
6.90
5.99
4.92
3.63
2.08
0.27
-1.67
-3.45
-4.84
-5.67
-6.04
-6.20
-6.54
-7.33
-8.63
-10.29
-11.96
-13.30
-14.04
-14.10
-13.49
-12.34
-10.87
-9.21
-7.58
-6.08
-4.89
-4.12
-3.89
-4.20
-4.78
-5.16
-4.72
-3.11
-0.27
3.31
6.84
9.54
10.92
10.99
10.09
8.79
7.48
6.43
5.66
5.10
4.75
4.56
4.52
4.57
4.63
4.56
4.32
4.00
3.73
3.79
4.27
5.17
6.14
6.81
6.86
6.26
5.24
4.23
3.65
3.66
4.19
4.88
5.34
5.31
4.69
3.60
2.26
1.00
0.05
-0.38
-0.31
0.09
0.59
0.94
0.99
0.66
-0.01
-0.99
-2.14
-3.30
-4.21
-4.71
-4.82
-4.73
-4.74
-5.08
-5.66
-6.09
-5.92
-4.85
-3.03
-0.99
0.67
1.44
1.33
0.75
0.34
0.58
1.49
2.62
3.26
2.93
1.50
-0.56
-2.62
-4.02
-4.51
-4.19
-3.39
-2.43
-1.38
-0.19
1.25
2.92
4.59
5.91
6.56
6.38
5.36
3.84
2.21
0.86
0.05
-0.21
-0.08
0.20
0.42
0.44
0.27
-0.12
-0.73
-1.53
-2.42
-3.20
-3.68
-3.70
-3.34
-2.84
-2.60
-2.86
-3.66
-4.70
-5.46
-5.55
-4.82
-3.60
-2.56
-2.29
-3.03
-4.48
-5.96
-6.65
-6.07
-4.29
-1.84
0.50
2.13
2.77
2.58
1.89
1.15
0.52
-0.03
-0.67
-1.60
-2.82
-4.09
-4.95
-4.99
-3.99
-2.16
0.01
1.96
3.28
3.98
4.24
4.40
4.57
4.68
4.57
4.15
3.58
3.08
2.85
2.85
2.87
2.62
1.95
1.00
0.15
-0.20
0.08
0.84
1.61
1.99
1.76
1.07
0.33
-0.10
-0.05
0.26
0.48
0.20
-0.68
-1.93
-3.09
-3.66
-3.36
-2.25
-0.76
0.61
1.37
1.30
0.53
-0.62
-1.64
-2.06
-1.49
0.29
3.25
7.02
11.06
14.68
17.24
18.37
17.92
16.07
13.08
9.30
5.10
0.93
-2.61
-5.02
-5.89
-5.29
-3.64
-1.72
-0.29
0.18
-0.34
-1.41
-2.49
-3.09
-3.08
-2.60
-1.97
-1.43
-1.06
-0.80
-0.54
-0.30
-0.21
-0.45
-1.10
-2.08
-3.23
-4.30
-5.19
-5.79
-6.11
-6.10
-5.74
-5.09
-4.27
-3.52
-3.07
-3.13
-3.59
-4.25
-4.72
-4.74
-4.24
-3.38
-2.50
-1.88
-1.71
-1.92
-2.36
-2.84
-3.23
-3.51
-3.64
-3.59
-3.24
-2.54
-1.51
-0.31
0.85
1.88
2.77
3.71
4.73
5.87
6.89
7.55
7.65
7.16
6.21
5.02
3.86
2.90
2.30
2.05
2.07
2.23
2.33
2.31
2.11
1.79
1.40
1.06
0.80
0.66
0.63
0.68
0.80
0.85
0.78
0.50
-0.03
-0.74
-1.55
-2.29
-2.83
-3.05
-2.92
-2.49
-1.93
-1.45
-1.25
-1.48
-2.12
-3.04
-3.99
-4.78
-5.27
-5.47
-5.49
-5.40
-5.24
-5.02
-4.78
-4.55
-4.39
-4.22
-3.85
-3.02
-1.50
0.69
3.25
5.56
7.07
7.40
6.60
5.03
3.22
1.69
0.70
0.24
0.07
-0.09
-0.45
-1.03
-1.69
-2.24
-2.45
-2.25
-1.70
-0.94
-0.17
0.42
0.69
0.59
0.07
-0.80
-1.97
-3.29
-4.57
-5.58
-6.10
-6.03
-5.36
-4.29
-3.06
-1.98
-1.20
-0.76
-0.53
-0.34
-0.07
0.31
0.62
0.70
0.34
-0.51
-1.83
-3.50
-5.25
-6.76
-7.59
-7.48
-6.37
-4.57
-2.56
-0.83
0.34
0.98
1.30
1.59
1.94
2.35
2.77
3.20
3.72
4.35
5.02
5.52
5.68
5.48
5.18
5.14
5.62
6.69
8.12
9.57
10.64
11.08
10.79
9.79
8.26
6.38
4.46
2.76
1.60
1.07
1.14
1.54
1.93
1.97
1.44
0.39
-0.97
-2.26
-3.25
-3.79
-3.99
-4.11
-4.38
-5.01
-5.99
-7.23
-8.49
-9.57
-10.38
-10.83
-10.99
-10.71
-9.88
-8.30
-5.96
-3.07
0.00
2.82
5.14
6.81
7.90
8.41
8.35
7.62
6.18
4.19
1.99
0.09
-1.08
-1.19
-0.29
1.37
3.34
5.11
6.31
6.70
6.33
5.33
4.04
2.69
1.48
0.49
-0.27
-0.80
-1.14
-1.31
-1.39
-1.36
-1.22
-0.92
-0.48
0.02
0.45
0.68
0.71
0.61
0.53
0.56
0.65
0.67
0.41
-0.16
-1.04
-2.01
-2.92
-3.67
-4.24
-4.69
-4.97
-5.06
-4.86
-4.42
-3.83
-3.31
-3.06
-3.20
-3.76
-4.65
-5.77
-6.92
-7.86
-8.34
-8.15
-7.27
-5.82
-4.21
-2.79
-1.90
-1.54
-1.55
-1.59
-1.33
-0.67
0.33
1.42
2.45
3.29
3.95
4.43
4.64
4.55
4.12
3.45
2.69
2.06
1.62
1.34
1.08
0.77
0.43
0.18
0.18
0.43
0.89
1.43
1.99
2.62
3.35
4.22
5.07
5.75
6.00
5.70
4.85
3.57
2.12
0.67
-0.60
-1.71
-2.68
-3.58
-4.37
-4.94
-5.15
-4.93
-4.41
-3.75
-3.23
-2.97
-2.97
-3.11
-3.28
-3.47
-3.64
-3.85
-3.98
-3.98
-3.74
-3.26
-2.67
-2.14
-1.83
-1.73
-1.79
-1.89
-1.94
-1.89
-1.71
-1.40
-0.92
-0.31
0.46
1.23
1.86
2.19
2.13
1.65
0.85
-0.09
-0.95
-1.50
-1.67
-1.48
-1.04
-0.54
-0.05
0.37
0.81
1.26
1.71
2.00
2.04
1.78
1.23
0.53
-0.24
-0.94
-1.54
-2.02
-2.41
-2.64
-2.62
-2.24
-1.34
0.05
1.82
3.64
5.12
5.93
5.88
5.06
3.71
2.27
1.04
0.24
-0.11
-0.13
0.08
0.43
0.95
1.60
2.37
3.07
3.51
3.57
3.26
2.82
2.46
2.36
2.49
2.71
2.78
2.55
1.99
1.20
0.44
-0.07
-0.15
0.20
0.85
1.61
2.24
2.63
2.74
2.62
2.26
1.71
0.93
-0.05
-1.13
-2.13
-2.79
-2.98
-2.67
-2.01
-1.20
-0.46
0.09
0.52
0.96
1.54
2.17
2.63
2.56
1.74
0.22
-1.73
-3.61
-5.03
-5.79
-6.00
-5.91
-5.82
-5.84
-5.87
-5.70
-5.04
-3.84
-2.17
-0.36
1.16
2.06
2.15
1.52
0.39
-0.92
-2.24
-3.46
-4.56
-5.56
-6.39
-7.02
-7.44
-7.72
-7.91
-8.01
-7.87
-7.23
-5.95
-4.05
-1.72
0.71
2.90
4.66
5.95
6.93
7.84
8.80
9.81
10.61
10.91
10.48
9.34
7.74
6.10
4.86
4.20
4.11
4.36
4.73
5.10
5.50
5.95
6.43
6.76
6.64
5.83
4.17
1.76
-0.99
-3.44
-5.00
-5.29
-4.41
-2.92
-1.60
-1.18
-1.97
-3.77
-6.07
-8.29
-10.01
-11.05
-11.46
-11.26
-10.61
-9.65
-8.58
-7.64
-6.96
-6.57
-6.18
-5.44
-4.03
-1.94
0.45
2.52
3.65
3.54
2.29
0.50
-1.05
-1.60
-0.81
1.21
3.95
6.70
8.94
10.38
11.06
11.13
10.71
9.77
8.23
6.06
3.40
0.72
-1.48
-2.79
-3.12
-2.77
-2.19
-1.78
-1.67
-1.78
-1.88
-1.91
-1.89
-2.01
-2.34
-2.81
-3.24
-3.44
-3.39
-3.21
-3.13
-3.31
-3.76
-4.31
-4.67
-4.71
-4.37
-3.82
-3.33
-3.13
-3.36
-3.90
-4.52
-4.85
-4.70
-4.03
-3.08
-2.19
-1.59
-1.30
-1.16
-0.98
-0.62
-0.16
0.31
0.66
0.84
0.89
0.89
0.91
0.95
1.01
1.05
1.08
1.18
1.41
1.92
2.76
3.96
5.41
6.93
8.21
9.00
9.18
8.76
7.94
6.86
5.67
4.40
3.13
1.99
1.24
1.14
1.71
2.77
3.85
4.58
4.80
4.67
4.57
4.88
5.72
6.84
7.86
8.31
8.01
6.98
5.47
3.81
2.36
1.34
0.75
0.49
0.26
-0.24
-1.11
-2.30
-3.53
-4.54
-5.18
-5.54
-5.80
-6.18
-6.71
-7.22
-7.55
-7.51
-7.11
-6.45
-5.68
-4.88
-4.09
-3.31
-2.54
-1.90
-1.47
-1.38
-1.61
-2.01
-2.39
-2.60
-2.58
-2.36
-2.02
-1.63
-1.24
-0.86
-0.48
-0.08
0.39
0.90
1.39
1.69
1.67
1.20
0.31
-0.81
-1.86
-2.52
-2.63
-2.14
-1.22
-0.05
1.16
2.25
3.12
3.64
3.73
3.29
2.32
0.92
-0.66
-2.12
-3.15
-3.55
-3.32
-2.64
-1.90
-1.52
-1.84
-2.96
-4.70
-6.55
-7.92
-8.33
-7.48
-5.48
-2.72
0.16
2.52
3.91
4.19
3.63
2.68
1.90
1.55
1.69
2.03
2.19
1.95
1.22
0.29
-0.47
-0.64
-0.06
1.19
2.80
4.31
5.39
5.83
5.72
5.19
4.45
3.57
2.54
1.39
0.13
-1.05
-2.05
-2.72
-3.08
-3.20
-3.15
-2.92
-2.44
-1.76
-0.93
-0.19
0.28
0.39
0.18
-0.24
-0.75
-1.24
-1.69
-2.06
-2.41
-2.80
-3.27
-3.81
-4.34
-4.72
-4.80
-4.58
-4.11
-3.59
-3.19
-2.97
-2.88
-2.72
-2.36
-1.73
-1.01
-0.45
-0.29
-0.64
-1.32
-2.05
-2.42
-2.21
-1.37
-0.11
1.26
2.48
3.42
4.15
4.74
5.30
5.73
5.86
5.54
4.74
3.67
2.64
2.01
1.89
2.27
2.94
3.63
4.27
4.84
5.42
6.01
6.52
6.74
6.58
6.14
5.62
5.36
5.47
5.86
6.18
6.04
5.20
3.75
2.11
0.88
0.59
1.31
2.72
4.10
4.72
4.17
2.53
0.37
-1.55
-2.61
-2.74
-2.27
-1.83
-1.92
-2.68
-3.84
-4.95
-5.65
-5.78
-5.49
-4.97
-4.37
-3.90
-3.96
-5.28
-8.64
-14.43
-22.10
-30.10
-36.40
-39.37
-38.55
-34.89
-30.28
-26.58
-24.82
-24.86
-25.80
-26.52
-26.14
-24.11
-20.02
-13.43
-4.01
8.09
22.00
36.14
48.54
57.52
62.14
62.56
59.76
55.09
49.73
44.40
39.33
34.34
29.24
24.00
18.83
14.11
10.19
7.21
5.10
3.64
2.53
1.53
0.40
-1.00
-2.76
-4.85
-7.14
-9.38
-11.30
-12.70
-13.42
-13.49
-13.03
-12.21
-11.26
-10.36
-9.64
-9.10
-8.69
-8.25
-7.68
-6.99
-6.29
-5.80
-5.70
-6.12
-6.97
-8.05
-8.95
-9.28
-8.85
-7.64
-6.00
-4.36
-3.19
-2.69
-2.91
-3.58
-4.35
-4.92
-5.00
-4.57
-3.71
-2.72
-1.87
-1.39
-1.34
-1.62
-2.05
-2.41
-2.60
-2.57
-2.36
-1.99
-1.52
-0.98
-0.42
0.05
0.42
0.65
0.86
1.14
1.59
2.28
3.19
4.26
5.32
6.19
6.67
6.65
6.22
5.54
4.87
4.35
4.07
3.98
3.99
4.02
4.01
3.94
3.79
3.56
3.18
2.66
1.99
1.21
0.38
-0.41
-1.07
-1.57
-1.90
-2.16
-2.39
-2.67
-3.00
-3.32
-3.56
-3.59
-3.37
-2.88
-2.23
-1.55
-1.05
-0.90
-1.18
-1.85
-2.76
-3.63
-4.20
-4.29
-3.86
-2.99
-1.81
-0.50
0.75
1.86
2.71
3.27
3.48
3.37
2.96
2.35
1.71
1.10
0.66
0.39
0.24
0.16
0.11
0.12
0.23
0.52
1.00
1.65
2.40
3.15
3.82
4.35
4.72
4.87
4.81
4.55
4.13
3.62
3.14
2.79
2.60
2.56
2.55
2.47
2.18
1.64
0.90
0.08
-0.68
-1.29
-1.72
-2.02
-2.25
-2.49
-2.74
-2.91
-2.91
-2.62
-1.95
-0.97
0.11
0.90
0.89
-0.30
-2.78
-6.28
-10.08
-13.28
-15.11
-15.21
-13.77
-11.39
-8.81
-6.61
-5.24
-4.83
-5.36
-6.61
-8.27
-9.92
-11.20
-11.91
-12.07
-12.06
-12.29
-12.98
-14.06
-15.19
-16.07
-16.54
-16.79
-17.24
-18.39
-20.72
-24.14
-28.05
-31.48
-33.38
-32.93
-29.87
-24.62
-18.37
-12.71
-8.40
-5.38
-2.99
-0.69
1.43
2.68
2.21
-0.55
-5.65
-11.63
-16.94
-20.93
-24.50
-29.13
-35.31
-41.17
-42.86
-36.31
-17.61
14.82
60.22
115.91
178.42
243.84
307.66
363.85
396.23
390.14
339.26
251.49
146.50
45.95
-35.38
-92.00
-124.69
-136.42
-128.71
-103.43
-65.12
-22.37
13.93
34.58
35.76
19.74
-7.15
-36.47
-61.34
-77.99
-86.01
-87.23
-84.17
-78.94
-73.02
-67.51
-62.52
-57.90
-53.27
-48.41
-43.30
-37.95
-32.25
-26.13
-19.81
-13.52
-7.60
-2.39
1.87
5.03
7.05
8.08
8.17
7.09
4.64
0.70
-4.67
-11.30
-18.71
-26.00
-31.86
-34.81
-33.69
-28.09
-18.74
-7.28
4.11
13.67
20.58
25.07
27.96
30.12
32.15
34.31
36.71
39.31
42.17
45.45
49.11
52.94
56.58
59.76
62.35
64.51
66.43
68.54
71.29
74.75
78.60
81.98
83.65
82.27
78.80
73.80
68.05
62.41
57.39
53.05
49.00
44.68
39.74
34.29
28.74
23.87
20.36
18.50
17.89
17.71
17.05
15.35
12.39
8.07
2.65
-3.13
-7.97
-10.25
-8.63
-2.87
5.87
15.19
22.36
25.63
24.90
21.42
16.98
12.89
9.41
6.14
2.59
-1.29
-4.97
-7.82
-9.58
-10.71
-12.10
-14.74
-19.12
-25.00
-31.53
-37.59
-42.29
-45.23
-46.70
-47.39
-48.19
-49.74
-52.39
-56.07
-60.37
-64.69
-68.32
-70.68
-71.42
-70.65
-68.87
-66.91
-65.66
-65.79
-67.64
-71.07
-75.61
-80.53
-85.12
-88.93
-91.83
-94.09
-96.08
-98.13
-100.25
-102.24
-103.68
-104.19
-103.57
-101.70
-98.62
-94.38
-89.18
-83.26
-77.08
-71.15
-65.95
-61.75
-58.52
-56.06
-53.93
-51.75
-49.14
-45.86
-41.91
-37.42
-32.69
-27.95
-23.44
-19.27
-15.57
-12.48
-10.12
-8.56
-7.67
-7.19
-6.79
-6.30
-5.72
-5.30
-5.29
-5.77
-6.56
-7.24
-7.37
-6.55
-4.65
-1.72
1.91
5.72
9.10
11.42
12.33
11.71
9.95
7.72
5.83
5.01
5.69
7.90
11.28
15.21
18.92
21.71
23.08
22.93
21.57
19.60
17.68
16.27
15.60
15.53
15.83
16.25
16.68
17.19
17.92
19.05
20.64
22.65
24.86
26.96
28.52
29.07
28.31
26.10
22.70
18.59
14.40
10.69
7.89
6.18
5.54
5.78
6.52
7.35
7.84
7.75
7.08
6.10
5.18
4.64
4.61
4.87
5.13
5.11
4.78
4.43
4.45
5.13
6.47
8.09
9.37
9.75
9.02
7.52
5.93
4.93
4.87
5.49
6.14
6.00
4.57
1.87
-1.58
-4.96
-7.49
-8.59
-8.11
-6.21
-3.29
0.08
3.30
5.86
7.46
7.98
7.65
6.74
5.57
4.40
3.40
2.67
2.32
2.42
3.03
4.15
5.69
7.47
9.30
11.00
12.51
13.84
15.00
15.79
16.00
15.42
14.03
12.04
9.88
8.05
6.94
6.73
7.32
8.41
9.55
10.32
10.44
9.73
8.31
6.48
4.72
3.48
3.06
3.41
4.15
4.76
4.65
3.58
1.62
-0.88
-3.44
-5.64
-7.20
-8.00
-8.01
-7.41
-6.46
-5.62
-5.38
-6.15
-8.00
-10.50
-12.86
-14.21
-14.05
-12.39
-9.72
-6.80
-4.19
-2.22
-0.86
-0.03
0.47
0.68
0.71
0.70
0.84
1.30
2.13
3.19
4.26
5.23
6.07
6.96
8.13
9.65
11.50
13.41
15.10
16.22
16.53
15.86
14.21
11.75
8.87
6.11
3.95
2.70
2.35
2.66
3.21
3.63
3.72
3.48
3.11
2.64
2.06
1.26
0.21
-1.00
-2.21
-3.26
-4.19
-5.14
-6.33
-7.83
-9.51
-11.14
-12.39
-13.10
-13.20
-12.77
-11.92
-10.84
-9.76
-9.04
-9.04
-9.86
-11.29
-12.78
-13.70
-13.60
-12.41
-10.41
-8.02
-5.65
-3.56
-1.90
-0.68
0.08
0.43
0.43
0.17
-0.28
-0.88
-1.57
-2.31
-2.95
-3.37
-3.61
-3.85
-4.44
-5.75
-7.98
-11.02
-14.59
-18.25
-21.62
-24.46
-26.81
-29.10
-32.07
-36.57
-43.18
-51.85
-61.63
-71.05
-78.60
-83.58
-86.53
-89.11
-93.59
-101.73
-114.23
-130.22
-147.71
-164.19
-177.68
-187.68
-195.33
-203.28
-214.73
-232.16
-256.16
-284.74
-313.56
-336.99
-349.98
-349.44
-335.30
-310.12
-277.66
-241.21
-202.13
-159.62
-111.17
-54.35
11.29
82.53
151.93
208.78
241.44
240.96
204.56
137.89
54.17
-29.16
-95.92
-135.95
-147.16
-134.50
-106.26
-70.22
-31.29
8.40
48.01
86.23
120.88
149.92
172.64
190.75
207.76
227.39
251.87
281.26
314.05
348.12
381.86
414.08
443.64
468.76
487.15
496.75
496.66
487.55
471.39
450.58
427.07
402.32
377.42
353.58
332.11
313.85
298.65
285.08
271.04
254.63
235.20
213.53
191.39
170.86
153.33
139.24
128.26
119.91
114.00
110.79
110.66
113.63
119.10
125.79
132.34
137.78
142.01
145.46
148.49
150.84
151.48
149.04
142.50
131.69
117.46
101.25
84.42
67.59
50.49
32.20
11.76
-11.38
-37.15
-64.72
-92.54
-119.08
-143.70
-166.78
-189.57
-213.44
-239.44
-268.30
-300.65
-336.72
-376.15
-417.82
-457.75
-489.11
-503.51
-494.13
-459.43
-404.08
-336.94
-268.52
-208.88
-163.98
-135.82
-122.81
-121.54
-129.64
-145.70
-167.12
-190.11
-211.08
-225.79
-232.03
-229.98
-222.66
-217.31
-222.18
-241.21
-258.64
-257.34
-226.28
-170.12
-103.85
-40.96
9.88
42.57
63.89
79.19
88.20
87.25
70.12
33.26
-19.71
-82.72
-147.14
-201.58
-236.63
-249.00
-233.59
-197.13
-164.56
-145.27
-137.19
-136.58
-137.13
-133.66
-124.24
-109.32
-91.76
-72.76
-49.29
-19.31
17.49
60.80
108.71
157.89
204.94
246.19
280.07
308.70
333.93
357.00
379.24
401.41
423.69
446.08
468.03
489.15
509.80
528.20
540.53
542.33
529.63
500.34
455.08
396.72
329.96
260.73
194.17
134.36
84.38
46.18
20.11
4.56
-4.08
-10.70
-20.32
-37.20
-63.60
-98.60
-137.51
-172.49
-194.45
-196.08
-174.81
-134.32
-83.51
-33.21
7.98
36.65
54.98
68.27
81.31
95.26
106.93
110.48
100.41
74.32
33.76
-16.69
-71.55
-126.68
-180.35
-232.85
-285.38
-338.95
-393.51
-447.79
-499.20
-544.17
-578.67
-599.32
-604.42
-594.64
-572.77
-542.46
-506.92
-467.94
-426.24
-382.24
-336.98
-292.22
-249.61
-209.71
-171.36
-132.11
-89.30
-41.20
12.44
70.48
130.67
190.02
245.26
293.00
330.02
353.74
362.68
356.96
338.53
310.92
278.63
246.05
216.50
191.52
170.90
153.49
138.07
124.46
113.69
107.52
107.25
112.60
121.35
129.95
134.73
133.11
124.17
108.40
87.00
61.28
32.50
2.26
-27.24
-53.17
-72.68
-83.66
-85.50
-79.17
-66.71
-50.51
-32.71
-15.03
1.30
15.37
26.61
34.89
40.35
43.15
43.14
39.68
31.99
19.70
3.46
-14.84
-32.66
-47.72
-59.01
-67.23
-74.50
-83.38
-95.86
-112.61
-132.75
-154.09
-173.61
-188.00
-194.33
-190.42
-175.11
-148.37
-111.60
-67.62
-20.73
23.66
59.79
82.41
87.71
74.05
42.57
-2.59
-54.35
-103.85
-142.30
-163.31
-164.66
-148.54
-120.04
-84.72
-46.49
-7.00
33.32
73.59
111.36
143.09
165.70
178.26
182.50
182.08
180.80
181.04
183.11
185.78
187.25
186.40
183.37
179.33
175.71
173.35
171.92
170.02
165.92
158.28
146.92
132.73
117.27
101.90
87.22
72.67
56.86
38.10
15.12
-12.34
-43.19
-75.19
-105.25
-130.09
-146.97
-154.10
-151.00
-138.42
-118.07
-92.33
-63.87
-35.40
-9.48
11.64
26.26
33.55
33.69
28.02
18.68
8.17
-1.27
-8.19
-12.16
-13.58
-13.27
-12.06
-10.48
-8.72
-6.77
-4.61
-2.30
-0.01
2.03
3.65
4.71
5.15
4.92
4.04
2.54
0.48
-2.06
-5.04
-8.39
-12.03
-15.70
-19.05
-21.62
-23.08
-23.33
-22.60
-21.29
-19.86
-18.55
-17.34
-16.02
-14.33
-12.14
-9.50
-6.58
-3.59
-0.68
2.00
4.27
5.95
6.97
7.43
7.63
7.93
8.68
10.05
12.04
14.50
17.24
20.01
22.52
24.39
25.17
24.47
22.10
18.17
13.02
7.12
0.82
-5.69
-12.34
-19.17
-26.15
-33.19
-40.14
-46.97
-53.72
-60.48
-67.16
-73.27
-78.01
-80.38
-79.55
-75.01
-66.72
-54.98
-40.34
-23.41
-4.92
14.24
33.00
50.14
64.45
75.01
81.34
83.50
82.07
78.01
72.45
66.50
60.96
56.22
52.35
49.15
46.44
44.09
42.05
40.19
38.28
35.90
32.60
28.03
22.03
14.71
6.47
-2.07
-10.06
-16.46
-20.22
-20.53
-17.02
-10.08
-0.69
9.73
19.80
28.42
35.00
39.33
41.51
41.83
40.65
38.43
35.55
32.35
28.98
25.43
21.68
17.72
13.68
9.73
6.06
2.79
0.03
-2.07
-3.27
-3.34
-2.25
-0.24
2.27
4.92
7.53
10.15
12.89
15.72
18.37
20.42
21.52
21.57
20.76
19.45
17.95
16.41
14.72
12.72
10.23
7.23
3.86
0.40
-2.82
-5.53
-7.60
-8.99
-9.84
-10.38
-10.97
-11.98
-13.74
-16.35
-19.58
-23.02
-26.17
-28.72
-30.71
-32.43
-34.22
-36.26
-38.43
-40.46
-42.17
-43.60
-44.99
-46.58
-48.47
-50.42
-52.04
-52.85
-52.53
-50.87
-47.79
-43.24
-37.25
-29.95
-21.59
-12.58
-3.39
5.52
13.68
20.73
26.34
30.27
32.46
33.03
32.26
30.47
27.89
24.51
20.14
14.57
7.78
0.20
-7.39
-14.08
-19.18
-22.49
-24.36
-25.40
-26.10
-26.61
-26.76
-26.22
-24.91
-23.01
-20.89
-18.88
-17.17
-15.79
-14.75
-14.16
-14.09
-14.35
-14.46
-13.65
-11.29
-7.17
-1.71
4.23
9.70
14.06
17.15
19.21
20.67
21.86
23.00
24.12
25.17
26.13
27.03
27.91
28.80
29.62
30.24
30.50
30.29
29.64
28.72
27.80
27.05
26.47
25.83
24.80
23.17
21.01
18.64
16.51
14.94
13.98
13.40
12.86
12.01
10.71
8.89
6.58
3.83
0.66
-2.81
-6.30
-9.41
-11.77
-13.15
-13.64
-13.59
-13.43
-13.46
-13.73
-14.05
-14.18
-14.13
-14.17
-14.83
-16.59
-19.56
-23.34
-27.00
-29.51
-30.05
-28.41
-25.02
-20.71
-16.38
-12.68
-9.86
-7.91
-6.68
-6.04
-5.83
-5.79
-5.45
-4.37
-2.24
0.83
4.34
7.59
9.97
11.25
11.56
11.29
10.88
10.60
10.54
10.60
10.65
10.60
10.44
10.23
10.14
10.27
10.66
11.15
11.42
11.08
9.83
7.71
4.99
2.15
-0.39
-2.43
-3.97
-5.23
-6.38
-7.45
-8.32
-8.83
-8.84
-8.44
-7.88
-7.52
-7.65
-8.43
-9.77
-11.42
-13.15
-14.78
-16.19
-17.26
-17.76
-17.33
-15.62
-12.45
-8.03
-2.93
1.98
5.88
8.22
8.99
8.54
7.54
6.70
6.57
7.41
9.20
11.65
14.31
16.71
18.47
19.32
19.20
18.18
16.45
14.32
12.06
9.91
8.01
6.42
5.11
3.96
2.82
1.56
0.13
-1.35
-2.70
-3.67
-4.14
-4.18
-4.01
-4.04
-4.62
-5.90
-7.75
-9.82
-11.73
-13.19
-14.16
-14.72
-15.05
-15.26
-15.36
-15.35
-15.24
-15.06
-14.85
-14.59
-14.18
-13.58
-12.83
-12.18
-12.00
-12.64
-14.30
-16.86
-19.86
-22.69
-24.69
-25.43
-24.80
-23.11
-20.84
-18.54
-16.64
-15.30
-14.45
-13.88
-13.31
-12.44
-11.07
-9.14
-6.80
-4.42
-2.41
-1.10
-0.56
-0.60
-0.93
-1.34
-1.77
-2.31
-3.01
-3.75
-4.28
-4.26
-3.59
-2.30
-0.67
1.14
3.03
5.11
7.53
10.39
13.65
17.12
20.53
23.59
26.08
27.89
29.07
29.77
30.11
30.19
29.94
29.31
28.22
26.74
25.02
23.25
21.54
19.80
17.79
15.22
11.96
7.99
3.50
-1.17
-5.59
-9.33
-11.99
-13.36
-13.49
-12.67
-11.32
-9.89
-8.68
-7.84
-7.34
-7.06
-6.81
-6.42
-5.76
-4.80
-3.64
-2.49
-1.60
-1.07
-0.87
-0.78
-0.58
-0.16
0.43
1.03
1.52
1.87
2.11
2.26
2.26
1.98
1.36
0.50
-0.33
-0.79
-0.63
0.16
1.39
2.76
4.01
5.01
5.75
6.24
6.51
6.58
6.44
6.19
5.89
5.59
5.22
4.63
3.66
2.25
0.48
-1.43
-3.19
-4.64
-5.75
-6.65
-7.58
-8.72
-10.16
-11.79
-13.40
-14.73
-15.56
-15.78
-15.31
-14.21
-12.56
-10.55
-8.39
-6.34
-4.56
-3.13
-2.07
-1.36
-1.04
-1.11
-1.51
-2.09
-2.61
-2.83
-2.62
-2.01
-1.11
-0.11
0.89
1.75
2.39
2.68
2.52
1.93
1.03
0.09
-0.69
-1.15
-1.26
-1.05
-0.59
0.04
0.82
1.71
2.71
3.88
5.25
6.69
7.92
8.61
8.53
7.74
6.59
5.63
5.20
5.43
6.10
6.85
7.32
7.31
6.75
5.56
3.74
1.24
-1.83
-5.20
-8.51
-11.48
-14.07
-16.54
-19.39
-23.09
-27.86
-33.41
-38.92
-43.36
-45.74
-45.62
-43.18
-39.19
-34.67
-30.48
-27.17
-24.75
-23.06
-21.73
-20.47
-19.04
-17.20
-14.78
-11.68
-8.04
-4.20
-0.72
1.94
3.58
4.43
5.08
6.27
8.47
11.70
15.43
18.85
21.24
22.27
22.21
21.77
21.72
22.57
24.39
26.81
29.24
31.21
32.44
32.87
32.54
31.41
29.46
26.70
23.34
19.77
16.51
13.95
12.28
11.45
11.18
11.08
10.79
10.12
8.97
7.39
5.45
3.20
0.61
-2.30
-5.43
-8.46
-10.93
-12.35
-12.43
-11.25
-9.25
-7.04
-5.20
-4.01
-3.44
-3.23
-3.04
-2.60
-1.78
-0.57
0.99
2.78
4.66
6.37
7.64
8.22
7.97
6.94
5.34
3.52
1.81
0.45
-0.40
-0.75
-0.61
-0.08
0.78
1.89
3.14
4.39
5.47
6.27
6.74
6.99
7.07
7.06
6.96
6.68
6.16
5.41
4.57
3.81
3.24
2.86
2.52
2.04
1.30
0.34
-0.66
-1.49
-2.06
-2.33
-2.42
-2.50
-2.74
-3.36
-4.48
-6.23
-8.60
-11.39
-14.10
-16.10
-16.79
-15.88
-13.51
-10.18
-6.57
-3.21
-0.45
1.65
3.07
3.78
3.73
2.92
1.57
0.06
-1.22
-2.06
-2.53
-2.91
-3.54
-4.65
-6.32
-8.44
-10.85
-13.27
-15.36
-16.68
-16.92
-15.96
-14.00
-11.54
-9.21
-7.54
-6.81
-6.98
-7.76
-8.75
-9.60
-10.07
-10.08
-9.69
-9.02
-8.17
-7.18
-6.00
-4.59
-2.91
-1.03
0.94
2.87
4.66
6.19
7.31
7.85
7.69
6.87
5.69
4.51
3.65
3.18
2.79
2.02
0.46
-2.07
-5.40
-9.08
-12.59
-15.44
-17.29
-17.95
-17.42
-15.90
-13.80
-11.61
-9.80
-8.60
-7.94
-7.49
-6.86
-5.69
-3.86
-1.49
1.16
3.70
5.79
7.24
8.05
8.38
8.55
8.88
9.58
10.73
12.22
13.83
15.32
16.47
17.18
17.49
17.63
17.84
18.39
19.36
20.62
21.95
23.05
23.75
24.03
23.93
23.48
22.68
21.45
19.78
17.78
15.68
13.71
11.99
10.50
9.04
7.47
5.79
4.11
2.67
1.59
0.81
0.07
-0.94
-2.53
-4.77
-7.58
-10.71
-13.75
-16.25
-17.80
-18.10
-17.11
-15.06
-12.42
-9.72
-7.36
-5.62
-4.59
-4.28
-4.58
-5.28
-6.05
-6.46
-6.21
-5.26
-3.91
-2.70
-2.13
-2.35
-3.18
-4.08
-4.54
-4.23
-3.11
-1.38
0.69
2.81
4.75
6.36
7.53
8.24
8.55
8.62
8.66
8.86
9.30
9.97
10.72
11.39
11.79
11.79
11.33
10.49
9.43
8.39
7.57
7.10
6.95
6.99
7.03
6.91
6.51
5.83
4.95
4.02
3.16
2.45
1.87
1.29
0.47
-0.80
-2.67
-5.15
-8.09
-11.17
-13.94
-15.92
-16.70
-16.07
-14.14
-11.31
-8.19
-5.38
-3.30
-2.06
-1.54
-1.51
-1.82
-2.37
-3.12
-3.97
-4.75
-5.27
-5.40
-5.15
-4.66
-4.18
-3.88
-3.85
-4.04
-4.33
-4.48
-4.37
-3.86
-2.93
-1.63
-0.08
1.55
3.14
4.53
5.64
6.43
6.95
7.31
7.71
8.35
9.40
10.90
12.70
14.52
15.97
16.74
16.64
15.66
13.99
11.86
9.48
6.90
4.06
0.78
-3.03
-7.36
-11.96
-16.49
-20.62
-24.19
-27.21
-29.81
-32.18
-34.42
-36.60
-38.72
-40.81
-42.80
-44.51
-45.53
-45.34
-43.50
-40.00
-35.33
-30.36
-25.92
-22.52
-20.05
-18.00
-15.73
-12.85
-9.33
-5.37
-1.22
2.98
7.26
11.60
15.79
19.39
21.88
22.90
22.46
21.02
19.29
17.95
17.46
17.83
18.80
19.96
21.01
21.80
22.33
22.61
22.58
22.09
21.04
19.44
17.50
15.51
13.80
12.55
11.76
11.29
10.97
10.66
10.34
9.99
9.61
9.18
8.63
7.92
7.13
6.34
5.68
5.19
4.81
4.42
3.86
3.00
1.75
0.05
-2.08
-4.56
-7.15
-9.49
-11.22
-12.04
-11.84
-10.74
-9.01
-6.97
-4.98
-3.30
-2.11
-1.38
-0.95
-0.52
0.17
1.25
2.62
3.93
4.84
5.11
4.79
4.09
3.31
2.67
2.19
1.78
1.34
0.81
0.23
-0.31
-0.73
-0.97
-1.03
-0.92
-0.62
-0.08
0.72
1.74
2.82
3.72
4.13
3.85
2.87
1.41
-0.12
-1.29
-1.85
-1.76
-1.21
-0.47
0.25
0.80
1.07
0.98
0.49
-0.40
-1.53
-2.70
-3.69
-4.40
-4.90
-5.30
-5.79
-6.48
-7.45
-8.71
-10.17
-11.56
-12.49
-12.47
-11.17
-8.57
-5.05
-1.29
1.98
4.17
5.05
4.74
3.57
1.99
0.46
-0.62
-0.88
-0.16
1.45
3.56
5.58
6.92
7.20
6.36
4.67
2.58
0.53
-1.20
-2.55
-3.59
-4.52
-5.52
-6.72
-8.15
-9.75
-11.35
-12.70
-13.55
-13.76
-13.29
-12.31
-11.12
-10.00
-9.24
-8.98
-9.20
-9.74
-10.37
-10.85
-11.02
-10.82
-10.32
-9.64
-8.95
-8.40
-8.17
-8.41
-9.12
-10.16
-11.23
-11.98
-12.21
-11.94
-11.43
-11.20
-11.75
-13.40
-16.15
-19.55
-22.85
-25.17
-25.77
-24.33
-21.02
-16.43
-11.36
-6.58
-2.54
0.64
3.07
5.00
6.71
8.44
10.35
12.50
14.78
17.00
18.92
20.40
21.50
22.39
23.24
24.09
24.76
24.99
24.61
23.64
22.24
20.63
18.92
17.09
15.09
13.05
11.22
10.02
9.77
10.47
11.76
13.02
13.63
13.24
11.88
9.92
7.86
6.15
4.99
4.39
4.14
4.03
3.85
3.49
2.93
2.24
1.49
0.78
0.15
-0.44
-1.10
-1.95
-3.16
-4.84
-6.98
-9.43
-11.88
-13.85
-14.88
-14.63
-13.05
-10.44
-7.37
-4.46
-2.18
-0.77
-0.16
-0.07
-0.16
-0.15
0.16
0.85
1.92
3.24
4.64
5.88
6.76
7.17
7.08
6.58
5.78
4.79
3.69
2.54
1.39
0.30
-0.58
-1.12
-1.25
-0.94
-0.25
0.73
1.91
3.22
4.58
5.88
6.94
7.59
7.69
7.28
6.53
5.78
5.31
5.28
5.70
6.41
7.19
7.85
8.28
8.44
8.34
8.07
7.70
7.40
7.29
7.43
7.72
7.90
7.62
6.62
4.71
1.94
-1.46
-5.10
-8.48
-11.10
-12.55
-12.69
-11.66
-9.92
-8.03
-6.46
-5.47
-5.05
-5.07
-5.39
-5.97
-6.85
-8.00
-9.27
-10.36
-10.98
-10.94
-10.29
-9.30
-8.33
-7.74
-7.68
-8.04
-8.51
-8.61
-7.97
-6.51
-4.45
-2.29
-0.60
0.29
0.38
0.02
-0.33
-0.30
0.15
0.76
1.20
1.20
0.79
0.16
-0.39
-0.63
-0.54
-0.22
0.08
0.19
-0.03
-0.65
-1.69
-3.22
-5.28
-7.88
-10.91
-14.15
-17.30
-20.03
-22.12
-23.44
-24.08
-24.27
-24.41
-24.90
-25.96
-27.53
-29.12
-30.05
-29.64
-27.50
-23.70
-18.77
-13.49
-8.64
-4.73
-1.99
-0.29
0.69
1.37
2.32
3.98
6.64
10.28
14.53
18.83
22.57
25.32
26.86
27.30
26.89
25.95
24.82
23.78
23.05
22.73
22.73
22.80
22.57
21.75
20.32
18.55
16.91
15.81
15.41
15.50
15.68
15.53
14.92
13.90
12.75
11.67
10.70
9.69
8.42
6.72
4.53
1.98
-0.75
-3.30
-5.33
-6.47
-6.55
-5.75
-4.56
-3.73
-3.97
-5.77
-9.17
-13.85
-19.25
-24.69
-29.43
-32.79
-34.20
-33.33
-30.27
-25.50
-19.82
-14.09
-8.98
-4.83
-1.70
0.57
2.21
3.49
4.72
6.17
7.94
9.97
11.96
13.48
14.21
14.12
13.50
12.81
12.45
12.51
12.85
13.11
12.99
12.44
11.65
10.94
10.61
10.75
11.30
12.09
12.92
13.59
14.00
13.99
13.43
12.24
10.41
8.08
5.60
3.45
2.07
1.82
2.75
4.67
7.15
9.67
11.72
13.01
13.46
13.19
12.41
11.33
10.14
8.96
7.88
6.90
5.97
4.94
3.58
1.68
-0.82
-3.71
-6.53
-8.76
-9.95
-10.00
-9.12
-7.79
-6.50
-5.59
-5.14
-5.00
-4.96
-4.88
-4.79
-4.73
-4.79
-4.88
-4.91
-4.83
-4.76
-4.95
-5.73
-7.22
-9.27
-11.49
-13.34
-14.42
-14.59
-13.99
-12.92
-11.74
-10.67
-9.85
-9.26
-8.81
-8.39
-7.92
-7.31
-6.55
-5.69
-4.79
-4.03
-3.55
-3.43
-3.67
-4.17
-4.67
-4.94
-4.76
-4.06
-2.95
-1.62
-0.31
0.74
1.36
1.44
0.98
0.07
-1.08
-2.21
-3.09
-3.59
-3.79
-3.94
-4.35
-5.27
-6.75
-8.57
-10.32
-11.44
-11.48
-10.23
-7.84
-4.86
-2.09
-0.25
0.23
-0.64
-2.41
-4.40
-6.02
-6.84
-6.80
-6.09
-5.03
-3.92
-2.96
-2.14
-1.39
-0.63
0.23
1.06
1.69
1.95
1.80
1.39
1.04
1.04
1.56
2.61
3.96
5.36
6.58
7.58
8.44
9.37
10.52
11.92
13.42
14.75
15.65
16.06
16.14
16.19
16.55
17.29
18.28
19.19
19.65
19.46
18.65
17.32
15.63
13.66
11.47
9.14
6.81
4.57
2.41
0.18
-2.31
-5.10
-7.91
-10.20
-11.35
-10.98
-9.17
-6.44
-3.52
-1.08
0.54
1.40
1.73
1.84
1.94
2.12
2.39
2.72
3.08
3.39
3.60
3.59
3.35
2.92
2.43
2.08
1.90
1.81
1.59
1.04
0.09
-1.05
-1.96
-2.28
-1.79
-0.67
0.70
1.85
2.54
2.76
2.72
2.59
2.45
2.23
1.87
1.40
0.94
0.70
0.80
1.25
1.95
2.72
3.37
3.69
3.54
2.87
1.79
0.60
-0.38
-0.91
-1.01
-0.88
-0.88
-1.26
-2.12
-3.36
-4.79
-6.24
-7.54
-8.55
-9.05
-8.81
-7.66
-5.70
-3.21
-0.69
1.44
2.89
3.62
3.76
3.46
2.90
2.25
1.63
1.24
1.23
1.72
2.70
4.02
5.43
6.69
7.60
8.07
8.11
7.80
7.22
6.49
5.71
4.95
4.27
3.72
3.31
3.11
3.17
3.55
4.24
5.15
6.05
6.67
6.76
6.17
4.97
3.38
1.68
0.17
-0.98
-1.64
-1.84
-1.65
-1.23
-0.78
-0.48
-0.48
-0.82
-1.47
-2.29
-3.12
-3.78
-4.11
-3.99
-3.40
-2.51
-1.61
-1.14
-1.50
-2.93
-5.36
-8.44
-11.55
-14.02
-15.33
-15.26
-13.96
-11.83
-9.44
-7.29
-5.66
-4.75
-4.57
-5.11
-6.33
-8.09
-10.12
-12.09
-13.76
-15.05
-16.19
-17.51
-19.34
-21.78
-24.67
-27.64
-30.28
-32.25
-33.38
-33.68
-33.25
-32.36
-31.25
-30.13
-29.07
-27.92
-26.38
-24.10
-20.91
-16.87
-12.35
-7.86
-3.88
-0.68
1.77
3.67
5.30
6.85
8.43
10.06
11.78
13.62
15.61
17.71
19.80
21.74
23.39
24.70
25.61
26.10
26.05
25.26
23.58
20.99
17.67
14.04
10.73
8.35
7.40
8.08
10.20
13.25
16.49
19.21
20.89
21.35
20.70
19.30
17.61
16.08
15.04
14.62
14.71
14.98
14.96
14.28
12.77
10.62
8.26
6.21
4.86
4.29
4.35
4.64
4.71
4.20
3.02
1.26
-0.76
-2.65
-4.11
-4.97
-5.25
-5.08
-4.59
-3.93
-3.25
-2.71
-2.52
-2.84
-3.68
-4.91
-6.17
-7.06
-7.31
-6.87
-5.88
-4.61
-3.32
-2.15
-1.22
-0.58
-0.24
-0.20
-0.46
-1.02
-1.88
-3.18
-5.03
-7.45
-10.28
-13.08
-15.27
-16.29
-15.83
-13.94
-11.02
-7.61
-4.35
-1.72
-0.02
0.61
0.30
-0.73
-2.07
-3.31
-4.05
-4.11
-3.53
-2.55
-1.56
-0.85
-0.55
-0.54
-0.58
-0.42
0.11
0.97
2.01
3.03
3.85
4.35
4.46
4.20
3.66
3.00
2.49
2.35
2.67
3.41
4.46
5.68
6.98
8.31
9.56
10.54
11.00
10.75
9.81
8.40
6.84
5.40
4.15
2.99
1.83
0.65
-0.45
-1.26
-1.64
-1.62
-1.36
-1.06
-1.00
-1.40
-2.45
-4.32
-7.04
-10.42
-13.95
-16.91
-18.50
-18.22
-15.99
-12.29
-7.99
-4.03
-1.19
0.22
0.32
-0.49
-1.70
-2.88
-3.75
-4.19
-4.24
-4.03
-3.82
-3.88
-4.45
-5.66
-7.42
-9.49
-11.55
-13.31
-14.59
-15.32
-15.57
-15.40
-14.97
-14.35
-13.60
-12.70
-11.62
-10.34
-8.88
-7.36
-5.94
-4.81
-4.11
-3.88
-4.07
-4.54
-5.09
-5.62
-6.06
-6.44
-6.80
-7.08
-7.15
-6.82
-5.88
-4.20
-1.77
1.30
4.79
8.42
11.88
14.90
17.23
18.79
19.64
20.04
20.38
21.08
22.47
24.66
27.47
30.50
33.21
35.15
36.02
35.83
34.77
33.15
31.29
29.41
27.59
25.77
23.68
21.09
17.81
13.93
9.78
5.85
2.53
-0.00
-1.79
-2.96
-3.57
-3.54
-2.73
-1.22
0.54
1.69
1.17
-1.92
-7.88
-16.18
-25.49
-34.14
-40.62
-44.12
-44.78
-43.47
-41.32
-39.15
-37.20
-35.16
-32.47
-28.66
-23.50
-16.93
-8.93
0.70
12.16
25.36
39.62
53.53
65.29
73.28
76.81
76.54
74.39
72.80
73.67
77.47
83.06
88.15
90.36
88.29
82.05
73.07
63.25
54.15
46.40
39.70
33.35
26.78
19.92
13.12
6.94
1.91
-1.66
-3.75
-4.77
-5.77
-8.52
-15.44
-28.94
-50.60
-80.17
-115.17
-151.03
-182.12
-203.27
-211.25
-205.63
-188.92
-165.97
-142.62
-124.26
-114.53
-114.43
-121.97
-132.61
-140.34
-139.09
-124.50
-95.15
-53.19
-4.03
44.57
84.02
106.68
107.59
86.00
45.96
-4.28
-54.55
-95.77
-122.81
-135.80
-139.20
-139.36
-141.51
-147.69
-156.38
-163.64
-164.77
-155.96
-135.59
-104.57
-66.48
-26.75
8.56
34.68
49.69
55.41
56.99
60.97
72.70
94.19
123.28
154.63
182.12
201.45
211.66
214.93
214.71
213.49
211.39
206.47
196.38
180.36
160.30
140.05
123.65
113.25
108.24
105.76
102.39
95.95
86.27
74.93
63.96
54.54
46.38
38.18
28.52
17.01
4.63
-6.71
-15.00
-19.13
-19.33
-16.92
-13.70
-11.25
-10.34
-10.78
-11.58
-11.29
-8.60
-2.82
5.78
16.05
26.34
35.00
40.77
42.95
41.28
35.68
26.25
13.35
-2.18
-18.82
-34.54
-47.14
-54.81
-56.54
-52.46
-43.76
-32.39
-20.63
-10.42
-2.99
1.36
3.14
3.27
2.58
1.54
0.15
-1.79
-4.40
-7.45
-10.43
-12.73
-13.89
-13.74
-12.37
-10.06
-7.07
-3.68
-0.20
2.89
5.03
5.68
4.59
1.95
-1.59
-5.19
-8.21
-10.55
-12.61
-15.07
-18.38
-22.42
-26.46
-29.47
-30.63
-29.83
-27.75
-25.58
-24.44
-24.83
-26.49
-28.50
-29.77
-29.42
-27.09
-22.77
-16.63
-8.86
0.33
10.51
20.80
29.86
36.19
38.63
36.69
30.69
21.46
10.03
-2.79
-16.26
-29.59
-41.59
-50.72
-55.53
-55.21
-50.13
-41.71
-31.89
-22.30
-13.58
-5.29
3.77
14.79
28.30
43.63
58.82
70.67
75.44
69.84
52.39
24.50
-9.20
-41.89
-66.62
-78.63
-77.07
-64.92
-47.67
-31.07
-19.15
-13.34
-12.83
-15.53
-19.20
-22.25
-23.92
-24.22
-23.58
-22.51
-21.35
-20.15
-18.64
-16.41
-13.03
-8.14
-1.53
6.63
15.71
24.37
30.51
31.65
25.61
11.36
-10.14
-35.72
-60.42
-78.52
-85.03
-77.01
-54.57
-21.06
17.46
53.67
80.51
92.97
89.06
70.24
40.91
7.23
-24.47
-49.16
-64.22
-69.70
-67.92
-62.40
-56.60
-52.87
-51.85
-52.68
-53.47
-52.31
-47.94
-40.10
-29.57
-17.75
-6.32
3.17
9.53
12.12
10.92
6.60
0.41
-6.08
-11.27
-13.91
-13.41
-9.88
-4.15
2.44
8.34
12.11
12.75
9.97
4.21
-3.38
-11.21
-17.66
-21.43
-21.91
-19.24
-14.18
-7.82
-1.19
5.08
10.86
16.38
21.99
27.92
34.12
40.37
46.33
51.68
56.11
59.31
60.89
60.41
57.46
51.68
42.94
31.39
17.48
2.01
-14.02
-29.48
-43.37
-54.99
-64.05
-70.63
-75.18
-78.27
-80.40
-81.77
-82.14
-80.74
-76.52
-68.68
-57.03
-42.40
-26.46
-11.17
1.90
12.08
19.69
25.54
30.27
33.77
35.15
33.27
27.40
17.78
5.78
-6.50
-16.68
-22.88
-24.05
-20.07
-11.70
-0.17
13.05
26.63
39.41
50.51
59.33
65.56
69.27
70.96
71.49
71.85
72.77
74.34
75.96
76.51
74.94
70.78
64.34
56.73
49.50
44.17
41.89
43.20
47.98
55.44
64.18
72.36
77.98
79.35
75.55
66.72
53.97
39.18
24.45
11.76
2.53
-2.54
-3.47
-1.03
3.52
8.54
12.45
14.01
12.64
8.49
2.27
-5.06
-12.67
-20.10
-27.22
-34.11
-40.87
-47.44
-53.73
-59.70
-65.40
-71.05
-76.79
-82.42
-87.29
-90.23
-89.77
-84.40
-73.01
-55.22
-31.64
-4.04
24.87
51.82
73.68
88.11
93.98
91.52
81.94
67.00
48.52
28.29
8.07
-10.38
-25.34
-35.55
-40.54
-40.88
-38.05
-34.03
-30.74
-29.48
-30.66
-33.62
-36.90
-38.57
-36.79
-30.39
-19.26
-4.48
11.97
27.66
40.32
48.29
50.86
48.32
41.88
33.34
24.71
17.72
13.46
12.17
13.25
15.51
17.52
17.93
15.85
10.92
3.46
-5.72
-15.46
-24.59
-32.13
-37.48
-40.43
-41.01
-39.57
-36.50
-32.33
-27.63
-23.03
-19.09
-16.26
-14.80
-14.68
-15.63
-17.12
-18.54
-19.26
-18.86
-17.19
-14.40
-10.95
-7.33
-3.97
-1.11
1.26
3.18
4.74
5.92
6.75
7.28
7.70
8.28
9.29
10.95
13.35
16.50
20.25
24.46
28.88
33.18
37.00
39.98
41.84
42.52
42.27
41.64
41.42
42.35
44.87
48.85
53.52
57.75
60.48
61.14
59.91
57.66
55.61
54.95
56.42
59.88
64.20
67.22
66.36
59.38
45.29
24.84
0.35
-25.02
-48.27
-67.37
-81.71
-91.97
-99.78
-107.17
-115.85
-126.61
-138.71
-149.91
-157.01
-156.94
-148.00
-130.56
-106.96
-80.74
-55.53
-34.33
-19.17
-11.44
-12.01
-21.32
-38.93
-62.97
-89.83
-114.31
-130.72
-134.44
-123.53
-99.82
-68.64
-37.40
-13.13
-0.22
1.03
-5.78
-14.53
-18.45
-12.09
7.29
38.84
77.82
116.04
143.51
151.04
133.40
91.84
34.45
-25.88
-75.66
-105.11
-110.84
-95.62
-65.92
-28.59
11.34
50.99
88.56
121.84
147.91
163.90
168.37
162.24
148.41
130.34
110.35
88.91
65.05
37.82
7.71
-22.75
-49.57
-68.65
-77.19
-74.56
-62.23
-43.10
-20.42
3.04
25.41
45.68
63.30
77.82
88.75
95.54
97.92
95.99
90.32
81.79
71.33
59.74
47.57
35.23
23.15
11.89
2.04
-5.84
-11.51
-15.10
-17.16
-18.49
-19.86
-21.84
-24.60
-27.98
-31.58
-34.91
-37.52
-39.03
-39.20
-37.86
-34.87
-30.11
-23.57
-15.37
-5.84
4.45
14.72
24.05
31.55
36.52
38.71
38.33
36.09
32.89
29.55
26.49
23.73
20.94
17.82
14.31
10.63
7.16
4.22
1.88
0.05
-1.34
-2.29
-2.67
-2.44
-1.80
-1.24
-1.35
-2.58
-5.14
-8.86
-13.50
-18.84
-24.74
-31.11
-37.73
-44.25
-50.25
-55.38
-59.40
-62.16
-63.27
-61.94
-57.12
-47.84
-33.88
-16.15
3.31
21.89
37.17
47.68
53.17
54.36
52.36
48.19
42.54
35.83
28.46
20.89
13.60
6.96
1.02
-4.38
-9.50
-14.51
-19.33
-23.76
-27.46
-30.12
-31.55
-31.73
-30.80
-29.04
-26.80
-24.44
-22.21
-20.28
-18.63
-17.19
-15.81
-14.44
-13.03
-11.74
-10.77
-10.32
-10.45
-11.06
-11.89
-12.67
-13.32
-13.96
-14.77
-15.81
-16.88
-17.54
-17.31
-15.89
-13.25
-9.45
-4.55
1.54
8.94
17.58
27.06
36.80
46.21
54.95
63.08
70.82
78.27
85.18
90.89
94.47
95.04
91.91
84.62
72.83
56.38
35.42
10.70
-16.16
-42.81
-66.59
-85.21
-97.43
-103.38
-104.40
-102.40
-99.03
-95.11
-90.31
-83.46
-73.18
-58.55
-39.66
-17.77
4.99
26.21
43.78
56.36
63.48
65.38
62.85
56.92
48.71
39.29
29.51
20.01
11.18
3.37
-2.88
-6.81
-7.68
-5.24
-0.17
5.83
10.37
11.08
6.45
-3.62
-17.76
-33.57
-48.36
-59.83
-66.71
-68.77
-66.73
-61.83
-55.40
-48.66
-42.49
-37.52
-34.03
-31.96
-30.74
-29.49
-27.23
-23.34
-17.88
-11.60
-5.61
-0.85
2.34
4.37
6.12
8.38
11.47
15.03
18.07
19.32
17.62
12.20
3.04
-9.01
-22.13
-33.82
-41.63
-44.09
-41.30
-34.87
-27.11
-19.98
-14.32
-9.72
-4.94
1.35
9.95
20.65
31.99
41.25
45.04
40.38
26.13
4.17
-20.70
-42.19
-54.83
-56.24
-47.71
-33.14
-16.84
-1.69
11.49
23.13
33.55
42.10
47.20
47.41
42.57
34.43
26.18
21.33
22.38
30.11
43.59
60.67
78.69
94.93
106.70
111.35
106.70
91.62
66.72
34.70
-0.22
-33.48
-61.39
-81.94
-94.63
-99.76
-97.52
-87.76
-70.20
-45.15
-14.03
20.57
55.23
86.31
110.59
125.70
130.43
124.93
110.67
90.15
66.33
41.97
19.16
-0.97
-18.12
-32.60
-44.86
-55.24
-63.61
-69.42
-71.93
-70.62
-65.65
-58.02
-49.32
-41.19
-34.66
-29.79
-25.79
-21.53
-16.04
-8.99
-0.66
8.20
16.76
24.31
30.31
34.29
35.85
35.02
32.65
30.61
31.45
37.49
49.65
66.66
85.03
99.87
106.26
100.45
80.61
46.74
0.20
-56.61
-120.26
-186.05
-247.78
-298.24
-330.37
-338.84
-321.53
-280.22
-220.34
-149.80
-77.31
-10.80
43.90
83.80
108.94
122.13
128.18
132.61
140.43
154.92
177.02
205.27
236.06
264.38
284.70
292.33
284.67
262.15
228.22
188.26
147.56
109.52
74.62
40.99
6.17
-30.99
-69.00
-103.97
-131.01
-145.99
-146.91
-134.11
-109.75
-77.12
-40.23
-3.60
27.74
48.90
56.16
48.06
25.96
-6.42
-44.17
-82.72
-118.67
-149.91
-175.05
-192.96
-202.67
-203.90
-197.48
-185.40
-170.24
-154.09
-137.67
-120.14
-99.61
-74.34
-43.79
-9.09
27.23
62.13
93.05
118.51
138.07
152.09
161.29
166.44
168.42
168.39
167.77
167.87
169.35
171.64
173.00
170.85
162.50
145.91
120.28
86.48
47.17
6.42
-31.00
-60.78
-80.12
-88.51
-87.70
-81.01
-72.26
-64.74
-60.64
-61.00
-65.87
-74.53
-85.55
-96.78
-105.71
-110.15
-108.74
-101.54
-89.99
-76.44
-63.25
-51.93
-42.66
-34.37
-25.26
-13.54
2.02
21.82
45.33
71.01
96.19
117.15
129.76
130.74
119.26
97.65
70.94
45.19
25.25
13.26
8.18
6.68
4.48
-2.31
-16.70
-40.51
-73.71
-113.77
-155.09
-189.97
-210.69
-212.35
-194.61
-162.00
-122.32
-84.05
-54.18
-36.69
-32.83
-41.78
-61.11
-86.82
-113.53
-135.32
-146.98
-145.58
-130.54
-104.55
-72.83
-41.18
-13.61
8.78
27.25
43.93
59.69
74.67
86.54
91.15
84.83
66.88
40.17
9.44
-20.46
-46.21
-63.38
-69.01
-62.24
-44.00
-15.72
21.00
63.81
110.24
158.23
210.32
269.15
334.11
399.96
458.77
502.43
524.74
523.91
484.22
405.57
306.83
215.42
148.34
106.54
83.02
68.01
57.77
51.75
52.44
59.17
67.85
71.43
64.80
47.40
22.40
-4.99
-30.69
-50.81
-65.22
-77.94
-95.24
-121.68
-158.10
-202.09
-249.13
-294.37
-332.29
-359.62
-376.63
-387.12
-396.31
-409.14
-428.77
-454.98
-483.80
-507.09
-515.48
-501.87
-464.08
-405.22
-332.46
-254.52
-178.88
-110.32
-50.55
0.37
42.57
75.80
100.41
118.48
134.22
153.04
179.43
214.91
257.07
300.12
336.39
358.80
362.90
348.27
318.78
281.57
244.94
215.71
197.05
187.55
182.17
174.35
158.76
133.25
99.35
61.22
23.84
-8.74
-34.18
-51.77
-61.91
-65.61
-64.14
-58.79
-50.87
-41.70
-32.83
-26.34
-24.88
-31.29
-47.90
-75.54
-112.97
-156.92
-202.94
-246.29
-282.70
-308.63
-321.29
-318.88
-301.37
-271.16
-233.09
-193.28
-157.04
-126.98
-102.30
-79.66
-54.96
-25.15
10.94
52.64
98.13
144.76
189.23
227.57
255.39
268.74
265.50
246.31
214.85
177.01
139.34
107.35
84.50
71.75
68.04
71.09
78.10
85.91
91.04
89.75
78.94
57.62
27.75
-5.79
-36.69
-59.46
-71.39
-73.15
-67.88
-59.59
-51.61
-45.90
-43.00
-42.26
-42.25
-41.28
-38.05
-32.41
-25.83
-20.93
-20.44
-25.67
-35.87
-48.20
-58.57
-62.82
-57.61
-41.40
-14.77
19.20
55.83
90.17
118.86
141.26
159.09
174.93
190.47
205.65
219.02
228.89
234.32
235.26
232.22
225.77
216.39
204.94
192.93
182.38
175.19
172.23
172.90
175.40
177.38
176.74
172.07
162.97
150.02
134.64
118.59
103.42
90.03
78.53
68.39
58.88
49.39
39.69
29.79
19.95
10.53
1.88
-5.82
-12.72
-19.32
-26.49
-35.25
-46.49
-60.75
-78.06
-98.07
-120.02
-143.04
-166.25
-189.01
-211.20
-233.20
-255.59
-278.44
-300.67
-319.76
-332.33
-335.30
-327.03
-307.87
-279.72
-245.00
-205.78
-163.65
-120.25
-78.07
-40.54
-11.25
7.48
15.78
16.27
13.17
10.61
11.38
16.18
23.97
32.75
40.43
45.51
47.43
46.52
43.80
40.61
38.08
36.72
36.33
36.06
34.88
31.89
26.54
18.51
7.65
-6.14
-22.70
-41.32
-60.61
-78.68
-93.76
-104.90
-112.04
-115.52
-115.25
-110.31
-99.36
-81.74
-58.45
-32.16
-6.27
16.51
35.02
49.49
60.64
68.68
73.07
73.15
68.96
61.64
53.00
44.57
36.86
29.36
21.07
11.12
-0.91
-15.04
-31.00
-48.42
-66.70
-84.90
-101.56
-114.82
-122.56
-122.93
-114.96
-99.05
-77.22
-52.67
-29.13
-9.83
3.08
8.79
7.83
1.78
-6.79
-14.59
-18.00
-13.86
-0.36
22.24
51.56
83.69
113.94
137.59
150.23
148.12
128.93
93.10
44.96
-7.32
-53.59
-84.91
-96.71
-90.29
-71.78
-49.39
-30.02
-17.13
-10.62
-8.24
-7.51
-6.96
-6.24
-5.48
-4.65
-3.21
-0.52
3.71
9.06
14.41
18.37
19.91
18.93
16.39
13.92
13.03
14.27
17.06
19.95
21.42
20.55
17.38
12.62
7.14
1.45
-4.35
-10.31
-16.19
-21.33
-24.84
-26.12
-25.31
-23.42
-22.09
-22.95
-26.96
-34.00
-42.85
-51.63
-58.44
-61.96
-61.90
-58.86
-54.08
-48.75
-43.68
-39.15
-34.99
-30.90
-26.68
-22.32
-17.87
-13.27
-8.34
-2.88
3.09
9.11
14.40
18.09
19.64
19.12
17.28
15.13
13.52
12.82
12.91
13.45
14.24
15.33
16.91
19.00
21.32
23.44
25.00
26.09
27.14
28.59
30.60
32.84
34.65
35.43
35.08
33.94
32.65
31.71
31.27
31.11
30.86
30.22
29.01
27.25
24.94
22.11
18.83
15.18
11.32
7.43
3.63
-0.02
-3.55
-7.01
-10.48
-13.98
-17.57
-21.23
-24.98
-28.77
-32.55
-36.28
-39.94
-43.50
-46.97
-50.28
-53.34
-56.05
-58.42
-60.54
-62.66
-65.14
-68.28
-72.25
-76.93
-81.79
-86.04
-88.53
-87.98
-83.12
-73.11
-57.95
-38.67
-17.37
3.31
20.87
33.71
41.53
45.15
46.02
45.58
44.85
44.40
44.53
45.43
47.23
49.86
52.92
55.74
57.61
58.19
57.60
56.34
54.99
53.79
52.56
50.79
47.95
43.81
38.61
32.93
27.49
22.86
19.28
16.62
14.45
12.27
9.68
6.48
2.77
-1.10
-4.71
-7.74
-10.12
-12.03
-13.80
-15.71
-17.87
-20.19
-22.51
-24.69
-26.80
-28.98
-31.33
-33.77
-36.05
-37.81
-38.76
-38.68
-37.36
-34.40
-29.17
-21.05
-9.75
4.25
19.69
34.80
47.90
57.98
64.87
69.18
71.76
73.34
74.28
74.64
74.36
73.48
72.14
70.46
68.40
65.74
62.20
57.59
52.05
45.99
40.01
34.65
30.13
26.39
23.08
19.88
16.54
12.99
9.26
5.47
1.69
-1.96
-5.38
-8.49
-11.24
-13.72
-16.13
-18.74
-21.76
-25.23
-28.92
-32.40
-35.18
-36.84
-37.19
-36.40
-35.02
-33.85
-33.67
-35.00
-37.86
-41.67
-45.38
-47.68
-47.38
-43.75
-36.64
-26.52
-14.23
-0.71
13.27
27.20
40.77
53.70
65.67
76.20
84.86
91.29
95.35
97.20
97.17
95.75
93.41
90.61
87.68
84.78
81.88
78.80
75.45
71.85
68.23
64.73
61.16
56.77
50.35
40.82
27.75
11.73
-5.75
-22.75
-37.54
-49.09
-56.97
-61.22
-62.18
-60.54
-57.39
-54.15
-52.09
-51.70
-52.36
-52.49
-50.39
-45.24
-37.57
-29.09
-21.79
-16.96
-14.68
-14.03
-13.84
-13.40
-12.76
-12.45
-12.88
-13.93
-14.92
-14.84
-13.02
-9.45
-4.89
-0.49
2.63
3.88
3.31
1.42
-1.13
-3.94
-6.88
-10.03
-13.43
-16.82
-19.65
-21.32
-21.45
-20.09
-17.76
-15.21
-13.09
-11.67
-10.80
-9.93
-8.41
-5.70
-1.62
3.49
8.96
13.92
17.64
19.75
20.31
19.72
18.52
17.27
16.32
15.90
16.07
16.81
18.03
19.50
20.99
22.35
23.62
24.96
26.47
28.03
29.13
29.14
27.67
24.90
21.74
19.54
19.36
21.58
25.62
30.26
34.25
36.65
36.89
34.42
28.48
18.16
2.92
-16.70
-38.83
-60.54
-78.78
-91.34
-97.45
-97.73
-93.52
-86.07
-76.19
-64.27
-50.73
-36.45
-22.78
-11.22
-2.89
1.87
3.58
3.23
1.91
0.38
-1.06
-2.36
-3.57
-4.62
-5.30
-5.36
-4.73
-3.52
-2.04
-0.67
0.26
0.60
0.50
0.42
1.06
3.13
7.12
12.92
19.75
26.27
31.01
32.98
32.05
29.05
25.51
23.12
23.16
26.16
31.66
38.22
43.74
45.90
42.89
34.14
20.78
5.63
-7.68
-15.82
-16.99
-11.57
-1.97
8.23
15.47
17.26
12.79
3.09
-9.41
-21.73
-31.05
-35.53
-34.47
-28.25
-18.05
-5.31
8.33
21.29
32.08
39.71
43.92
45.43
45.79
46.73
49.41
53.79
58.62
61.99
62.21
58.64
51.92
43.75
36.18
31.02
29.24
30.83
34.94
40.14
44.93
48.11
48.86
46.61
40.89
31.32
17.93
1.87
-14.48
-27.66
-34.20
-31.94
-21.01
-3.91
15.48
33.15
46.16
52.89
52.68
45.18
30.19
8.09
-19.50
-49.37
-77.26
-98.98
-111.73
-114.82
-109.39
-97.68
-81.95
-64.16
-45.95
-29.13
-15.74
-7.80
-6.58
-12.10
-23.02
-37.03
-51.63
-64.70
-74.83
-81.24
-83.74
-82.54
-78.18
-71.50
-63.39
-54.64
-45.71
-37.07
-29.50
-24.38
-23.54
-28.52
-39.57
-54.76
-70.17
-80.97
-83.17
-75.16
-58.23
-35.80
-11.81
10.81
30.90
48.79
65.21
80.20
92.45
99.78
100.12
92.62
78.27
59.63
39.83
21.49
5.95
-6.68
-16.94
-25.28
-31.62
-35.38
-36.02
-33.52
-28.58
-22.36
-16.11
-10.65
-6.23
-2.71
0.24
2.81
4.87
5.98
5.59
3.42
-0.36
-5.08
-9.82
-13.73
-16.36
-17.67
-17.92
-17.49
-16.68
-15.79
-15.14
-15.01
-15.63
-17.07
-19.21
-21.96
-25.42
-29.99
-36.11
-43.79
-52.10
-59.30
-63.23
-62.15
-55.51
-44.08
-29.47
-13.44
2.84
18.95
34.97
50.78
65.52
77.49
84.44
84.45
76.68
62.09
43.36
24.26
8.55
-1.22
-4.47
-2.48
2.44
7.98
12.70
16.21
18.75
20.64
21.76
21.65
19.87
16.44
12.12
8.29
6.53
8.06
13.21
21.20
30.29
38.40
43.86
46.08
45.63
43.81
41.69
39.59
36.96
32.91
26.96
19.48
11.54
4.29
-1.68
-6.60
-11.18
-16.06
-21.43
-26.90
-31.93
-35.93
-38.41
-38.81
-36.49
-31.01
-22.57
-12.34
-2.23
5.85
10.86
13.07
13.77
14.34
15.29
15.94
15.01
11.90
7.53
4.36
5.28
12.01
23.97
38.10
50.05
55.66
52.39
39.92
19.90
-4.55
-29.66
-51.69
-67.58
-75.52
-75.35
-68.44
-57.18
-44.08
-31.11
-19.50
-9.97
-3.11
0.54
0.80
-1.79
-5.94
-9.95
-12.45
-12.93
-11.80
-10.03
-8.55
-7.78
-7.56
-7.24
-6.23
-4.19
-1.29
1.92
4.74
6.60
7.36
7.30
6.96
6.84
7.04
7.24
6.94
5.74
3.64
1.06
-1.43
-3.39
-4.60
-5.15
-5.22
-5.01
-4.68
-4.42
-4.48
-5.03
-6.17
-7.76
-9.47
-10.94
-11.94
-12.46
-12.64
-12.61
-12.45
-12.15
-11.64
-10.93
-10.08
-9.14
-8.15
-7.05
-5.75
-4.18
-2.23
0.08
2.67
5.38
7.93
10.05
11.52
12.27
12.40
12.10
11.60
11.08
10.61
10.27
10.17
10.45
11.28
12.65
14.36
15.98
16.91
16.62
14.86
11.75
7.81
3.74
0.21
-2.39
-3.95
-4.57
-4.46
-3.80
-2.77
-1.58
-0.56
-0.04
-0.32
-1.40
-2.93
-4.25
-4.71
-3.90
-1.93
0.66
3.09
4.66
4.94
3.79
1.26
-2.29
-6.03
-8.42
-7.26
-0.34
13.58
33.87
57.90
81.76
101.74
115.52
122.64
124.08
121.26
115.12
106.00
94.01
79.72
64.48
50.12
38.23
29.70
24.42
21.64
20.43
20.07
20.07
19.96
19.28
17.62
14.94
11.88
9.80
10.34
14.67
22.81
33.30
43.59
50.76
52.56
47.97
37.26
21.74
3.06
-17.15
-37.68
-57.79
-77.21
-96.01
-114.43
-132.89
-151.89
-171.81
-192.34
-212.07
-228.09
-236.36
-232.84
-214.71
-181.31
-134.27
-76.91
-13.40
51.64
113.12
165.36
202.62
220.59
218.03
197.83
166.55
132.42
102.76
82.03
71.24
68.52
70.41
72.89
72.17
65.23
50.46
28.39
2.00
-23.77
-43.59
-53.54
-52.67
-43.22
-29.47
-15.83
-5.03
2.58
8.63
15.34
24.21
35.32
47.45
59.07
69.08
77.40
84.67
91.77
99.25
107.18
115.23
122.73
128.45
130.32
125.67
112.29
89.97
61.81
33.75
12.46
2.02
1.47
4.75
3.41
-9.21
-34.76
-69.27
-105.40
-136.25
-158.33
-172.32
-181.87
-191.39
-204.33
-222.36
-245.15
-270.44
-294.32
-311.78
-317.96
-309.67
-286.62
-251.50
-208.78
-162.98
-117.24
-72.89
-30.03
11.29
50.31
85.44
114.81
136.74
150.10
154.19
148.39
132.15
105.38
68.70
23.99
-25.99
-77.81
-127.71
-171.51
-204.65
-222.73
-223.05
-206.41
-177.65
-144.31
-113.49
-88.59
-68.09
-47.13
-21.17
10.33
42.89
69.18
83.15
83.63
74.91
63.84
56.37
54.84
57.57
60.71
61.25
59.00
56.90
59.12
67.72
81.94
98.97
116.09
132.01
147.75
165.39
186.48
210.34
232.04
245.60
247.22
237.19
219.37
199.29
182.24
171.88
169.24
169.76
167.22
156.74
136.78
108.48
74.17
36.14
-3.78
-44.55
-89.55
-141.84
-201.45
-264.54
-326.05
-382.34
-432.29
-475.89
-490.61
-460.84
-387.79
-291.07
-193.05
-107.10
-37.35
16.37
55.57
82.81
98.50
105.83
111.45
123.00
144.99
175.54
206.76
229.38
237.09
226.01
198.02
159.43
117.96
79.94
52.83
39.85
40.69
53.12
70.06
87.41
101.48
108.70
106.90
95.14
73.43
42.23
3.68
-41.46
-92.73
-141.52
-178.52
-198.20
-201.58
-193.57
-178.74
-159.86
-139.32
-119.38
-102.83
-93.41
-93.45
-101.73
-112.70
-117.56
-107.58
-78.62
-33.28
19.44
67.15
99.75
113.92
113.60
106.97
101.74
101.70
106.52
113.32
118.05
117.37
108.86
90.76
62.47
25.98
-13.26
-47.04
-67.19
-70.04
-58.59
-41.55
-28.92
-27.36
-37.15
-53.57
-70.54
-84.62
-96.69
-110.10
-126.21
-141.28
-148.30
-137.47
-104.80
-54.70
1.17
48.51
76.09
79.50
62.05
32.84
3.15
-17.42
-22.78
-11.12
15.04
49.79
85.43
114.32
130.50
131.26
116.86
90.34
56.51
20.66
-12.59
-39.96
-59.80
-72.22
-78.39
-80.96
-83.29
-88.72
-99.15
-113.77
-128.33
-135.70
-128.96
-104.25
-63.46
-13.58
35.91
76.27
101.14
106.28
89.51
50.79
-6.39
-74.41
-142.25
-198.28
-232.60
-239.86
-222.46
-188.61
-148.54
-110.21
-78.03
-53.41
-36.32
-26.48
-23.00
-23.68
-23.75
-17.08
1.99
34.44
74.40
110.03
127.33
116.07
74.68
12.43
-52.96
-100.02
-112.36
-84.65
-23.76
55.37
136.54
207.89
264.46
306.85
340.29
368.75
392.92
410.90
421.19
424.58
422.79
415.96
401.43
378.75
349.92
319.65
294.11
278.09
272.29
272.29
270.56
244.80
185.46
100.25
10.31
-64.20
-115.71
-148.66
-171.32
-187.15
-198.34
-202.49
-199.07
-192.87
-192.35
-206.02
-239.06
-290.98
-355.19
-422.37
-480.14
-517.59
-528.77
-513.61
-477.20
-428.37
-377.20
-332.33
-299.11
-278.62
-265.26
-254.45
-244.09
-233.29
-221.26
-206.15
-184.96
-154.75
-113.13
-60.24
0.17
58.16
104.18
132.33
142.70
141.01
135.42
132.87
135.89
141.30
142.85
135.52
117.82
92.43
64.31
38.25
17.22
2.38
-6.43
-9.35
-5.70
5.25
23.64
48.48
77.65
108.48
138.70
166.93
193.23
219.04
246.04
274.87
304.29
331.10
350.90
359.69
355.13
337.60
310.15
277.37
243.95
213.24
186.68
163.86
143.12
122.44
100.19
75.52
48.37
19.27
-10.85
-40.75
-68.92
-93.60
-113.21
-126.72
-134.12
-136.46
-135.58
-133.38
-131.20
-129.50
-127.92
-125.73
-122.39
-117.80
-112.24
-106.23
-100.18
-94.16
-87.92
-80.96
-72.77
-62.99
-51.65
-39.07
-25.82
-12.63
-0.28
10.40
18.60
23.64
25.18
23.38
18.99
13.29
7.67
3.29
0.83
0.36
1.52
3.71
6.38
9.11
11.69
14.08
16.30
18.42
20.37
21.93
22.70
22.30
20.50
17.42
13.49
9.37
5.77
3.21
1.98
2.11
3.46
5.83
9.05
12.98
17.57
22.77
28.48
34.51
40.53
45.95
50.15
52.55
52.80
51.02
47.78
43.98
40.63
38.52
38.08
39.36
42.13
46.00
50.53
55.29
59.78
63.46
65.76
66.17
64.37
60.29
54.20
46.62
38.14
29.23
20.13
10.88
1.44
-8.09
-17.39
-26.00
-33.45
-39.57
-44.49
-48.49
-51.76
-54.17
-55.32
-54.77
-52.42
-48.72
-44.70
-41.73
-40.92
-42.84
-47.13
-52.73
-58.19
-62.30
-64.38
-64.43
-62.99
-60.68
-57.98
-54.95
-51.35
-46.90
-41.49
-35.33
-28.91
-22.80
-17.43
-12.96
-9.36
-6.55
-4.50
-3.26
-2.84
-3.09
-3.61
-3.89
-3.49
-2.33
-0.69
0.86
1.81
1.88
1.19
0.08
-1.01
-1.80
-2.26
-2.51
-2.73
-3.03
-3.46
-3.96
-4.44
-4.85
-5.13
-5.22
-5.06
-4.61
-3.93
-3.22
-2.76
-2.84
-3.61
-4.97
-6.62
-8.12
-9.09
-9.35
-8.97
-8.22
-7.46
-6.86
-6.45
-6.03
-5.41
-4.43
-3.13
-1.71
-0.41
0.60
1.33
1.93
2.53
3.16
3.64
3.69
3.05
1.74
0.06
-1.43
-2.20
-1.98
-0.87
0.74
2.31
3.38
3.70
3.22
2.07
0.42
-1.52
-3.50
-5.35
-6.95
-8.29
-9.45
-10.64
-12.08
-13.94
-16.17
-18.53
-20.56
-21.75
-21.71
-20.43
-18.29
-15.96
-14.10
-13.15
-13.13
-13.74
-14.57
-15.23
-15.48
-15.19
-14.26
-12.66
-10.46
-7.92
-5.38
-3.21
-1.53
-0.28
0.77
1.87
3.09
4.44
5.78
6.97
7.92
8.53
8.75
8.63
8.28
7.94
7.87
8.32
9.44
11.24
13.63
16.33
18.97
21.08
22.17
21.94
20.32
17.58
14.20
10.72
7.57
4.95
2.91
1.37
0.25
-0.57
-1.18
-1.68
-2.23
-2.88
-3.67
-4.51
-5.29
-5.94
-6.45
-6.91
-7.46
-8.19
-9.18
-10.41
-11.81
-13.32
-14.86
-16.46
-18.11
-19.74
-21.18
-22.14
-22.31
-21.52
-19.80
-17.34
-14.37
-10.99
-7.15
-2.73
2.26
7.49
12.40
16.31
18.77
19.71
19.46
18.50
17.24
15.82
14.12
11.95
9.29
6.35
3.54
1.30
-0.17
-0.92
-1.20
-1.30
-1.34
-1.23
-0.77
0.11
1.24
2.21
2.58
2.05
0.70
-1.10
-2.83
-4.02
-4.47
-4.19
-3.43
-2.45
-1.48
-0.68
-0.11
0.26
0.46
0.58
0.68
0.77
0.81
0.78
0.62
0.37
0.09
-0.09
-0.02
0.43
1.32
2.64
4.28
6.06
7.81
9.52
11.24
13.11
15.18
17.32
19.32
20.98
22.22
23.21
24.24
25.61
27.51
29.92
32.69
35.60
38.38
40.77
42.59
43.82
44.71
45.83
47.77
50.86
54.84
58.83
61.57
61.87
59.07
53.25
45.15
35.87
26.48
17.83
10.38
4.26
-0.70
-4.87
-8.74
-12.70
-16.97
-21.52
-26.16
-30.66
-34.80
-38.45
-41.49
-43.86
-45.62
-47.00
-48.46
-50.45
-53.18
-56.42
-59.58
-61.87
-62.71
-61.89
-59.51
-55.86
-51.17
-45.61
-39.29
-32.44
-25.36
-18.28
-11.26
-4.12
3.28
10.84
17.89
23.38
26.08
25.12
20.45
12.94
4.20
-3.97
-10.09
-13.55
-14.63
-14.41
-14.21
-15.07
-17.43
-21.05
-25.28
-29.35
-32.81
-35.63
-38.00
-40.07
-41.64
-42.21
-41.16
-38.22
-33.72
-28.57
-23.89
-20.41
-18.19
-16.54
-14.46
-11.17
-6.56
-1.23
3.69
7.10
8.24
6.90
3.43
-1.59
-7.48
-13.67
-19.71
-25.18
-29.58
-32.33
-32.79
-30.52
-25.44
-18.02
-9.10
0.33
9.39
17.55
24.59
30.53
35.38
39.15
41.84
43.65
44.86
45.79
46.66
47.39
47.74
47.46
46.46
44.81
42.71
40.28
37.46
34.06
29.83
24.63
18.45
11.47
4.05
-3.23
-9.73
-14.75
-17.77
-18.75
-18.09
-16.66
-15.43
-15.19
-16.24
-18.35
-20.91
-23.18
-24.61
-24.94
-24.30
-23.06
-21.71
-20.70
-20.26
-20.34
-20.63
-20.73
-20.24
-19.03
-17.27
-15.36
-13.68
-12.42
-11.47
-10.55
-9.51
-8.36
-7.34
-6.64
-6.26
-5.94
-5.41
-4.62
-3.84
-3.56
-4.00
-4.89
-5.34
-4.33
-1.22
3.84
9.86
15.56
19.95
22.77
24.46
25.78
27.30
29.03
30.43
30.80
29.60
26.65
22.19
16.69
10.65
4.51
-1.42
-6.92
-11.86
-16.14
-19.80
-22.94
-25.74
-28.26
-30.37
-31.66
-31.49
-29.30
-24.85
-18.55
-11.35
-4.52
0.82
4.00
4.92
3.80
1.00
-3.21
-8.53
-14.47
-20.13
-24.23
-25.45
-22.95
-16.84
-8.22
1.08
9.13
14.50
16.65
15.97
13.45
10.28
7.45
5.60
5.13
6.20
8.85
12.82
17.58
22.37
26.33
28.81
29.49
28.41
25.94
22.62
18.98
15.55
12.65
10.41
8.74
7.32
5.89
4.36
2.91
1.98
1.98
3.02
4.77
6.52
7.41
6.78
4.47
0.78
-3.54
-7.59
-10.56
-11.91
-11.43
-9.35
-6.24
-2.86
0.09
2.27
3.77
4.89
5.94
6.86
7.21
6.48
4.53
1.84
-0.66
-2.07
-2.05
-0.92
0.64
2.17
3.90
6.66
11.39
18.41
27.13
36.14
43.89
49.26
51.99
52.57
51.84
50.54
49.07
47.56
46.03
44.57
43.42
42.89
43.25
44.58
46.63
48.82
50.22
49.59
45.82
38.30
27.38
14.47
1.68
-8.77
-15.50
-18.42
-18.77
-18.51
-19.35
-22.04
-26.12
-30.28
-33.13
-33.83
-32.40
-29.57
-26.46
-24.15
-23.55
-25.38
-30.15
-37.94
-48.27
-60.00
-71.87
-83.05
-93.58
-104.43
-117.23
-133.26
-152.37
-172.40
-189.27
-198.18
-194.78
-176.16
-141.52
-93.01
-35.30
25.22
81.50
127.20
157.62
170.92
168.92
157.30
143.49
134.77
135.88
147.06
163.73
177.38
178.80
161.89
126.71
78.68
26.62
-20.72
-57.41
-78.73
-83.53
-75.35
-63.94
-54.48
-48.38
-44.75
-42.29
-40.73
-39.29
-36.87
-32.10
-22.86
-8.95
6.32
20.63
35.11
51.87
71.28
90.59
105.52
109.33
97.04
67.45
27.03
-12.93
-40.12
-46.33
-31.55
-4.60
20.88
32.82
24.85
0.24
-33.46
-68.60
-101.23
-132.15
-165.10
-203.50
-241.92
-281.91
-314.58
-331.71
-327.91
-302.27
-258.34
-202.67
-142.34
-82.50
-26.34
26.86
77.30
124.03
164.68
196.75
219.38
234.75
248.09
265.28
291.69
327.62
367.96
403.46
424.58
425.56
407.01
375.76
341.39
313.10
295.22
286.76
283.12
278.98
270.63
256.76
237.65
213.82
185.83
153.94
118.88
82.20
45.94
11.99
-18.86
-47.25
-74.94
-103.79
-134.93
-168.23
-202.28
-235.06
-264.71
-290.29
-312.08
-331.77
-352.26
-376.66
-406.88
-441.95
-477.23
-505.29
-518.47
-512.10
-486.79
-448.45
-405.89
-367.38
-337.75
-317.56
-304.40
-295.21
-288.02
-282.44
-278.76
-276.82
-275.44
-272.70
-266.89
-257.27
-244.31
-229.44
-214.22
-199.53
-185.11
-169.69
-151.55
-129.29
-102.43
-71.44
-37.28
-0.56
38.82
81.25
126.43
172.52
216.14
253.41
281.78
301.22
314.27
324.71
335.70
348.29
361.27
371.96
377.61
376.34
367.44
351.01
327.80
299.27
267.69
236.18
207.92
185.04
167.59
153.04
136.65
112.81
77.02
27.78
-31.95
-94.98
-151.37
-191.14
-207.32
-197.83
-165.53
-116.52
-57.86
4.32
65.12
120.33
166.10
198.78
216.24
219.38
212.72
203.19
197.44
199.11
207.73
220.26
232.26
240.30
243.08
241.50
237.68
233.54
229.82
226.05
221.75
215.69
206.41
192.65
174.04
151.48
126.82
102.16
79.55
61.35
48.40
39.99
34.21
29.02
23.17
16.39
9.14
-5.45
-30.14
-63.32
-99.26
-131.60
-156.46
-173.01
-181.01
-183.03
-180.88
-175.35
-168.62
-164.50
-168.03
-183.63
-213.69
-258.75
-318.16
-385.46
-449.38
-496.54
-515.64
-502.17
-459.59
-398.10
-331.31
-271.94
-227.55
-199.26
-184.64
-178.00
-175.92
-176.88
-180.23
-184.83
-188.62
-188.66
-182.57
-169.77
-151.38
-131.03
-111.98
-95.86
-82.32
-69.60
-55.35
-37.97
-17.51
4.46
25.21
42.56
55.64
65.20
73.21
82.24
94.21
109.73
128.00
147.15
165.35
181.49
195.54
208.39
221.47
236.25
253.88
275.09
299.66
326.25
352.02
372.78
383.98
382.27
366.90
340.15
306.64
271.51
238.78
210.29
185.83
164.18
144.18
125.41
108.04
92.31
78.08
64.77
51.72
38.68
26.00
14.61
5.48
-0.86
-4.63
-6.69
-8.17
-9.97
-12.41
-15.23
-17.86
-19.85
-21.08
-21.86
-22.73
-24.15
-26.33
-29.17
-32.32
-35.42
-38.17
-40.47
-42.33
-43.84
-45.09
-46.14
-47.11
-48.13
-49.27
-50.45
-51.45
-51.94
-51.68
-50.69
-49.32
-48.10
-47.58
-48.01
-49.29
-50.90
-52.17
-52.43
-51.24
-48.53
-44.61
-40.15
-35.99
-32.96
-31.61
-31.95
-33.40
-34.87
-35.00
-32.60
-26.94
-18.03
-6.60
6.01
18.31
28.95
37.10
42.45
45.19
45.73
44.64
42.46
39.70
36.83
34.23
32.22
30.98
30.57
30.94
31.98
33.59
35.57
37.63
39.39
40.60
41.14
41.17
40.96
40.74
40.66
40.53
39.93
38.43
35.89
32.51
28.69
24.88
21.31
18.05
14.80
11.09
6.65
1.70
-3.01
-6.48
-7.78
-6.31
-1.88
4.89
12.64
19.74
24.88
27.46
27.44
25.10
20.74
14.53
5.71
-7.24
-26.08
-51.69
-83.55
-119.80
-157.77
-194.49
-223.87
-239.10
-235.62
-214.19
-180.27
-140.84
-101.48
-65.23
-33.24
-5.51
17.87
36.69
50.54
59.72
65.32
68.66
71.17
74.05
78.09
83.15
88.76
92.58
92.32
86.20
73.28
53.66
28.48
-0.34
-31.07
-61.06
-88.99
-114.39
-137.21
-157.56
-175.67
-192.11
-207.36
-221.02
-231.00
-233.86
-225.51
-203.79
-170.32
-130.71
-92.87
-63.73
-46.26
-38.95
-37.90
-38.29
-37.57
-35.60
-33.17
-31.03
-28.86
-25.70
-20.85
-15.15
-10.62
-9.86
-14.96
-25.54
-39.31
-52.64
-61.76
-64.11
-59.31
-48.98
-36.09
-23.56
-12.18
-1.04
12.12
29.89
53.97
84.34
119.49
157.64
192.19
220.31
241.65
257.88
271.70
285.88
302.63
322.99
346.18
368.95
386.57
392.82
382.43
353.61
309.41
257.11
205.55
161.74
128.43
104.71
87.13
72.75
61.15
54.67
56.81
69.90
93.30
122.94
152.94
177.03
190.65
192.42
184.12
169.71
153.62
139.40
128.97
123.00
121.27
123.09
127.41
132.42
135.53
133.65
124.21
106.17
80.69
50.76
20.14
-7.87
-31.60
-51.08
-67.66
-83.11
-98.90
-115.78
-133.76
-152.44
-171.19
-189.58
-207.54
-225.51
-244.23
-264.27
-285.43
-306.18
-323.84
-335.34
-338.34
-332.19
-318.08
-298.38
-275.40
-250.53
-223.84
-194.74
-162.73
-128.26
-92.84
-58.81
-28.81
-5.10
11.02
19.71
22.75
23.32
24.71
28.95
35.61
41.74
43.02
35.63
17.94
-9.11
-42.59
-78.65
-113.18
-142.08
-161.40
-168.18
-161.79
-144.86
-122.97
-102.44
-87.28
-77.24
-67.84
-53.19
-29.61
1.79
35.47
64.43
83.76
92.89
94.85
94.03
93.43
93.42
92.22
87.56
78.55
66.42
53.79
42.73
34.03
27.10
20.74
14.06
7.38
2.25
0.85
5.05
13.74
24.35
33.76
39.64
41.14
38.84
34.41
30.07
27.76
25.10
18.41
4.08
-19.98
-54.35
-98.39
-150.29
-206.99
-264.40
-323.15
-383.44
-443.21
-497.66
-541.67
-572.92
-593.35
-607.89
-621.24
-641.26
-670.47
-704.08
-732.36
-747.38
-748.37
-741.52
-735.47
-692.14
-585.20
-407.98
-179.80
64.49
291.18
478.76
620.03
718.21
779.29
810.74
815.38
795.91
759.77
715.65
670.09
627.38
589.38
557.07
524.81
483.61
427.39
359.16
286.36
217.00
160.11
122.84
107.63
107.41
107.34
93.70
63.77
21.14
-29.11
-79.11
-121.12
-149.52
-148.55
-112.14
-67.57
-27.54
11.82
46.97
73.44
87.67
88.34
75.71
48.96
8.78
-38.20
-86.90
-139.31
-197.32
-260.68
-325.97
-387.61
-441.74
-485.04
-511.76
-497.00
-430.32
-318.30
-183.45
-51.54
60.34
145.39
204.78
245.36
273.23
288.55
291.16
282.56
266.87
249.52
234.62
223.94
219.06
217.71
213.31
200.21
175.56
139.87
95.41
44.64
-8.56
-58.36
-98.17
-123.39
-131.53
-123.57
-104.07
-80.36
-59.80
-47.25
-43.41
-45.79
-51.25
-57.35
-62.87
-66.78
-68.94
-67.36
-60.59
-48.45
-32.28
-14.42
2.89
18.10
31.46
43.80
55.95
67.76
78.37
86.27
90.55
91.15
89.24
87.70
89.49
96.87
109.78
125.77
140.32
148.97
149.62
139.61
122.96
107.41
101.61
111.22
136.27
170.19
201.74
218.52
211.28
177.59
121.27
50.88
-23.76
-94.55
-157.17
-211.16
-259.13
-305.07
-352.32
-403.25
-457.90
-513.21
-563.09
-599.70
-615.91
-607.95
-576.89
-527.50
-466.58
-400.21
-332.23
-264.41
-197.73
-133.89
-75.60
-25.99
12.77
40.18
57.66
67.97
74.33
79.62
85.59
92.85
101.23
110.71
121.74
135.65
154.08
178.47
209.35
246.20
287.86
332.72
378.03
418.86
447.74
456.20
438.10
393.35
329.77
261.46
204.10
169.27
160.26
171.43
191.59
209.21
216.90
212.90
199.82
181.56
160.70
137.53
110.63
78.40
40.17
-3.62
-52.54
-107.14
-168.89
-238.47
-313.45
-387.06
-449.28
-490.32
-504.73
-493.64
-464.24
-426.61
-389.72
-358.49
-333.33
-311.76
-291.09
-270.09
-249.36
-230.33
-213.78
-198.93
-183.38
-163.95
-137.80
-103.34
-60.38
-9.76
47.26
109.66
176.88
248.52
323.90
401.83
480.73
558.84
633.78
701.78
757.19
793.16
803.55
785.55
741.64
679.41
609.50
542.12
484.31
438.83
405.19
381.64
366.65
359.06
357.22
358.10
357.21
349.71
332.08
303.20
264.61
219.41
170.67
119.89
66.46
7.92
-59.03
-137.44
-229.51
-335.89
-455.03
-582.24
-709.42
-825.96
-921.00
-986.58
-1019.85
-1023.65
-1004.62
-970.14
-925.43
-872.52
-811.32
-741.52
-664.29
-582.55
-500.16
-420.41
-345.05
-274.16
-206.81
-141.91
-78.75
-17.48
41.30
96.66
148.16
195.96
240.78
283.54
324.66
363.91
400.80
435.41
468.74
502.26
536.52
569.56
596.38
610.08
604.63
577.54
531.21
472.14
408.38
347.07
292.56
246.44
208.41
177.25
151.12
127.19
101.15
67.08
18.96
-47.29
-131.20
-226.83
-323.61
-409.49
-475.19
-517.05
-537.80
-544.32
-544.02
-541.59
-537.95
-531.48
-520.30
-504.08
-484.24
-463.01
-441.95
-421.19
-399.64
-375.94
-349.62
-321.21
-292.25
-264.32
-238.43
-214.72
-192.57
-171.16
-149.82
-128.42
-107.07
-85.87
-64.30
-41.24
-15.13
15.59
51.74
93.10
138.21
184.68
229.67
270.46
304.80
331.09
348.43
356.70
356.40
348.68
335.13
317.69
298.82
281.86
271.02
270.79
284.05
310.05
343.07
373.14
388.94
381.73
348.33
291.45
217.55
133.91
46.73
-38.83
-117.62
-183.67
-230.90
-255.10
-256.04
-237.86
-207.73
-173.28
-140.18
-111.22
-86.77
-65.42
-45.18
-24.03
0.09
28.94
63.37
102.45
142.45
176.32
194.46
187.46
149.79
83.28
-1.89
-89.70
-163.45
-211.14
-228.57
-218.84
-188.96
-145.84
-93.90
-35.30
28.31
94.02
157.57
214.92
264.20
306.93
347.83
392.46
444.22
501.65
557.74
601.17
620.28
607.54
562.84
494.05
413.76
334.47
263.75
202.23
144.59
83.08
11.84
-70.05
-158.10
-244.07
-318.87
-375.50
-410.89
-425.76
-423.49
-407.75
-380.77
-343.03
-294.28
-234.74
-166.21
-92.16
-16.77
55.12
117.77
164.04
185.97
177.37
137.82
75.23
4.51
-57.25
-97.95
-114.75
-113.53
-103.31
-89.65
-71.45
-43.24
-0.66
55.00
116.36
174.40
223.92
266.32
307.60
352.58
399.77
440.38
462.17
455.23
417.29
354.35
277.42
197.97
123.64
56.28
-7.11
-71.86
-142.45
-219.70
-299.56
-374.01
-433.42
-469.96
-479.88
-464.39
-428.30
-377.48
-316.75
-249.25
-177.73
-106.02
-39.41
16.89
60.58
94.25
125.05
161.31
207.78
262.08
314.55
351.43
361.04
338.85
289.33
223.66
154.34
89.79
31.69
-23.71
-81.18
-141.32
-197.97
-239.35
-252.55
-228.83
-167.10
-74.39
36.29
149.41
250.45
328.64
378.59
400.84
401.12
388.28
371.23
355.81
343.12
329.97
311.03
281.91
241.04
189.51
130.08
65.57
-1.98
-70.86
-139.38
-205.89
-269.71
-331.56
-393.34
-456.52
-520.15
-579.86
-628.52
-658.69
-665.55
-648.61
-611.52
-560.23
-500.52
-436.34
-369.83
-302.09
-234.32
-168.19
-105.19
-45.69
11.53
68.72
127.27
185.84
239.26
279.21
297.16
287.87
251.58
193.76
122.84
47.37
-25.57
-90.23
-140.85
-171.18
-175.23
-149.24
-93.99
-15.67
75.22
166.38
246.74
308.89
349.71
370.42
375.57
371.65
365.79
364.52
372.61
392.30
423.05
460.59
497.06
522.83
529.17
511.01
469.03
408.96
339.63
271.13
210.68
161.18
122.02
91.11
66.34
47.17
33.46
24.73
22.43
26.42
34.85
45.05
55.23
64.60
75.03
88.29
104.93
128.29
158.68
193.10
226.49
254.29
273.50
285.77
293.59
298.43
305.58
316.23
327.15
331.93
324.37
300.04
260.74
209.76
116.45
-29.81
-218.65
-421.87
-609.94
-757.83
-874.66
-970.93
-1052.70
-1121.65
-1165.95
-1175.72
-1147.94
-1088.27
-1008.61
-923.49
-841.67
-767.68
-702.32
-639.97
-576.87
-513.27
-453.10
-400.97
-360.11
-328.24
-301.54
-276.74
-249.52
-218.79
-186.42
-155.97
-130.37
-111.06
-95.83
-81.70
-66.36
-47.54
-25.23
-1.16
22.01
42.16
58.27
71.48
83.54
95.81
109.30
123.66
137.70
149.95
159.69
167.15
173.93
182.00
192.95
207.48
225.14
244.86
265.35
285.73
305.68
325.27
344.80
364.79
386.21
410.50
438.95
471.23
504.13
531.04
543.13
532.34
494.48
431.26
349.99
261.09
174.52
97.27
32.31
-20.75
-64.04
-100.18
-132.05
-163.16
-197.56
-238.57
-286.86
-338.87
-387.14
-422.24
-436.33
-426.01
-393.31
-344.43
-287.00
-227.54
-170.32
-117.68
-70.97
-31.36
0.42
24.85
44.02
61.31
80.51
104.73
135.50
172.18
211.37
247.38
273.14
282.47
272.02
242.60
198.90
147.43
93.48
39.11
-17.01
-77.53
-143.28
-211.20
-274.52
-325.17
-357.11
-368.59
-362.15
-342.66
-314.63
-280.56
-240.73
-194.95
-144.01
-90.39
-37.54
11.95
57.76
101.98
147.86
197.12
247.67
293.20
324.40
331.80
309.26
256.09
177.79
85.14
-8.27
-88.70
-145.25
-171.86
-167.97
-137.54
-87.01
-23.04
48.68
122.94
193.69
253.32
293.93
310.68
305.34
286.99
268.74
261.77
269.46
285.62
297.41
291.59
260.99
207.75
142.02
77.21
24.92
-8.77
-23.44
-22.32
-9.68
10.56
34.64
58.26
75.80
80.97
68.46
35.59
-16.62
-84.00
-160.31
-238.39
-310.47
-368.75
-406.12
-417.89
-403.46
-366.69
-314.94
-256.46
-197.44
-139.73
-81.71
-20.09
47.69
121.29
198.27
274.02
342.59
398.03
436.84
457.98
463.21
455.94
438.53
413.50
382.21
345.18
303.71
262.60
227.54
202.76
188.35
178.28
166.39
148.43
123.60
95.16
70.15
53.53
45.54
42.00
35.63
25.06
13.82
6.05
-13.52
-59.06
-140.21
-253.71
-368.33
-466.19
-534.93
-568.90
-571.57
-550.02
-512.13
-465.00
-412.51
-355.84
-297.80
-239.60
-183.17
-131.31
-84.83
-41.29
2.87
50.89
104.13
160.18
217.34
274.47
319.77
344.90
347.55
331.45
303.38
267.74
222.82
165.16
93.23
10.26
-73.71
-146.13
-197.22
-223.69
-229.28
-222.35
-210.72
-199.09
-189.15
-179.54
-168.71
-156.43
-143.79
-132.23
-122.47
-113.57
-103.48
-90.70
-74.68
-57.06
-40.93
-29.33
-23.68
-22.97
-24.37
-24.84
-22.71
-17.90
-11.70
-5.70
-0.78
3.11
6.41
9.21
11.09
11.36
9.78
6.80
3.40
0.61
-0.95
-1.32
-0.97
-0.37
0.30
1.31
3.07
5.88
9.36
12.68
14.88
15.37
14.41
13.08
12.97
15.55
21.55
30.42
40.66
50.20
57.13
60.22
59.50
56.52
54.12
55.51
62.73
75.86
92.53
108.80
120.60
125.32
122.61
113.80
102.52
91.31
81.50
72.87
64.16
54.01
41.82
28.04
13.87
0.39
-11.85
-22.49
-31.22
-38.11
-43.79
-49.90
-58.14
-68.63
-78.98
-83.77
-76.29
-52.07
-12.08
36.90
84.83
122.69
145.60
151.74
142.30
119.88
87.13
46.36
0.22
-47.55
-92.38
-130.49
-163.97
-197.14
-233.28
-271.53
-306.67
-330.48
-334.45
-313.59
-269.65
-217.54
-175.10
-154.70
-157.73
-176.15
-198.26
-214.32
-220.98
-221.46
-229.97
-258.13
-308.02
-371.55
-436.74
-494.01
-538.26
-568.22
-544.33
-447.17
-289.10
-110.07
51.29
177.56
270.18
337.98
385.48
418.79
432.16
420.99
387.95
342.94
296.25
252.46
212.66
175.74
141.67
105.75
65.41
22.63
-16.91
-47.24
-64.51
-66.62
-52.92
-23.77
14.64
54.82
90.49
118.15
136.68
146.35
148.71
145.16
137.30
124.95
109.06
92.94
81.44
78.65
85.28
97.65
107.75
106.01
84.27
41.35
-14.64
-68.19
-102.01
-105.83
-78.04
-28.00
27.95
72.94
96.14
95.81
77.75
51.47
25.54
4.71
-10.54
-22.09
-32.35
-42.91
-53.90
-64.55
-73.32
-77.70
-75.61
-65.59
-47.47
-22.75
6.08
36.69
67.97
100.07
133.43
165.98
192.73
207.02
203.37
180.75
143.83
100.54
58.47
24.49
0.89
-13.86
-19.87
-17.06
-5.11
16.17
44.81
74.72
103.13
126.75
142.49
148.51
145.02
133.68
117.28
96.71
72.14
43.66
10.82
-26.71
-68.26
-112.18
-155.70
-195.43
-231.21
-264.04
-295.38
-327.19
-361.61
-400.32
-444.71
-496.06
-538.06
-559.24
-554.11
-523.74
-472.49
-405.37
-327.45
-245.45
-167.84
-102.47
-56.25
-30.57
-23.05
-25.69
-32.06
-38.57
-43.78
-47.08
-47.46
-45.47
-41.57
-36.33
-30.07
-23.27
-17.66
-13.72
-10.64
-6.56
-0.67
7.27
16.72
26.75
35.82
42.82
47.83
52.09
57.69
65.97
77.39
91.22
105.88
119.27
129.94
137.99
144.97
153.36
165.23
181.46
201.32
222.98
244.08
262.98
279.61
295.26
312.31
333.43
361.03
396.64
439.89
487.42
532.58
566.65
581.24
571.32
537.52
486.35
427.89
372.15
325.69
290.22
263.49
241.66
221.76
202.75
185.14
169.51
155.20
139.96
120.64
94.72
61.71
24.09
-13.28
-44.63
-65.07
-72.35
-67.02
-51.99
-31.64
-10.45
7.73
20.00
24.40
20.00
6.89
-13.77
-39.89
-68.86
-98.02
-125.46
-150.48
-173.70
-196.35
-219.13
-241.28
-260.39
-273.46
-278.44
-275.80
-268.81
-262.29
-260.41
-264.84
-274.30
-285.50
-294.80
-299.34
-297.33
-287.58
-269.49
-243.41
-211.63
-178.79
-150.99
-133.59
-128.72
-134.14
-143.82
-150.48
-148.57
-136.27
-115.63
-90.94
-66.75
-46.29
-30.97
-20.76
-14.96
-12.53
-12.16
-12.11
-10.48
-5.86
1.79
10.96
19.24
24.75
27.24
28.33
30.48
35.25
41.97
47.76
49.20
44.52
34.98
24.48
17.60
17.30
23.69
34.55
46.99
59.23
71.25
84.33
99.74
117.95
138.41
159.93
180.93
199.43
212.87
218.19
212.57
194.49
164.36
124.42
77.67
26.52
-27.96
-85.87
-146.85
-208.29
-264.40
-307.19
-329.21
-326.94
-302.77
-264.63
-222.86
-186.18
-158.53
-138.32
-120.37
-99.30
-72.39
-40.63
-7.80
21.83
45.57
63.15
76.12
86.54
95.51
102.53
105.95
104.04
96.22
83.50
68.04
52.08
37.10
23.59
11.59
1.47
-5.72
-8.37
-4.88
5.68
23.36
47.38
76.31
108.27
141.06
172.32
199.76
221.68
237.39
247.47
253.48
257.37
260.82
264.74
268.86
271.82
271.36
264.93
250.65
227.98
198.25
164.49
130.72
100.87
77.67
62.04
53.11
48.80
46.51
43.93
39.27
31.32
19.21
2.30
-19.85
-47.58
-80.84
-119.30
-162.77
-211.33
-265.19
-323.68
-384.14
-441.05
-486.73
-513.46
-516.32
-495.17
-454.73
-402.61
-346.35
-291.21
-239.61
-192.37
-150.44
-115.91
-91.49
-79.04
-78.34
-86.67
-100.09
-115.14
-130.15
-145.23
-161.48
-179.27
-197.21
-212.20
-220.31
-218.24
-204.51
-179.90
-146.93
-108.83
-68.60
-28.34
10.56
46.99
79.49
106.08
124.51
132.92
130.54
118.06
97.86
73.54
49.62
30.83
21.46
24.20
39.28
63.83
92.29
117.77
133.71
135.86
122.94
96.89
62.21
25.22
-6.97
-27.74
-32.38
-19.77
6.91
40.81
73.50
97.83
110.17
111.34
105.42
97.49
91.32
88.09
86.54
84.28
79.21
70.40
58.16
43.50
27.51
10.84
-6.10
-22.93
-38.83
-52.14
-60.69
-62.38
-56.21
-42.81
-24.50
-4.53
13.70
27.34
34.48
34.03
25.90
11.10
-8.04
-27.99
-44.71
-54.78
-56.54
-50.47
-39.21
-26.62
-16.76
-12.88
-16.49
-26.93
-41.53
-56.40
-67.68
-72.97
-71.86
-65.87
-57.48
-48.97
-41.73
-36.14
-31.97
-28.96
-27.01
-26.11
-26.03
-26.18
-25.60
-23.48
-19.63
-14.86
-10.74
-8.83
-9.76
-12.65
-15.60
-16.59
-14.71
-10.52
-5.58
-1.15
2.77
7.47
14.53
24.45
36.00
46.54
53.30
54.75
51.18
44.28
36.00
27.63
19.28
10.41
0.44
-10.66
-22.32
-33.66
-43.90
-52.61
-59.58
-64.72
-67.84
-68.55
-66.39
-61.00
-52.33
-40.84
-27.32
-12.57
2.98
19.47
37.58
58.13
81.68
108.42
138.19
170.53
204.62
238.84
270.52
296.26
312.64
317.47
310.47
293.45
269.39
241.36
211.60
181.49
152.02
124.33
100.05
80.86
67.96
61.44
60.37
63.29
68.78
75.80
83.55
91.26
97.76
101.77
102.29
99.13
93.13
85.71
78.18
71.10
64.21
56.71
47.93
37.77
26.70
15.44
4.47
-6.13
-16.65
-27.41
-38.54
-49.68
-59.97
-68.22
-73.27
-74.44
-71.70
-65.86
-58.26
-50.35
-43.28
-37.65
-33.64
-31.27
-30.55
-31.41
-33.50
-36.04
-37.95
-38.20
-36.36
-32.82
-28.62
-25.06
-23.07
-22.94
-24.24
-26.16
-27.83
-28.63
-28.29
-26.90
-24.70
-22.08
-19.37
-16.85
-14.57
-12.47
-10.37
-8.11
-5.70
-3.33
-1.39
-0.25
-0.08
-0.69
-1.58
-2.21
-2.32
-2.18
-2.58
-4.39
-8.01
-12.98
-17.91
-21.13
-21.39
-18.47
-13.38
-7.81
-3.24
-0.34
1.29
2.68
4.79
7.92
11.57
14.76
16.64
16.90
15.68
13.34
10.03
5.63
-0.04
-6.78
-13.92
-20.34
-24.87
-26.87
-26.47
-24.62
-22.69
-21.96
-23.12
-26.14
-30.42
-35.15
-39.70
-43.74
-47.03
-49.41
-50.53
-50.09
-48.12
-45.17
-42.10
-39.67
-38.04
-36.70
-34.84
-32.00
-28.43
-25.15
-23.46
-24.27
-27.62
-32.53
-37.16
-39.37
-37.43
-30.57
-19.37
-5.71
7.79
18.64
25.20
27.28
25.95
23.01
20.29
19.13
20.35
24.37
31.42
41.46
53.99
67.68
80.46
89.86
93.89
91.76
84.30
73.74
62.95
54.73
51.12
53.24
61.33
74.94
92.89
113.40
134.17
152.93
168.08
179.22
187.02
192.68
197.04
200.02
200.73
198.18
192.16
183.63
174.31
165.52
157.21
147.59
133.84
113.35
85.09
50.08
10.83
-29.80
-69.80
-108.55
-146.62
-185.00
-224.56
-265.83
-309.05
-353.92
-399.01
-440.98
-474.55
-493.49
-492.64
-469.95
-427.31
-369.76
-303.48
-233.83
-164.77
-99.63
-42.34
2.30
30.00
39.25
32.95
18.08
3.35
-4.12
-1.26
10.47
26.70
42.58
54.92
62.99
67.87
71.17
73.80
75.53
75.40
72.46
66.74
59.69
53.67
50.95
52.70
58.25
65.25
70.60
71.49
66.29
54.87
38.52
19.52
0.72
-14.97
-25.13
-28.34
-24.71
-15.76
-4.03
7.87
18.01
25.73
31.41
35.98
40.44
45.38
51.05
57.47
64.64
72.49
80.76
88.90
96.11
101.63
105.12
106.94
108.10
109.90
113.32
118.60
124.90
130.58
133.68
132.59
126.70
116.15
101.43
82.83
60.14
32.90
0.86
-35.45
-74.61
-114.26
-151.76
-184.62
-210.99
-229.73
-240.51
-243.74
-240.54
-232.46
-221.02
-207.54
-192.89
-177.32
-160.42
-141.32
-119.16
-93.80
-66.28
-38.34
-12.50
8.78
24.30
34.67
42.04
49.01
57.12
66.31
76.35
86.38
95.61
103.86
111.70
120.08
129.73
140.48
151.40
162.78
174.37
185.22
193.92
199.62
202.84
205.69
211.34
222.91
244.34
275.98
313.38
347.91
370.17
373.57
356.62
323.21
265.81
186.25
93.69
1.97
-76.74
-135.95
-175.12
-197.07
-205.76
-205.26
-197.00
-183.01
-165.08
-147.40
-134.03
-127.80
-129.94
-140.99
-161.65
-191.08
-227.80
-267.22
-302.54
-325.47
-328.94
-310.20
-272.87
-226.02
-179.48
-141.21
-114.63
-99.05
-91.49
-87.54
-83.57
-77.01
-65.79
-47.21
-18.99
19.12
63.57
107.27
139.30
150.51
138.19
107.69
70.41
38.60
20.39
17.02
23.87
34.22
43.19
49.35
54.02
59.06
65.21
71.88
77.85
82.07
84.76
87.17
90.84
96.43
103.60
110.03
113.06
110.46
101.12
85.26
64.31
40.18
15.14
-9.17
-32.06
-53.14
-72.10
-88.41
-101.43
-110.47
-115.29
-115.99
-113.73
-109.98
-105.95
-102.32
-99.29
-96.72
-94.33
-92.02
-89.63
-87.75
-86.99
-87.53
-89.03
-90.91
-92.50
-93.20
-94.11
-93.73
-91.19
-85.51
-75.38
-59.63
-37.56
-9.88
21.45
53.30
82.32
104.97
119.01
123.78
119.93
108.70
91.44
69.05
42.03
12.07
-19.94
-52.96
-86.18
-118.80
-149.37
-175.09
-191.77
-195.16
-182.89
-156.64
-122.10
-87.50
-60.47
-45.37
-42.03
-46.99
-55.36
-63.03
-67.99
-68.12
-61.84
-48.04
-26.56
1.28
32.34
62.87
89.88
111.92
129.81
145.18
159.42
172.37
182.38
186.57
182.63
170.21
151.47
131.10
114.75
107.67
112.71
128.72
149.78
166.18
167.18
145.18
100.33
40.92
-18.14
-60.46
-74.54
-58.21
-19.43
27.16
65.48
84.80
81.57
59.87
28.95
-1.42
-24.33
-37.52
-42.15
-42.03
-40.61
-42.79
-53.38
-75.08
-107.93
-149.00
-193.64
-232.86
-264.16
-283.85
-291.83
-289.84
-279.31
-261.67
-238.17
-211.07
-181.08
-147.92
-109.16
-62.39
-5.19
64.91
147.04
235.84
320.11
388.38
432.05
449.22
443.96
418.00
378.84
335.64
305.16
288.33
279.55
269.49
253.76
230.83
200.96
165.48
124.29
76.16
18.60
-47.03
-113.98
-172.93
-215.84
-237.76
-237.68
-219.64
-191.55
-164.39
-147.36
-145.03
-160.11
-194.29
-247.37
-311.45
-373.41
-417.52
-432.94
-428.85
-412.33
-389.65
-366.27
-341.28
-314.94
-287.75
-260.60
-235.61
-214.33
-194.30
-171.22
-139.17
-92.07
-26.82
54.50
143.43
226.07
287.51
318.07
314.74
282.74
233.96
182.70
141.76
119.06
115.94
127.83
147.43
165.36
172.24
160.34
124.83
65.94
-10.34
-93.22
-169.64
-227.36
-259.47
-265.99
-253.16
-231.05
-208.60
-191.07
-179.48
-172.10
-166.00
-158.66
-147.91
-132.49
-112.86
-89.56
-63.14
-35.24
-8.77
12.93
27.44
35.67
40.83
45.54
55.04
76.38
114.39
168.97
233.91
298.84
354.52
394.02
410.98
406.22
387.75
364.88
345.52
334.24
333.06
343.60
364.23
385.30
398.57
401.69
396.19
387.34
382.51
369.07
337.19
312.29
301.61
291.03
274.18
250.20
222.49
195.75
174.57
161.80
154.92
142.43
114.35
67.00
0.46
-82.29
-185.51
-302.12
-415.47
-508.17
-573.90
-614.53
-637.55
-649.38
-653.10
-649.23
-634.94
-608.33
-570.71
-528.31
-486.41
-446.45
-407.73
-369.29
-331.20
-293.63
-257.88
-226.39
-202.42
-187.00
-177.85
-170.80
-161.75
-147.86
-127.24
-100.06
-68.17
-34.60
-1.47
31.06
64.50
100.90
141.82
187.80
237.13
286.06
329.65
363.21
383.74
390.90
387.14
377.45
368.74
367.67
378.50
400.95
429.57
454.95
466.77
457.14
422.77
365.48
291.43
209.78
131.17
65.66
20.35
-2.98
-8.54
-5.57
-4.68
-13.64
-34.82
-65.66
-102.23
-142.54
-187.71
-239.45
-296.65
-353.09
-398.97
-425.17
-427.85
-410.43
-381.55
-350.76
-324.04
-302.30
-281.97
-258.35
-228.67
-193.47
-156.17
-121.13
-91.53
-68.22
-49.97
-33.86
-16.84
2.99
26.71
54.94
88.55
128.44
174.30
222.21
264.24
289.76
289.54
260.73
209.75
151.11
102.37
77.87
82.19
110.83
153.47
199.51
242.57
281.01
315.61
345.88
369.53
380.32
374.18
351.15
315.77
274.79
233.49
193.33
152.56
111.00
68.83
32.54
10.51
7.74
21.58
41.44
53.16
45.72
18.84
-22.51
-65.52
-98.13
-114.47
-116.55
-112.34
-111.32
-133.44
-163.83
-201.34
-239.77
-273.13
-298.22
-315.19
-326.37
-334.31
-339.41
-337.32
-326.67
-304.85
-272.13
-231.89
-189.06
-147.48
-108.21
-69.65
-27.37
19.01
70.07
124.83
180.92
234.86
281.96
316.46
332.66
328.02
301.86
258.98
206.72
151.89
98.01
45.41
-6.92
-57.91
-101.72
-130.16
-135.04
-113.09
-68.11
-9.55
52.47
110.38
160.96
204.55
241.58
270.51
287.78
289.93
276.43
252.23
224.81
200.81
183.14
170.55
158.95
145.23
129.91
117.24
113.80
122.39
138.63
151.92
150.26
125.57
78.00
15.98
-55.10
-124.10
-179.89
-216.11
-232.87
-231.08
-215.54
-190.54
-160.43
-130.85
-109.84
-105.18
-122.96
-165.22
-229.28
-304.26
-373.36
-420.41
-436.79
-423.89
-392.21
-355.98
-328.50
-312.28
-303.21
-294.65
-281.64
-262.85
-239.42
-213.83
-188.48
-165.22
-144.70
-127.46
-114.03
-104.90
-100.25
-98.68
-97.46
-93.18
-82.06
-60.40
-25.82
22.37
82.82
152.68
229.19
309.68
391.90
473.27
549.87
615.10
660.60
678.60
665.23
623.43
561.26
489.07
415.67
346.24
282.04
222.40
167.13
112.32
59.43
12.16
-25.60
-52.11
-67.79
-74.33
-73.56
-66.83
-54.95
-38.09
-16.62
7.78
31.75
51.97
65.76
71.48
68.13
55.23
33.30
2.72
-35.81
-82.34
-135.72
-193.69
-253.20
-310.83
-363.17
-406.62
-438.16
-454.69
-456.85
-446.98
-428.94
-407.64
-388.44
-376.51
-376.30
-391.70
-415.33
-442.34
-466.91
-481.92
-480.18
-456.75
-411.27
-348.99
-287.15
-232.47
-189.38
-158.63
-137.91
-123.67
-113.07
-104.98
-98.31
-92.81
-86.18
-77.66
-66.38
-52.03
-35.22
-17.43
-0.43
15.09
30.17
48.56
73.00
105.51
146.60
194.89
246.99
298.47
345.46
385.61
418.86
445.12
464.66
478.08
486.86
492.86
497.67
502.08
504.93
502.87
490.89
465.36
426.53
379.89
333.60
295.25
269.84
258.35
257.56
261.63
264.24
259.58
243.25
210.71
157.39
81.95
-11.94
-115.37
-215.58
-299.48
-362.74
-403.92
-423.46
-430.92
-437.37
-448.24
-462.90
-476.77
-484.79
-484.45
-475.70
-460.82
-442.41
-420.12
-391.00
-351.47
-299.70
-237.22
-169.52
-103.58
-46.27
-2.12
29.55
53.63
76.89
105.33
142.33
187.96
239.48
291.60
336.74
367.21
376.85
363.30
330.13
287.14
248.17
226.17
227.66
249.27
279.47
303.57
310.92
300.27
279.83
262.35
257.40
265.79
278.99
284.40
272.23
240.92
197.83
154.56
120.61
98.73
84.72
71.21
52.84
28.61
1.68
-23.02
-42.32
-56.38
-68.02
-80.65
-95.95
-112.64
-127.95
-139.80
-148.28
-156.05
-166.93
-182.96
-202.88
-225.09
-244.84
-258.61
-266.86
-273.45
-281.05
-291.30
-302.81
-312.56
-317.43
-315.00
-304.28
-285.22
-257.66
-221.01
-175.15
-120.92
-60.93
0.94
60.82
116.06
166.50
214.37
262.26
309.85
352.51
381.57
387.86
366.19
317.81
250.32
174.49
100.08
33.24
-22.80
-65.48
-91.12
-96.35
-81.63
-53.29
-22.49
-0.15
8.92
8.63
8.87
18.71
40.35
66.86
86.45
89.52
74.07
45.97
14.22
-14.77
-40.37
-66.12
-95.32
-126.62
-153.34
-166.23
-157.68
-125.84
-76.00
-19.23
30.84
61.14
62.33
30.58
-30.86
-111.21
-194.11
-260.82
-295.71
-291.22
-250.80
-187.99
-122.30
-73.03
-52.97
-65.08
-102.16
-150.15
-192.95
-217.69
-217.91
-194.19
-152.47
-100.94
-47.37
2.98
47.74
87.21
123.38
158.69
194.57
229.93
261.18
282.94
290.76
283.62
265.01
241.75
220.16
203.00
187.96
169.56
142.28
103.84
55.95
3.50
-47.22
-90.15
-119.56
-130.70
-120.33
-88.57
-40.10
16.40
70.55
113.91
142.10
155.19
155.56
145.70
126.60
97.90
59.69
14.06
-33.72
-76.37
-106.61
-119.67
-114.66
-94.05
-62.23
-23.92
16.33
54.23
84.73
102.07
100.63
77.27
32.77
-28.20
-98.31
-169.39
-233.18
-282.07
-309.40
-310.63
-285.20
-238.71
-183.64
-136.78
-112.47
-116.28
-142.11
-175.13
-198.37
-199.80
-176.69
-134.98
-85.30
-36.41
8.13
50.05
92.64
135.05
172.32
196.69
205.66
196.58
169.56
125.30
69.61
10.87
-42.61
-85.90
-118.77
-144.73
-168.37
-190.62
-207.19
-210.17
-193.43
-156.78
-107.17
-55.82
-13.19
14.76
28.94
35.11
40.30
48.60
60.51
74.31
88.97
106.18
129.93
165.68
217.84
288.00
373.23
466.18
555.93
629.93
676.68
688.28
663.01
605.57
525.76
434.98
343.12
256.46
177.67
107.01
43.97
-11.47
-58.70
-96.76
-124.97
-143.15
-151.64
-151.31
-143.28
-128.79
-108.99
-85.07
-58.60
-32.49
-11.18
-0.36
-5.71
-31.03
-76.37
-136.73
-202.35
-260.95
-301.47
-317.96
-311.83
-291.31
-268.05
-252.79
-251.70
-265.04
-288.04
-312.96
-330.77
-332.50
-310.90
-262.67
-191.05
-107.20
-28.59
25.65
41.70
16.61
-40.02
-109.08
-168.32
-199.60
-194.19
-154.33
-91.47
-22.02
37.73
75.73
86.83
73.09
42.80
7.69
-20.08
-30.56
-18.42
15.36
63.35
113.32
151.92
169.72
165.48
147.54
130.69
129.60
151.83
194.60
246.62
293.85
325.90
339.12
335.43
318.39
290.03
251.22
204.62
157.30
119.60
100.48
101.79
115.09
124.35
112.51
69.63
-2.98
-93.76
-185.77
-263.34
-317.22
-346.29
-356.14
-355.62
-353.10
-353.67
-357.82
-361.87
-359.94
-347.08
-321.27
-284.30
-240.44
-193.99
-147.21
-99.52
-47.95
11.11
80.19
159.12
244.04
327.04
397.47
444.81
462.02
448.08
407.91
350.53
285.25
218.67
153.61
89.92
26.51
-36.77
-98.27
-154.84
-202.61
-237.24
-254.27
-250.01
-223.24
-177.48
-121.99
-70.51
-37.20
-31.11
-51.85
-88.57
-123.18
-136.73
-115.72
-56.23
35.79
147.04
261.09
362.17
437.77
480.26
487.27
461.94
411.78
346.79
276.81
209.45
148.53
94.18
44.17
-4.42
-53.89
-105.52
-159.87
-217.13
-276.78
-336.73
-392.60
-437.82
-465.54
-470.74
-452.33
-414.04
-363.63
-310.81
-264.40
-230.09
-209.21
-199.41
-195.90
-193.39
-187.51
-175.42
-156.12
-129.58
-96.33
-56.77
-11.12
40.62
98.60
162.68
231.71
302.22
367.89
420.03
450.33
454.09
432.22
390.84
338.50
283.30
230.19
180.60
133.18
85.39
35.18
-17.54
-70.16
-117.44
-152.64
-170.44
-169.38
-153.66
-132.33
-116.24
-114.23
-129.52
-158.76
-193.14
-221.87
-235.56
-228.44
-198.92
-148.83
-82.60
-6.30
72.19
143.63
197.86
225.76
221.91
186.30
124.92
47.95
-32.03
-102.30
-151.27
-170.82
-157.82
-115.93
-55.79
6.91
55.03
76.29
67.23
34.48
-10.53
-56.28
-95.08
-123.84
-142.98
-155.71
-165.58
-176.08
-189.39
-208.23
-234.06
-264.90
-294.27
-313.70
-318.18
-307.85
-288.00
-264.55
-243.56
-227.55
-214.32
-197.35
-160.47
-94.54
-1.00
95.32
174.42
222.70
237.61
224.14
195.94
170.96
163.08
177.86
210.22
248.78
278.40
286.61
267.64
224.00
163.51
94.67
25.85
-35.06
-79.04
-99.40
-93.45
-64.45
-20.69
26.54
66.25
92.56
106.74
116.94
132.24
158.03
193.22
231.00
261.45
275.12
266.10
233.10
179.21
109.95
32.48
-44.72
-111.32
-156.40
-170.86
-150.86
-100.58
-32.45
35.53
85.29
103.81
87.63
43.23
-15.88
-74.28
-119.44
-144.41
-147.96
-133.32
-107.44
-78.66
-54.66
-40.93
-39.10
-46.24
-55.46
-58.49
-49.08
-26.34
6.27
44.03
83.85
126.30
174.66
229.24
285.11
337.28
377.05
393.18
380.36
340.75
282.74
216.71
150.51
87.21
26.13
-35.02
-96.17
-153.74
-203.15
-241.63
-269.41
-288.31
-299.03
-299.83
-288.59
-264.97
-231.93
-195.51
-161.46
-131.87
-103.91
-71.42
-28.58
26.40
90.59
157.43
218.60
265.85
292.35
293.83
269.64
222.96
159.74
87.15
12.13
-59.37
-121.77
-169.37
-197.11
-202.91
-189.78
-166.07
-142.67
-128.24
-125.93
-132.73
-142.04
-147.62
-146.55
-139.90
-131.00
-122.92
-116.44
-109.51
-98.39
-79.77
-53.44
-23.69
1.49
13.71
8.78
-10.41
-34.06
-49.66
-47.51
-24.59
15.65
66.88
124.25
186.50
253.60
323.16
387.93
436.96
459.97
452.05
416.09
361.35
299.69
240.95
190.64
149.81
117.09
90.60
68.99
51.03
34.63
16.66
-6.97
-39.55
-82.60
-134.74
-190.97
-243.13
-281.09
-294.83
-276.89
-225.11
-144.15
-45.79
53.03
134.66
185.24
198.57
176.90
129.28
67.74
3.20
-57.24
-110.98
-158.82
-203.49
-247.69
-292.79
-337.95
-379.71
-412.50
-430.25
-428.51
-406.05
-366.13
-315.55
-262.98
-216.45
-181.37
-159.36
-148.16
-142.49
-135.40
-120.46
-93.64
-54.98
-8.99
36.75
74.38
99.11
110.51
112.16
109.22
105.71
103.25
101.98
102.53
107.41
120.16
142.55
172.37
203.78
230.59
250.11
264.76
279.94
299.39
321.04
336.83
336.74
314.32
270.54
213.25
152.93
97.73
50.41
9.02
-29.60
-66.19
-97.71
-118.80
-124.78
-114.63
-91.90
-62.59
-31.86
-1.55
29.83
64.04
99.39
128.87
141.81
129.21
89.95
33.90
-20.37
-52.97
-51.51
-16.78
37.35
90.44
124.39
130.13
109.01
69.07
19.23
-34.12
-86.75
-133.78
-167.38
-178.25
-160.53
-116.96
-60.28
-9.63
16.55
7.77
-34.97
-100.23
-170.92
-230.12
-265.67
-272.16
-250.70
-206.97
-148.85
-84.19
-19.33
40.76
91.91
130.16
152.03
155.66
142.63
118.56
91.50
69.53
57.50
55.67
60.35
65.77
66.37
58.39
40.40
12.94
-21.68
-59.91
-97.24
-128.78
-150.00
-157.42
-149.63
-127.82
-96.29
-61.52
-30.86
-10.18
-1.76
-3.45
-9.40
-12.67
-7.88
6.56
28.48
53.58
77.54
97.84
113.77
125.78
134.15
138.37
136.89
127.97
110.71
85.79
55.94
25.03
-3.15
-26.94
-47.30
-67.23
-89.54
-114.24
-137.93
-154.30
-156.99
-141.86
-109.01
-62.63
-10.15
39.30
76.65
94.10
86.93
54.39
0.21
-67.71
-138.94
-202.39
-248.82
-272.57
-272.73
-252.79
-219.51
-180.47
-141.65
-105.86
-72.28
-38.29
-1.62
36.92
73.44
102.33
119.40
124.90
124.46
127.56
143.70
178.02
227.73
282.54
327.84
350.25
342.93
307.67
254.39
197.72
152.49
129.51
132.65
158.14
195.87
233.36
259.74
269.22
261.93
242.23
215.90
187.18
157.84
127.64
96.61
65.44
35.54
7.64
-19.49
-48.64
-82.45
-121.40
-162.68
-200.22
-227.20
-238.53
-232.86
-213.37
-185.91
-157.25
-132.77
-116.10
-109.13
-112.96
-127.87
-151.99
-180.67
-205.88
-218.72
-212.76
-187.74
-150.60
-113.09
-87.40
-80.66
-93.02
-117.91
-145.86
-167.92
-178.21
-174.47
-156.73
-126.93
-88.40
-47.01
-10.40
13.61
20.07
9.40
-12.96
-38.56
-60.46
-75.34
-84.03
-88.90
-90.88
-88.04
-75.96
-51.02
-12.46
35.78
86.54
131.48
163.65
179.28
177.71
161.78
136.59
109.10
85.87
71.95
69.57
77.43
91.95
108.26
122.04
130.03
130.64
123.42
108.90
88.63
64.71
40.01
17.25
-1.27
-14.62
-23.14
-28.26
-31.97
-35.73
-40.42
-45.69
-50.54
-53.61
-54.04
-51.96
-48.46
-45.37
-43.98
-44.71
-46.38
-46.97
-44.50
-37.83
-27.36
-14.53
-1.54
9.75
17.87
22.22
22.88
20.60
16.81
13.06
10.95
11.12
13.50
17.16
21.01
24.29
26.69
28.38
29.34
29.60
28.91
27.28
25.07
22.84
21.21
20.23
19.72
19.02
17.71
15.63
13.00
10.35
8.04
6.44
5.39
4.73
3.99
2.84
1.13
-1.13
-3.50
-5.65
-7.07
-7.71
-7.60
-7.02
-6.23
-5.43
-4.96
-4.90
-5.56
-6.77
-8.26
-9.41
-9.61
-8.54
-6.11
-2.94
0.48
3.45
5.75
7.35
8.43
9.30
10.01
10.76
11.45
12.07
12.43
12.38
11.85
10.79
9.50
7.96
6.41
4.68
2.73
0.62
-1.39
-2.77
-3.34
-3.09
-2.76
-2.95
-4.18
-6.16
-8.05
-8.92
-8.05
-5.58
-2.04
1.54
4.41
5.99
6.12
5.09
3.34
1.67
0.64
0.74
1.83
3.46
5.04
6.02
6.36
6.04
5.30
4.11
2.50
0.49
-1.63
-3.32
-4.23
-4.02
-3.02
-1.64
-0.46
0.06
-0.21
-1.20
-2.48
-3.77
-4.55
-4.73
-4.34
-3.63
-2.99
-2.50
-2.15
-1.53
-0.55
0.90
2.39
3.54
4.20
4.34
4.31
4.16
3.96
3.45
2.67
1.74
0.88
0.30
-0.26
-1.03
-2.35
-4.08
-5.83
-7.09
-7.54
-7.30
-6.46
-5.42
-4.09
-2.51
-0.71
1.15
2.74
3.88
4.48
4.92
5.26
5.59
5.49
4.47
2.36
-0.65
-3.76
-6.26
-7.46
-7.47
-6.70
-5.79
-5.22
-4.95
-4.76
-4.19
-3.26
-2.23
-1.76
-2.35
-4.01
-6.26
-8.01
-8.58
-7.60
-5.64
-3.64
-2.52
-2.67
-3.60
-4.56
-4.54
-3.35
-1.25
0.98
2.51
2.74
1.42
-1.07
-4.04
-6.14
-6.30
-3.78
1.25
7.57
13.55
17.51
18.64
16.94
13.35
8.98
4.69
0.85
-2.86
-6.71
-11.04
-15.63
-20.04
-23.45
-25.07
-24.68
-22.68
-20.48
-19.61
-21.53
-26.55
-34.05
-42.68
-50.88
-57.45
-61.11
-60.62
-54.36
-41.80
-24.33
-5.91
8.02
13.01
7.60
-5.73
-22.45
-38.13
-50.92
-61.64
-72.36
-84.61
-98.05
-111.43
-123.74
-135.57
-148.81
-165.39
-186.01
-209.03
-231.05
-247.32
-253.34
-245.58
-222.78
-186.53
-141.15
-92.87
-47.88
-11.01
15.54
31.83
39.42
40.30
36.12
28.30
18.30
8.21
0.27
-3.28
-1.04
7.35
21.50
40.83
65.33
95.31
130.83
170.28
209.66
243.03
264.00
268.26
255.04
227.81
192.89
157.75
128.92
110.67
104.87
110.86
126.34
147.80
171.57
194.47
214.53
231.16
244.80
256.36
266.26
273.93
277.26
272.96
257.24
227.24
182.63
126.65
66.15
9.69
-35.06
-63.97
-77.79
-81.15
-80.23
-79.81
-81.85
-85.41
-88.44
-89.53
-88.89
-88.06
-88.53
-90.68
-93.28
-94.61
-93.47
-90.17
-86.20
-83.30
-82.41
-83.10
-83.94
-83.32
-80.38
-75.10
-68.09
-60.03
-51.16
-41.40
-30.45
-18.23
-4.83
9.56
24.87
41.15
58.39
76.33
94.26
111.32
126.87
140.91
153.97
166.90
180.48
195.00
210.08
224.52
236.43
243.48
243.59
235.14
217.64
192.24
161.71
130.03
101.16
78.07
62.29
53.97
51.95
54.33
59.20
65.01
70.90
76.58
82.00
87.16
91.63
93.26
88.32
72.88
44.55
4.28
-43.70
-93.09
-139.20
-175.87
-198.31
-204.60
-196.03
-177.09
-152.41
-125.95
-101.40
-81.96
-69.53
-64.72
-66.50
-72.37
-79.21
-84.53
-87.56
-89.41
-92.09
-97.20
-105.30
-115.65
-126.47
-135.76
-142.19
-145.86
-148.61
-153.61
-164.58
-184.94
-216.03
-255.63
-297.41
-331.99
-349.92
-345.47
-318.86
-276.04
-226.39
-178.73
-138.32
-105.97
-79.65
-56.95
-37.13
-21.07
-9.71
-2.64
2.75
10.16
22.89
42.29
67.81
97.84
131.03
166.69
203.95
240.39
271.14
289.86
290.75
271.04
232.17
178.99
117.41
52.16
-13.63
-77.48
-135.89
-184.03
-217.48
-234.90
-239.99
-240.73
-246.13
-261.72
-286.77
-314.39
-334.73
-339.55
-325.81
-296.56
-258.97
-221.13
-189.09
-165.66
-150.80
-143.13
-141.18
-144.00
-150.68
-159.60
-167.94
-171.93
-167.90
-153.49
-128.58
-95.35
-57.34
-18.22
19.47
54.91
88.76
122.29
156.59
191.89
227.36
261.40
292.10
317.83
337.66
351.67
360.73
366.06
368.59
368.38
364.46
355.33
339.80
317.72
290.06
258.32
223.49
185.42
143.02
94.94
40.34
-20.63
-86.78
-155.65
-223.03
-282.83
-327.72
-351.05
-349.34
-324.11
-281.90
-232.06
-183.28
-140.75
-105.17
-73.84
-43.02
-9.77
27.02
66.60
106.84
144.84
177.35
201.43
215.36
219.24
214.80
204.92
192.53
179.83
168.17
158.29
150.62
145.49
142.93
142.35
142.59
142.22
140.12
135.95
130.13
123.70
117.84
113.38
110.61
109.32
109.09
109.68
111.30
114.58
120.36
129.32
141.41
155.67
170.18
182.14
188.29
185.41
170.83
143.01
101.91
49.05
-12.57
-78.71
-144.61
-205.62
-257.97
-299.50
-329.79
-349.87
-361.50
-365.92
-363.20
-352.24
-331.49
-300.08
-258.91
-210.72
-159.61
-110.05
-65.89
-29.86
-3.56
12.37
18.19
14.95
4.73
-9.54
-24.38
-36.35
-42.71
-41.91
-33.77
-19.22
-0.08
21.49
43.47
64.06
81.99
96.29
106.27
111.55
112.01
107.95
100.13
89.76
78.20
66.76
56.37
47.36
39.55
32.45
25.41
17.97
10.02
1.61
-6.91
-15.10
-22.41
-28.27
-32.13
-33.54
-32.32
-28.54
-22.71
-15.42
-7.37
0.86
8.85
16.30
22.98
28.60
32.83
35.34
36.00
34.95
32.56
29.42
25.96
22.33
18.40
13.85
8.48
2.38
-4.04
-10.24
-15.73
-20.33
-24.11
-27.30
-30.17
-32.91
-35.64
-38.44
-41.35
-44.20
-46.72
-48.44
-48.97
-48.09
-45.98
-43.18
-40.45
-38.58
-37.91
-38.29
-38.91
-38.56
-35.96
-30.18
-21.07
-9.19
4.25
17.87
30.49
41.29
49.86
56.04
59.87
61.51
61.36
60.05
58.40
57.19
57.02
58.12
60.35
63.37
66.76
70.11
73.11
75.53
77.14
77.73
77.15
75.26
72.12
67.90
62.93
57.60
52.28
47.26
42.68
38.68
35.24
32.40
30.05
27.98
25.82
23.09
19.37
14.46
8.50
1.87
-4.83
-11.01
-16.17
-19.89
-21.85
-21.80
-19.69
-15.63
-10.09
-3.66
2.95
9.08
14.06
17.22
17.74
14.79
7.75
-3.48
-18.29
-35.26
-52.45
-67.84
-79.94
-88.08
-92.57
-94.34
-94.48
-93.83
-92.73
-91.27
-89.39
-87.19
-84.90
-82.68
-80.39
-77.47
-73.13
-66.69
-57.97
-47.36
-35.73
-24.04
-13.03
-2.97
6.29
15.14
23.93
32.81
41.65
50.11
57.68
63.84
68.16
70.38
70.32
68.07
63.77
57.62
49.84
40.57
30.03
18.54
6.62
-5.13
-15.92
-25.08
-32.16
-37.06
-40.02
-41.52
-42.16
-42.40
-42.36
-41.81
-40.10
-36.50
-30.44
-21.95
-11.64
-0.69
9.52
17.84
23.54
26.43
26.73
24.88
21.41
16.98
12.33
8.20
5.19
3.52
2.98
3.11
3.56
4.31
5.80
8.68
13.42
19.97
27.66
35.48
42.32
47.50
50.75
52.22
52.13
50.58
47.56
43.05
37.30
31.02
25.22
21.02
19.28
20.51
24.77
31.76
40.91
51.24
61.34
69.49
74.05
74.04
69.63
62.05
52.95
43.49
33.64
22.36
8.67
-7.12
-22.77
-34.72
-40.02
-38.16
-31.96
-26.70
-27.79
-38.39
-58.01
-82.96
-107.86
-127.72
-139.15
-140.71
-132.61
-116.32
-94.34
-70.12
-47.84
-31.61
-24.56
-27.93
-40.66
-59.73
-80.84
-99.61
-112.60
-118.02
-115.96
-108.04
-96.67
-84.16
-72.17
-61.39
-51.87
-43.42
-35.92
-29.35
-23.68
-18.65
-13.81
-8.56
-2.56
4.14
11.09
17.74
23.74
29.15
34.35
39.83
45.86
52.28
58.53
63.87
67.70
69.76
70.17
69.31
67.60
65.32
62.50
59.04
54.84
49.91
44.47
38.89
33.56
28.75
24.61
21.17
18.50
16.67
15.72
15.64
16.30
17.52
19.01
20.52
21.81
22.76
23.34
23.59
23.63
23.58
23.50
23.31
22.74
21.56
19.68
17.21
14.54
12.06
10.13
8.83
8.05
7.53
6.98
6.28
5.42
4.51
3.63
2.80
1.91
0.71
-1.11
-3.89
-7.80
-12.78
-18.46
-24.27
-29.54
-33.61
-36.14
-37.02
-36.50
-34.99
-33.07
-31.23
-29.78
-28.75
-27.93
-26.99
-25.54
-23.51
-20.97
-18.26
-15.70
-13.46
-11.50
-9.66
-7.74
-5.60
-3.31
-1.06
0.82
2.05
2.47
2.02
0.78
-1.00
-2.98
-4.82
-6.30
-7.37
-8.15
-8.86
-9.75
-10.88
-12.07
-12.85
-12.54
-10.41
-6.06
0.43
8.41
16.78
24.30
29.95
33.12
33.76
32.40
29.90
27.32
25.65
25.69
27.81
31.81
37.01
42.43
47.15
50.52
52.34
52.78
52.28
51.34
50.36
49.52
48.85
48.13
47.05
45.26
42.40
38.07
31.71
22.51
9.63
-7.33
-27.80
-49.99
-71.30
-89.17
-102.10
-110.14
-114.61
-117.15
-118.80
-119.41
-117.91
-113.12
-104.44
-92.28
-77.65
-61.69
-45.11
-28.14
-10.77
6.82
23.97
39.61
52.60
62.18
68.30
71.58
73.02
73.47
73.39
72.60
70.66
67.18
62.18
56.16
49.93
44.28
39.68
36.21
33.50
31.07
28.44
25.27
21.46
16.93
11.74
5.92
-0.33
-6.75
-12.94
-18.56
-23.38
-27.34
-30.66
-33.62
-36.51
-39.46
-42.37
-45.03
-47.24
-48.95
-50.21
-51.16
-51.92
-52.49
-52.81
-52.82
-52.58
-52.19
-51.71
-50.90
-49.14
-45.60
-39.52
-30.57
-19.04
-5.90
7.61
20.22
31.07
39.72
46.15
50.58
53.27
54.52
54.48
53.28
51.04
47.91
44.14
40.00
35.80
31.86
28.49
26.00
24.63
24.54
25.59
27.49
29.74
31.82
33.26
33.79
33.34
32.04
30.06
27.55
24.71
21.64
18.52
15.45
12.52
9.75
7.15
4.70
2.43
0.44
-1.19
-2.39
-3.20
-3.69
-4.03
-4.29
-4.58
-4.90
-5.25
-5.62
-6.04
-6.46
-6.85
-7.16
-7.43
-7.73
-8.16
-8.81
-9.73
-10.88
-12.15
-13.46
-14.66
-15.64
-16.27
-16.51
-16.35
-15.96
-15.52
-15.26
-15.40
-15.98
-16.91
-17.95
-18.86
-19.34
-19.22
-18.41
-16.97
-15.26
-13.71
-12.76
-12.66
-13.29
-14.16
-14.60
-13.99
-12.00
-8.82
-4.95
-1.11
2.04
4.10
5.00
4.87
3.97
2.57
0.89
-0.87
-2.57
-4.13
-5.47
-6.60
-7.52
-8.19
-8.51
-8.33
-7.45
-5.81
-3.56
-1.01
1.42
3.31
4.46
4.95
5.01
5.04
5.38
6.18
7.49
9.17
11.12
13.26
15.58
17.98
20.33
22.43
24.13
25.42
26.46
27.62
29.25
31.57
34.37
37.26
39.68
41.18
41.59
40.95
39.49
37.40
34.72
31.30
27.06
22.05
16.49
10.85
5.63
1.19
-2.36
-5.25
-8.01
-11.33
-15.83
-21.90
-29.44
-37.98
-46.67
-54.53
-60.64
-64.34
-65.51
-64.57
-62.48
-60.41
-59.53
-60.48
-63.20
-66.82
-69.86
-70.71
-68.15
-61.72
-51.69
-39.05
-25.06
-10.87
2.64
15.04
26.14
35.98
44.57
52.03
58.48
64.21
69.61
75.03
80.70
86.69
92.93
99.22
105.35
111.20
116.55
121.25
125.08
127.98
130.11
132.00
134.23
137.15
140.40
142.80
142.66
138.37
129.37
116.58
102.43
89.98
81.78
78.64
78.98
79.18
74.61
61.33
37.25
2.77
-39.60
-86.10
-132.68
-175.68
-212.11
-239.88
-257.76
-265.36
-263.13
-252.33
-234.72
-212.35
-187.33
-161.65
-137.05
-114.72
-94.76
-75.92
-55.85
-32.06
-3.36
28.74
59.20
80.26
83.56
63.72
21.43
-35.44
-93.37
-137.22
-154.97
-141.91
-102.04
-46.68
9.24
51.68
71.11
64.46
36.30
-3.21
-40.49
-62.41
-60.84
-35.14
9.09
63.64
120.93
173.73
218.94
254.01
276.57
285.45
281.58
268.17
249.40
228.92
208.79
189.44
169.65
147.60
121.96
92.27
58.79
21.84
-18.75
-63.72
-113.72
-168.98
-228.64
-290.22
-349.93
-403.48
-446.98
-477.80
-495.32
-501.26
-499.45
-494.34
-488.87
-482.83
-472.78
-453.87
-422.51
-378.97
-328.01
-277.52
-235.25
-205.90
-189.94
-184.48
-185.47
-189.58
-194.95
-200.43
-204.58
-204.94
-198.39
-182.27
-155.53
-119.08
-75.62
-28.63
18.80
64.76
108.76
151.33
193.31
235.38
277.74
320.32
362.54
403.16
439.94
469.75
489.32
496.25
490.35
473.79
450.67
425.54
402.07
382.21
366.22
353.20
341.74
330.57
318.61
304.98
288.88
269.73
247.36
222.07
194.76
166.81
140.11
116.52
97.60
84.12
75.86
71.72
70.03
69.28
68.57
68.07
68.80
72.30
79.85
91.89
107.82
126.14
144.96
162.46
177.30
188.61
195.93
199.20
198.93
196.12
191.70
185.77
176.44
159.97
131.56
87.52
27.14
-46.38
-126.61
-206.17
-279.36
-344.10
-401.59
-454.32
-502.98
-544.44
-571.96
-577.57
-555.59
-505.18
-431.45
-344.27
-255.86
-178.29
