1515728941.00
64.000000
-0.00
-0.00
-0.00
-0.00
-0.00
-0.00
-0.00
-0.00
-0.00
-0.00
0.00
0.01
0.01
-0.00
-0.03
-0.05
-0.05
0.00
0.13
0.36
0.66
1.01
1.37
1.72
2.06
2.40
2.79
3.24
3.80
4.42
5.06
5.66
6.20
6.68
7.15
7.68
8.31
9.14
10.09
11.04
11.88
12.56
13.14
13.76
14.65
15.96
17.91
20.32
22.90
25.38
27.58
29.57
31.68
34.32
37.81
42.54
48.15
54.10
59.83
64.97
69.58
74.14
79.34
85.71
93.76
103.00
112.62
121.73
129.77
136.75
143.30
150.75
157.77
166.64
177.95
191.79
206.97
220.57
228.25
225.36
208.53
176.87
132.76
80.05
23.07
-34.94
-92.44
-149.16
-205.23
-260.37
-313.74
-363.87
-409.83
-450.91
-486.50
-515.74
-537.23
-549.22
-549.96
-538.37
-514.21
-478.67
-433.88
-382.45
-327.02
-269.84
-212.63
-156.66
-102.95
-52.37
-5.90
35.58
71.43
101.35
125.50
144.38
158.69
169.15
176.37
180.75
182.57
182.07
179.51
175.23
169.65
163.18
156.15
148.81
141.30
133.69
126.02
118.33
110.69
103.16
95.80
88.68
81.83
75.25
68.95
62.95
57.25
51.86
46.78
42.03
37.59
33.45
29.61
26.07
22.81
19.83
17.11
14.67
12.48
10.54
8.83
7.35
6.07
4.97
4.05
3.27
2.62
2.09
1.65
1.30
1.01
0.79
0.61
0.47
0.37
0.28
0.22
0.18
0.14
0.12
0.11
0.11
0.11
0.12
0.14
0.16
0.19
0.23
0.27
0.31
0.35
0.40
0.44
0.49
0.54
0.59
0.64
0.70
0.76
0.82
0.89
0.96
1.04
1.13
1.23
1.35
1.47
1.62
1.78
1.96
2.16
2.38
2.63
2.91
3.21
3.54
3.91
4.31
4.74
5.21
5.72
6.27
6.85
7.48
8.15
8.86
9.62
10.41
11.26
12.14
13.07
14.05
15.09
16.19
17.35
18.56
19.81
21.06
22.25
23.31
24.13
24.58
24.54
23.90
22.56
20.46
17.59
14.04
9.85
5.24
0.39
-4.46
-9.08
-13.26
-16.79
-19.54
-21.43
-22.43
-22.61
-22.08
-20.99
-19.48
-17.67
-15.66
-13.51
-11.28
-9.00
-6.72
-4.53
-2.50
-0.65
1.04
2.64
4.21
5.84
7.57
9.43
11.26
12.94
14.43
15.79
17.13
18.63
20.42
22.58
25.12
27.67
29.94
31.86
33.50
35.18
37.23
39.95
43.42
47.55
51.56
54.84
57.12
58.50
59.44
60.55
62.29
64.77
67.73
69.93
70.31
68.22
63.53
56.48
47.32
35.78
20.42
3.68
-14.51
-34.78
-57.98
-84.88
-115.63
-149.07
-182.31
-210.94
-230.02
-236.48
-229.68
-211.89
-187.61
-161.85
-138.43
-119.07
-103.53
-90.52
-79.27
-69.32
-60.51
-52.71
-45.54
-38.52
-31.38
-24.18
-17.31
-11.58
-7.50
-5.06
-3.82
-3.08
-2.17
-0.75
1.04
2.73
3.47
2.70
0.33
-3.18
-7.08
-10.67
-13.65
-16.15
-18.54
-21.20
-24.19
-27.28
-30.05
-32.17
-33.43
-33.69
-32.82
-30.73
-27.38
-23.00
-18.07
-13.20
-8.97
-5.67
-3.29
-1.59
-0.31
0.68
1.37
1.63
1.42
0.75
-0.25
-1.48
-2.92
-4.62
-6.59
-8.75
-10.89
-12.62
-13.49
-13.06
-11.08
-7.56
-2.75
2.79
8.50
13.88
18.75
23.21
27.55
31.97
36.45
40.93
45.42
50.34
56.36
64.12
73.86
85.19
97.28
109.18
120.23
130.19
138.98
146.38
151.87
154.72
154.48
151.39
146.33
140.52
134.80
129.22
123.02
115.15
104.93
92.37
78.26
63.81
50.19
38.28
28.52
20.97
15.33
10.96
6.90
2.19
-3.89
-11.46
-20.05
-28.76
-36.67
-43.21
-48.28
-52.23
-55.67
-59.23
-63.37
-68.19
-73.34
-78.11
-81.60
-83.04
-82.10
-79.01
-74.51
-69.55
-65.05
-61.58
-59.24
-57.76
-56.61
-55.24
-53.24
-50.49
-47.17
-43.67
-40.50
-38.12
-36.77
-36.36
-36.52
-36.74
-36.65
-36.18
-35.58
-35.35
-35.90
-37.38
-39.58
-42.11
-44.63
-46.94
-49.02
-50.88
-52.42
-53.38
-53.48
-52.47
-50.14
-46.33
-40.69
-32.95
-22.99
-11.25
1.22
12.99
22.72
29.72
34.24
37.28
40.06
43.41
47.48
51.80
55.62
58.41
59.96
60.36
59.72
58.00
55.08
50.90
45.71
40.11
34.86
30.63
27.65
25.67
24.01
21.86
18.62
14.15
8.87
3.57
-0.91
-4.04
-5.73
-6.33
-6.23
-5.69
-4.57
-2.54
0.61
4.80
9.51
14.09
18.04
21.18
23.72
25.87
27.68
28.94
29.31
28.66
27.25
25.71
24.68
24.60
25.39
26.60
27.61
27.94
27.40
26.05
24.07
21.57
18.62
15.25
11.60
7.95
4.65
2.02
0.34
-0.17
0.62
2.77
6.17
10.54
15.37
19.96
23.64
25.88
26.42
25.30
22.73
18.96
14.24
8.76
2.70
-3.71
-10.31
-17.04
-23.95
-31.00
-37.90
-44.00
-48.39
-50.30
-49.42
-46.14
-41.35
-36.10
-31.10
-26.64
-22.68
-19.32
-16.96
-16.15
-17.30
-20.16
-23.77
-26.68
-27.57
-25.76
-21.33
-15.05
-7.96
-1.00
5.20
10.31
14.23
17.07
19.04
20.54
21.99
23.73
25.89
28.30
30.62
32.49
33.70
34.27
34.38
34.24
33.94
33.49
32.87
32.19
31.71
31.70
32.25
33.10
33.67
33.38
32.03
29.92
27.87
26.76
27.09
28.70
30.81
32.43
32.72
31.37
28.55
24.78
20.58
16.35
12.29
8.54
5.20
2.43
0.32
-1.14
-2.21
-3.26
-4.70
-6.80
-9.64
-13.06
-16.80
-20.64
-24.48
-28.33
-32.23
-36.13
-39.82
-42.97
-45.22
-46.43
-46.69
-46.40
-46.04
-46.02
-46.41
-47.00
-47.35
-47.02
-45.76
-43.57
-40.74
-37.75
-35.16
-33.53
-33.17
-33.95
-35.23
-36.02
-35.43
-33.09
-29.40
-25.31
-21.89
-19.72
-18.67
-17.93
-16.55
-13.80
-9.49
-3.85
2.75
9.99
17.68
25.59
33.25
39.94
44.92
47.74
48.47
47.78
46.70
46.27
47.15
49.48
52.85
56.53
59.80
62.10
63.26
63.38
62.87
62.17
61.69
61.60
61.90
62.47
63.22
64.28
65.82
67.97
70.59
73.31
75.58
77.02
77.58
77.61
77.68
78.32
79.77
81.83
84.08
86.00
87.22
87.49
86.52
83.81
78.58
69.99
57.48
41.07
21.58
0.31
-21.26
-41.90
-60.77
-77.35
-91.18
-101.82
-108.98
-112.78
-113.99
-113.84
-113.60
-114.06
-115.25
-116.60
-117.41
-117.27
-116.29
-114.87
-113.28
-111.47
-108.91
-104.97
-99.19
-91.50
-82.29
-72.13
-61.60
-50.89
-39.93
-28.36
-15.93
-2.73
10.62
23.08
33.53
41.15
45.76
47.76
47.97
47.29
46.36
45.54
44.76
43.86
42.59
40.85
38.66
36.12
33.36
30.34
26.90
22.82
17.97
12.37
6.27
0.11
-5.66
-10.58
-14.36
-16.82
-17.95
-17.83
-16.65
-14.66
-12.15
-9.48
-7.05
-5.34
-4.65
-5.11
-6.53
-8.46
-10.35
-11.80
-12.67
-13.10
-13.38
-13.75
-14.30
-14.99
-15.71
-16.42
-17.12
-17.86
-18.63
-19.38
-20.04
-20.57
-21.04
-21.57
-22.35
-23.45
-24.87
-26.44
-27.98
-29.31
-30.35
-31.10
-31.55
-31.71
-31.50
-30.88
-29.83
-28.38
-26.61
-24.62
-22.48
-20.27
-18.13
-16.21
-14.61
-13.34
-12.20
-10.90
-9.07
-6.44
-2.91
1.40
6.24
11.21
15.87
19.81
22.69
24.38
24.95
24.70
24.05
23.38
22.88
22.48
21.90
20.73
18.64
15.46
11.35
6.69
2.07
-1.93
-4.86
-6.52
-6.99
-6.58
-5.70
-4.67
-3.70
-2.85
-2.04
-1.24
-0.42
0.34
0.97
1.39
1.57
1.51
1.24
0.86
0.46
0.20
0.10
0.12
0.12
-0.06
-0.49
-1.20
-2.07
-3.00
-3.89
-4.73
-5.49
-6.17
-6.79
-7.37
-8.02
-8.88
-10.03
-11.38
-12.67
-13.51
-13.56
-12.64
-10.77
-8.16
-5.07
-1.76
1.60
4.93
8.13
11.17
13.96
16.48
18.70
20.64
22.34
23.81
25.07
26.13
27.04
27.84
28.62
29.42
30.21
30.88
31.22
31.06
30.32
29.07
27.44
25.66
23.85
22.05
20.21
18.21
16.06
13.79
11.52
9.36
7.43
5.77
4.36
3.15
2.02
0.87
-0.40
-1.78
-3.26
-4.74
-6.23
-7.93
-10.19
-13.47
-18.12
-24.24
-31.51
-39.37
-47.18
-54.40
-60.74
-66.02
-70.27
-73.65
-76.67
-80.23
-85.39
-92.89
-102.55
-113.02
-122.04
-127.31
-127.37
-122.11
-112.48
-99.83
-85.08
-68.46
-49.95
-29.82
-9.09
10.71
28.21
42.72
54.48
64.09
72.00
78.06
81.77
82.80
81.48
78.87
76.30
74.89
75.05
76.50
78.44
79.97
80.36
79.08
75.94
71.08
65.04
58.63
52.72
47.90
44.23
41.39
38.86
36.31
33.72
31.39
29.53
28.22
27.19
26.04
24.42
22.13
19.24
15.88
12.19
8.24
4.05
-0.29
-4.64
-8.70
-12.20
-14.89
-16.71
-17.76
-18.25
-18.45
-18.50
-18.41
-17.97
-17.00
-15.37
-13.24
-10.96
-9.01
-7.77
-7.37
-7.67
-8.28
-8.79
-8.90
-8.57
-7.90
-7.17
-6.65
-6.47
-6.66
-7.06
-7.46
-7.67
-7.64
-7.48
-7.41
-7.72
-8.54
-9.94
-11.69
-13.50
-14.98
-15.83
-15.87
-15.10
-13.61
-11.54
-9.01
-6.11
-2.96
0.30
3.53
6.52
9.13
11.26
12.86
13.93
14.52
14.66
14.46
14.00
13.37
12.65
11.87
11.06
10.26
9.49
8.73
7.90
6.88
5.53
3.86
1.95
-0.03
-1.97
-3.87
-5.85
-8.11
-10.72
-13.58
-16.33
-18.54
-19.84
-20.04
-19.19
-17.51
-15.30
-12.79
-10.17
-7.54
-4.93
-2.35
0.21
2.74
5.24
7.63
9.85
11.80
13.33
14.32
14.70
14.54
13.99
13.35
12.89
12.80
13.07
13.54
13.93
13.87
13.04
11.13
7.98
3.61
-1.70
-7.42
-12.90
-17.49
-20.75
-22.50
-22.80
-21.87
-19.89
-17.04
-13.47
-9.38
-5.05
-0.91
2.65
5.32
7.07
8.22
9.29
10.97
13.74
17.71
22.56
27.58
31.80
34.13
33.70
30.06
23.53
15.22
6.90
0.36
-3.18
-3.62
-1.99
0.01
0.80
-0.33
-3.11
-6.47
-9.24
-10.71
-10.82
-9.98
-8.72
-7.34
-5.81
-3.98
-1.72
0.92
3.66
6.31
8.78
11.27
14.08
17.57
21.94
27.17
33.08
39.27
45.23
50.40
54.19
56.07
55.65
52.65
47.01
38.94
28.87
17.62
6.19
-4.30
-12.95
-19.30
-23.38
-25.72
-26.98
-27.85
-28.69
-29.64
-30.67
-31.70
-32.70
-33.60
-34.25
-34.35
-33.56
-31.59
-28.39
-24.26
-19.73
-15.45
-11.85
-9.09
-6.93
-4.96
-2.81
-0.33
2.28
4.67
6.45
7.47
7.80
7.75
7.57
7.35
6.86
5.74
3.65
0.50
-3.47
-7.89
-12.47
-17.15
-22.16
-27.67
-33.58
-39.34
-44.27
-47.81
-49.87
-50.88
-51.46
-52.11
-52.93
-53.65
-53.79
-52.99
-51.10
-48.25
-44.94
-41.89
-39.90
-39.53
-40.73
-42.66
-43.97
-43.40
-40.53
-36.13
-31.75
-28.92
-28.17
-28.40
-26.90
-20.34
-6.07
16.38
44.43
72.68
94.48
104.13
99.03
80.82
54.76
28.08
7.88
-0.72
4.34
21.45
45.48
68.73
83.04
82.63
66.76
40.72
14.23
-2.41
-2.86
12.34
36.03
57.89
69.29
67.17
54.90
39.81
29.20
26.67
30.89
37.28
41.17
40.74
38.12
37.63
42.63
52.98
64.49
71.15
68.51
56.37
38.92
22.51
12.21
9.16
10.01
8.89
0.36
-17.82
-43.68
-71.79
-95.44
-109.10
-110.35
-100.50
-83.88
-66.24
-52.71
-46.10
-46.14
-50.02
-54.14
-55.91
-54.80
-51.91
-48.86
-46.63
-45.17
-43.95
-42.59
-41.57
-42.14
-45.58
-51.81
-59.23
-65.45
-68.63
-68.24
-64.94
-60.19
-55.86
-54.06
-55.83
-61.15
-69.07
-78.01
-85.85
-89.94
-88.27
-80.73
-70.10
-59.51
-51.50
-46.92
-45.02
-43.84
-40.51
-32.73
-19.91
-3.87
13.85
31.88
48.78
62.36
66.34
55.25
29.40
0.77
-23.52
-39.07
-44.67
-39.97
-26.93
-9.10
10.20
28.45
43.97
54.90
61.42
65.09
68.10
72.15
78.01
85.79
94.69
102.91
107.72
108.03
104.61
99.62
95.30
93.25
94.12
97.28
100.79
101.44
96.57
84.64
65.74
41.69
15.86
-7.48
-24.42
-32.54
-31.57
-22.49
-7.02
12.80
34.49
55.05
71.12
79.66
79.06
70.06
56.07
42.12
32.87
30.88
35.73
44.64
53.96
60.86
64.42
65.74
67.25
71.63
80.81
95.40
114.49
135.99
157.18
175.46
189.11
197.56
201.42
202.06
200.97
199.27
197.32
194.46
189.08
179.00
162.38
138.84
110.12
79.87
52.40
30.95
16.25
6.37
-2.36
-13.39
-28.52
-47.20
-67.00
-84.72
-97.45
-103.37
-101.89
-93.69
-80.54
-64.91
-49.42
-36.15
-26.15
-19.34
-15.09
-12.85
-12.54
-14.45
-18.70
-24.71
-31.25
-37.08
-41.79
-46.19
-51.91
-60.29
-71.39
-83.57
-94.23
-101.12
-103.48
-102.45
-100.34
-99.52
-101.18
-105.03
-109.60
-113.03
-113.97
-112.04
-107.83
-102.39
-96.69
-91.10
-85.46
-79.31
-72.45
-65.25
-58.51
-53.21
-49.94
-48.77
-49.23
-50.64
-52.42
-54.16
-55.61
-56.51
-56.60
-55.63
-53.47
-50.23
-46.17
-41.69
-37.18
-33.02
-29.46
-26.58
-24.21
-22.01
-19.63
-16.92
-14.07
-11.30
-8.61
-5.48
-1.29
4.08
9.69
13.51
13.28
7.68
-2.75
-15.68
-27.98
-37.27
-42.98
-46.36
-49.53
-54.12
-60.46
-67.51
-73.64
-77.70
-79.58
-80.23
-80.93
-82.29
-83.62
-83.04
-78.23
-67.57
-50.86
-29.44
-5.79
17.03
35.83
47.65
50.16
42.36
25.51
3.43
-18.22
-33.80
-39.86
-36.30
-25.84
-12.41
0.71
11.66
19.75
24.68
26.18
24.45
20.65
17.13
16.74
21.77
33.11
49.99
70.48
92.11
112.19
127.82
136.31
135.94
126.83
111.47
94.03
78.79
68.56
63.96
63.77
66.11
69.22
71.75
72.55
70.41
64.36
54.04
40.10
24.04
7.52
-8.36
-23.35
-37.71
-51.59
-64.51
-75.45
-83.32
-87.60
-88.50
-86.82
-83.50
-79.22
-74.45
-69.54
-64.94
-61.26
-59.16
-59.17
-61.48
-65.76
-71.26
-76.89
-81.54
-84.31
-84.81
-83.33
-80.80
-78.46
-77.41
-78.19
-80.56
-83.74
-86.75
-88.76
-89.24
-87.77
-83.81
-76.66
-65.78
-51.31
-34.43
-17.37
-2.91
6.44
9.09
4.99
-4.27
-15.55
-24.71
-27.58
-21.08
-4.20
21.63
52.89
85.10
114.26
138.12
156.60
171.18
183.56
194.00
200.62
199.80
187.99
163.76
129.04
88.88
49.62
16.43
-8.41
-25.81
-38.55
-49.26
-59.04
-67.22
-72.32
-73.34
-70.52
-65.40
-59.98
-55.81
-53.44
-52.28
-51.21
-49.17
-45.59
-40.56
-34.45
-27.60
-20.02
-11.53
-2.07
7.85
17.12
24.30
28.38
29.41
28.70
28.34
30.07
34.35
39.93
44.37
45.29
41.66
34.43
26.14
19.73
17.24
19.13
24.31
31.02
37.67
43.41
48.09
51.73
54.14
54.76
52.93
48.40
41.57
33.35
24.68
16.05
7.23
-2.31
-12.85
-23.91
-34.16
-41.92
-45.91
-45.77
-42.25
-36.82
-31.03
-26.08
-22.47
-20.21
-18.91
-18.11
-17.42
-16.63
-15.80
-15.15
-14.92
-15.15
-15.49
-15.35
-14.17
-11.77
-8.46
-4.97
-2.15
-0.58
-0.49
-1.72
-3.90
-6.48
-8.80
-10.11
-9.76
-7.47
-3.52
1.25
5.74
8.97
10.39
9.99
8.16
5.50
2.66
0.27
-1.19
-1.48
-0.65
0.89
2.56
3.76
4.05
3.14
0.99
-2.25
-6.18
-10.10
-13.18
-14.82
-14.96
-14.17
-13.40
-13.50
-14.74
-16.71
-18.53
-19.39
-18.90
-17.20
-14.72
-11.79
-8.50
-4.74
-0.38
4.47
9.44
14.11
18.14
21.40
23.92
25.74
26.86
27.18
26.72
25.60
23.99
22.00
19.53
16.34
12.35
7.85
3.54
0.20
-1.71
-2.44
-2.84
-3.91
-6.21
-9.56
-13.12
-15.90
-17.26
-17.21
-16.21
-14.87
-13.61
-12.57
-11.72
-11.08
-10.82
-11.13
-12.08
-13.47
-14.82
-15.64
-15.53
-14.52
-12.94
-11.33
-10.21
-9.78
-9.89
-9.97
-9.29
-7.23
-3.54
1.57
7.37
12.84
16.91
18.82
18.33
15.77
11.96
7.78
4.00
0.98
-1.14
-2.38
-2.76
-2.22
-0.87
1.01
2.91
4.36
5.07
5.14
4.92
4.69
4.51
4.12
3.16
1.46
-0.81
-3.23
-5.31
-6.73
-7.33
-7.02
-5.58
-2.71
1.79
7.78
14.62
21.34
26.98
30.86
32.84
33.04
31.70
29.03
25.20
20.60
15.87
11.87
9.23
8.23
8.54
9.55
10.67
11.63
12.66
14.20
16.68
20.22
24.46
28.59
31.54
32.11
29.36
22.91
13.18
1.47
-10.33
-20.14
-26.36
-28.28
-26.38
-22.14
-17.60
-14.56
-13.98
-15.58
-18.11
-19.91
-19.80
-17.53
-13.85
-9.92
-6.69
-4.28
-2.12
0.53
3.93
7.45
9.79
9.57
6.06
-0.51
-8.91
-17.50
-24.91
-30.37
-33.99
-36.40
-38.42
-40.60
-43.02
-45.29
-46.53
-45.55
-40.98
-31.59
-16.72
3.25
26.57
50.30
70.91
85.24
91.40
89.21
80.11
66.49
50.92
35.48
21.47
9.48
-0.34
-8.06
-13.83
-18.02
-21.21
-24.15
-27.57
-31.75
-36.28
-40.06
-41.54
-39.46
-33.32
-23.80
-12.56
-1.79
6.46
10.96
11.54
9.18
5.65
3.11
3.38
7.45
15.00
24.53
33.64
39.86
41.39
37.54
28.90
16.91
3.49
-9.52
-20.71
-29.29
-35.14
-38.71
-40.84
-42.36
-43.79
-45.10
-45.66
-44.61
-41.15
-35.01
-26.58
-16.88
-7.24
0.95
6.66
9.31
8.87
5.89
1.27
-3.86
-8.43
-11.68
-13.31
-13.46
-12.57
-11.12
-9.33
-6.97
-3.33
2.58
11.61
23.94
38.63
53.64
66.24
73.87
74.95
69.44
58.75
45.15
31.06
18.37
8.23
1.20
-2.59
-3.33
-1.55
1.86
5.68
8.73
10.12
9.62
7.57
4.70
1.80
-0.56
-2.12
-2.95
-3.31
-3.51
-3.77
-4.13
-4.43
-4.46
-4.10
-3.41
-2.81
-2.82
-3.98
-6.48
-10.09
-14.20
-17.97
-20.61
-21.61
-20.79
-18.25
-14.33
-9.50
-4.30
0.73
5.14
8.64
11.21
12.99
14.30
15.41
16.43
17.31
17.81
17.74
16.98
15.56
13.65
11.45
9.06
6.51
3.80
0.85
-2.24
-5.36
-8.30
-10.89
-13.08
-14.91
-16.53
-18.04
-19.43
-20.54
-21.13
-20.98
-19.97
-18.14
-15.64
-12.72
-9.63
-6.62
-3.94
-1.80
-0.37
0.27
0.15
-0.62
-1.88
-3.44
-5.13
-6.80
-8.32
-9.65
-10.79
-11.80
-12.76
-13.77
-14.89
-16.20
-17.76
-19.55
-21.50
-23.43
-25.15
-26.44
-27.13
-27.07
-26.14
-24.27
-21.44
-17.80
-13.58
-9.05
-4.44
0.13
4.59
8.90
12.96
16.60
19.61
21.84
23.21
23.68
23.31
22.21
20.58
18.67
16.75
14.99
13.38
11.78
9.98
7.86
5.44
2.90
0.48
-1.66
-3.52
-5.29
-7.21
-9.52
-12.28
-15.30
-18.21
-20.53
-21.83
-21.81
-20.53
-18.24
-15.43
-12.55
-9.91
-7.59
-5.51
-3.54
-1.64
0.03
1.24
1.78
1.57
0.71
-0.58
-2.05
-3.45
-4.47
-4.82
-4.22
-2.63
-0.34
2.13
4.10
5.09
4.92
3.79
2.03
-0.06
-2.31
-4.77
-7.47
-10.37
-13.22
-15.66
-17.27
-17.80
-17.18
-15.54
-13.20
-10.42
-7.44
-4.31
-1.04
2.39
5.85
9.10
11.82
13.74
14.75
14.96
14.64
14.09
13.55
13.14
12.87
12.64
12.38
12.04
11.60
11.06
10.40
9.60
8.60
7.40
6.02
4.49
2.88
1.24
-0.41
-2.10
-3.94
-6.05
-8.57
-11.44
-14.41
-16.99
-18.64
-18.97
-17.86
-15.62
-12.77
-9.91
-7.46
-5.62
-4.40
-3.67
-3.27
-2.95
-2.42
-1.34
0.53
3.22
6.48
9.89
13.05
15.74
18.06
20.23
22.51
24.97
27.48
29.78
31.64
32.95
33.75
34.12
34.17
33.87
33.07
31.54
29.05
25.42
20.63
14.82
8.27
1.45
-5.14
-10.92
-15.38
-18.15
-19.08
-18.30
-16.15
-13.14
-9.76
-6.40
-3.26
-0.42
2.13
4.34
6.16
7.51
8.40
8.91
9.17
9.30
9.33
9.27
9.16
9.05
9.10
9.33
9.67
9.88
9.71
8.99
7.74
6.17
4.52
2.91
1.33
-0.38
-2.40
-4.82
-7.64
-10.80
-14.14
-17.44
-20.27
-22.08
-22.26
-20.47
-16.73
-11.61
-6.01
-0.79
3.47
6.67
9.00
10.78
12.20
13.25
13.82
13.83
13.42
12.81
12.28
11.98
11.92
11.97
11.96
11.69
10.96
9.64
7.59
4.83
1.53
-1.96
-5.17
-7.63
-9.07
-9.49
-9.12
-8.36
-7.56
-7.00
-6.79
-6.89
-7.21
-7.56
-7.66
-7.18
-5.82
-3.37
0.11
4.33
8.88
13.33
17.44
21.11
24.34
27.17
29.53
31.31
32.43
32.90
32.81
32.30
31.51
30.49
29.26
27.82
26.20
24.48
22.74
21.09
19.59
18.30
17.24
16.43
15.81
15.30
14.76
14.08
13.13
11.85
10.16
8.00
5.35
2.24
-1.20
-4.80
-8.30
-11.44
-13.97
-15.68
-16.45
-16.23
-15.08
-13.18
-10.75
-8.05
-5.24
-2.43
0.39
3.21
6.01
8.71
11.18
13.31
15.04
16.37
17.36
18.08
18.54
18.77
18.76
18.54
18.19
17.81
17.49
17.25
17.02
16.68
16.08
15.14
13.80
12.13
10.21
8.16
6.09
4.11
2.23
0.40
-1.51
-3.69
-6.28
-9.31
-12.60
-15.86
-18.67
-20.66
-21.56
-21.24
-19.78
-17.38
-14.29
-10.80
-7.18
-3.64
-0.32
2.62
5.09
7.03
8.43
9.38
10.00
10.43
10.82
11.25
11.73
12.21
12.66
13.07
13.46
13.84
14.12
14.19
13.87
13.05
11.75
10.10
8.27
6.46
4.72
3.01
1.23
-0.69
-2.77
-4.96
-7.18
-9.37
-11.51
-13.52
-15.25
-16.49
-17.05
-16.79
-15.74
-14.03
-11.81
-9.15
-6.06
-2.57
1.16
4.84
8.01
10.32
11.63
12.11
12.15
12.13
12.30
12.66
13.01
13.14
12.90
12.28
11.39
10.37
9.32
8.31
7.33
6.33
5.28
4.14
2.92
1.56
0.05
-1.70
-3.74
-6.05
-8.54
-10.95
-13.00
-14.36
-14.80
-14.26
-12.84
-10.78
-8.35
-5.77
-3.14
-0.51
2.11
4.63
6.91
8.76
10.03
10.68
10.79
10.52
10.04
9.47
8.92
8.39
7.90
7.39
6.78
6.03
5.13
4.16
3.19
2.27
1.34
0.28
-1.07
-2.81
-4.93
-7.36
-10.01
-12.89
-16.02
-19.39
-22.80
-25.89
-28.23
-29.47
-29.48
-28.42
-26.61
-24.40
-22.03
-19.57
-16.96
-14.10
-10.90
-7.40
-3.65
0.22
4.13
7.99
11.75
15.42
18.95
22.36
25.60
28.64
31.38
33.70
35.47
36.54
36.85
36.39
35.27
33.63
31.65
29.48
27.17
24.71
21.94
18.73
14.94
10.58
5.86
1.17
-3.02
-6.26
-8.27
-9.01
-8.71
-7.70
-6.33
-4.84
-3.36
-1.89
-0.45
0.86
1.94
2.70
3.16
3.47
3.89
4.55
5.49
6.55
7.52
8.20
8.58
8.76
8.94
9.26
9.74
10.29
10.77
11.09
11.26
11.35
11.43
11.47
11.31
10.72
9.49
7.51
4.82
1.56
-2.07
-5.92
-9.83
-13.63
-17.11
-19.95
-21.86
-22.64
-22.24
-20.83
-18.67
-16.08
-13.30
-10.46
-7.60
-4.75
-1.95
0.69
3.04
4.99
6.43
7.35
7.78
7.82
7.60
7.20
6.67
5.97
5.04
3.81
2.30
0.60
-1.15
-2.84
-4.43
-5.94
-7.46
-9.06
-10.78
-12.64
-14.60
-16.67
-18.81
-20.99
-23.14
-25.17
-26.94
-28.32
-29.15
-29.26
-28.58
-27.14
-25.13
-22.86
-20.59
-18.47
-16.43
-14.21
-11.57
-8.37
-4.77
-1.17
1.86
3.77
4.20
3.09
0.75
-2.20
-4.95
-6.64
-6.58
-4.46
-0.44
4.91
10.78
16.39
21.17
24.76
27.00
27.81
27.14
25.07
21.93
18.31
15.04
13.02
13.04
15.47
20.11
26.11
31.97
35.90
36.29
32.27
24.11
13.24
1.77
-8.15
-15.11
-18.63
-19.14
-17.45
-14.38
-10.43
-5.84
-0.83
4.32
9.08
12.94
15.57
16.96
17.43
17.39
17.16
16.76
15.98
14.44
11.87
8.23
3.73
-1.16
-5.93
-10.12
-13.49
-15.95
-17.58
-18.51
-18.86
-18.76
-18.33
-17.72
-17.13
-16.69
-16.30
-15.64
-14.22
-11.64
-7.94
-3.64
0.39
3.27
4.56
4.35
3.19
1.72
0.39
-0.71
-1.67
-2.62
-3.49
-4.04
-4.03
-3.30
-1.93
-0.14
1.79
3.64
5.21
6.42
7.27
7.72
7.72
7.12
5.65
3.05
-0.84
-5.83
-11.35
-16.54
-20.60
-23.02
-23.82
-23.41
-22.36
-21.11
-19.76
-18.22
-16.33
-14.06
-11.56
-9.00
-6.53
-4.12
-1.73
0.69
3.05
5.18
6.87
8.00
8.54
8.57
8.28
7.86
7.48
7.23
7.17
7.25
7.43
7.72
8.13
8.71
9.44
10.21
10.79
10.84
10.01
8.03
4.77
0.29
-5.05
-10.76
-16.18
-20.65
-23.66
-24.93
-24.49
-22.59
-19.65
-16.08
-12.28
-8.55
-5.07
-2.00
0.57
2.57
3.99
4.84
5.18
5.14
4.87
4.51
4.17
3.96
3.90
3.99
4.17
4.37
4.42
4.20
3.59
2.55
1.12
-0.60
-2.45
-4.30
-6.04
-7.61
-9.02
-10.31
-11.48
-12.48
-13.21
-13.49
-13.16
-12.09
-10.26
-7.79
-4.95
-2.07
0.53
2.57
3.94
4.69
4.98
4.98
4.83
4.60
4.35
4.13
4.01
4.08
4.30
4.57
4.70
4.56
4.13
3.47
2.75
2.09
1.53
1.03
0.52
-0.09
-0.84
-1.74
-2.76
-3.77
-4.64
-5.17
-5.22
-4.72
-3.72
-2.38
-0.88
0.68
2.23
3.75
5.25
6.66
7.92
8.92
9.59
9.90
9.85
9.46
8.75
7.77
6.62
5.42
4.35
3.51
2.93
2.53
2.16
1.68
1.00
0.14
-0.84
-1.87
-2.95
-4.09
-5.33
-6.69
-8.10
-9.47
-10.71
-11.67
-12.23
-12.28
-11.73
-10.57
-8.89
-6.85
-4.63
-2.39
-0.21
1.87
3.76
5.35
6.51
7.16
7.34
7.18
6.87
6.59
6.41
6.32
6.28
6.20
6.00
5.63
5.07
4.32
3.43
2.43
1.41
0.40
-0.59
-1.52
-2.41
-3.21
-3.91
-4.51
-5.12
-5.85
-6.79
-7.95
-9.18
-10.25
-10.89
-10.93
-10.34
-9.21
-7.76
-6.20
-4.71
-3.38
-2.25
-1.30
-0.54
-0.02
0.19
0.03
-0.48
-1.21
-2.02
-2.76
-3.41
-4.07
-4.89
-6.00
-7.39
-8.95
-10.52
-11.96
-13.26
-14.44
-15.52
-16.52
-17.45
-18.39
-19.53
-21.04
-22.93
-24.95
-26.57
-27.12
-26.07
-23.20
-18.70
-13.02
-6.72
-0.25
6.12
12.18
17.68
22.32
25.73
27.67
28.11
27.32
25.76
23.96
22.36
21.19
20.40
19.86
19.37
18.82
18.20
17.55
16.89
16.20
15.36
14.30
13.00
11.54
10.00
8.50
7.05
5.63
4.22
2.81
1.45
0.17
-1.01
-2.10
-3.13
-4.11
-5.06
-6.02
-7.06
-8.17
-9.27
-10.19
-10.64
-10.45
-9.54
-8.06
-6.23
-4.32
-2.53
-0.95
0.37
1.40
2.15
2.65
3.00
3.34
3.82
4.53
5.48
6.64
7.87
9.05
9.99
10.53
10.56
10.07
9.19
8.10
7.00
6.02
5.17
4.40
3.66
2.91
2.20
1.57
1.01
0.48
-0.14
-0.94
-1.96
-3.16
-4.43
-5.62
-6.61
-7.30
-7.63
-7.60
-7.22
-6.52
-5.54
-4.40
-3.25
-2.21
-1.38
-0.77
-0.33
0.01
0.31
0.58
0.82
0.98
1.07
1.12
1.18
1.28
1.41
1.55
1.63
1.62
1.50
1.30
1.01
0.68
0.35
0.05
-0.18
-0.32
-0.40
-0.47
-0.59
-0.83
-1.22
-1.74
-2.35
-2.98
-3.62
-4.26
-4.90
-5.53
-6.08
-6.41
-6.40
-5.96
-5.12
-4.04
-2.93
-1.95
-1.20
-0.67
-0.32
-0.06
0.14
0.27
0.35
0.40
0.44
0.46
0.47
0.42
0.29
0.09
-0.16
-0.46
-0.80
-1.24
-1.82
-2.54
-3.33
-4.11
-4.79
-5.38
-5.93
-6.48
-7.07
-7.64
-8.18
-8.64
-9.08
-9.51
-9.90
-10.12
-9.99
-9.35
-8.18
-6.59
-4.86
-3.26
-2.02
-1.26
-0.95
-1.00
-1.29
-1.69
-2.14
-2.61
-3.10
-3.61
-4.12
-4.55
-4.82
-4.91
-4.83
-4.70
-4.61
-4.60
-4.64
-4.65
-4.58
-4.42
-4.28
-4.25
-4.41
-4.71
-5.02
-5.22
-5.27
-5.28
-5.47
-6.01
-6.93
-8.03
-9.00
-9.53
-9.52
-9.03
-8.25
-7.37
-6.46
-5.48
-4.36
-3.12
-1.87
-0.79
-0.01
0.42
0.58
0.60
0.59
0.57
0.51
0.36
0.09
-0.23
-0.49
-0.59
-0.50
-0.26
-0.01
0.15
0.20
0.19
0.20
0.24
0.23
0.04
-0.42
-1.11
-1.87
-2.51
-2.98
-3.38
-3.94
-4.86
-6.16
-7.62
-8.88
-9.59
-9.61
-8.98
-7.96
-6.76
-5.52
-4.26
-2.97
-1.65
-0.39
0.68
1.47
1.96
2.26
2.53
2.89
3.38
3.93
4.42
4.70
4.69
4.41
3.95
3.47
3.11
2.94
2.91
2.89
2.73
2.37
1.81
1.10
0.33
-0.50
-1.38
-2.37
-3.48
-4.66
-5.84
-6.91
-7.82
-8.54
-9.09
-9.53
-9.90
-10.20
-10.43
-10.56
-10.63
-10.64
-10.58
-10.38
-9.91
-9.06
-7.80
-6.26
-4.61
-3.04
-1.63
-0.34
0.93
2.27
3.65
4.94
5.98
6.70
7.13
7.41
7.72
8.13
8.62
9.05
9.24
9.09
8.59
7.88
7.14
6.56
6.20
6.00
5.85
5.60
5.16
4.52
3.69
2.69
1.53
0.20
-1.24
-2.65
-3.84
-4.63
-4.89
-4.64
-4.00
-3.14
-2.19
-1.24
-0.28
0.69
1.61
2.37
2.81
2.85
2.51
1.92
1.28
0.75
0.36
0.04
-0.31
-0.80
-1.44
-2.25
-3.16
-4.18
-5.28
-6.45
-7.60
-8.63
-9.45
-10.07
-10.57
-11.12
-11.87
-12.88
-14.13
-15.50
-16.91
-18.24
-19.44
-20.44
-21.15
-21.50
-21.44
-20.90
-19.82
-18.16
-15.86
-12.90
-9.37
-5.46
-1.49
2.22
5.43
8.00
9.99
11.55
12.89
14.21
15.66
17.34
19.26
21.39
23.67
26.04
28.37
30.57
32.52
34.11
35.30
36.02
36.25
35.91
34.95
33.37
31.18
28.51
25.50
22.30
19.00
15.64
12.27
8.93
5.73
2.79
0.27
-1.74
-3.17
-4.00
-4.33
-4.28
-3.98
-3.55
-3.04
-2.45
-1.83
-1.22
-0.76
-0.55
-0.63
-0.94
-1.34
-1.69
-1.93
-2.07
-2.12
-2.08
-1.88
-1.44
-0.71
0.24
1.27
2.19
2.88
3.33
3.60
3.81
4.02
4.27
4.57
4.87
5.16
5.42
5.64
5.81
5.91
5.92
5.74
5.31
4.56
3.47
2.09
0.52
-1.13
-2.73
-4.23
-5.54
-6.58
-7.31
-7.70
-7.80
-7.72
-7.63
-7.61
-7.70
-7.85
-7.94
-7.90
-7.68
-7.32
-6.89
-6.46
-6.08
-5.74
-5.40
-5.03
-4.61
-4.22
-3.96
-3.91
-4.07
-4.35
-4.60
-4.68
-4.55
-4.26
-3.90
-3.55
-3.22
-2.86
-2.45
-2.06
-1.79
-1.79
-2.09
-2.64
-3.29
-3.96
-4.59
-5.24
-5.99
-6.84
-7.69
-8.34
-8.56
-8.20
-7.28
-5.93
-4.39
-2.86
-1.52
-0.42
0.46
1.19
1.82
2.37
2.82
3.12
3.22
3.16
3.00
2.85
2.77
2.75
2.68
2.46
2.06
1.59
1.21
1.07
1.19
1.44
1.60
1.44
0.88
0.01
-1.01
-2.00
-2.85
-3.50
-3.96
-4.29
-4.53
-4.77
-5.10
-5.56
-6.15
-6.79
-7.34
-7.65
-7.60
-7.16
-6.32
-5.18
-3.84
-2.42
-1.05
0.15
1.12
1.84
2.35
2.73
3.08
3.44
3.80
4.09
4.24
4.21
4.03
3.78
3.58
3.43
3.34
3.23
3.04
2.75
2.39
2.02
1.63
1.17
0.51
-0.37
-1.51
-2.84
-4.24
-5.65
-7.07
-8.54
-10.12
-11.77
-13.37
-14.69
-15.54
-15.79
-15.44
-14.60
-13.48
-12.25
-11.07
-10.00
-8.97
-7.91
-6.69
-5.27
-3.66
-1.99
-0.41
0.97
2.08
2.98
3.78
4.60
5.50
6.45
7.38
8.18
8.84
9.41
10.04
10.85
11.95
13.27
14.63
15.78
16.55
16.91
16.99
17.00
17.10
17.34
17.67
17.95
18.13
18.15
17.98
17.55
16.81
15.67
14.18
12.49
10.84
9.42
8.31
7.40
6.50
5.44
4.11
2.56
0.88
-0.81
-2.38
-3.76
-4.90
-5.77
-6.40
-6.86
-7.26
-7.73
-8.32
-8.92
-9.35
-9.38
-8.88
-7.86
-6.47
-4.93
-3.44
-2.13
-1.03
-0.18
0.42
0.77
0.89
0.88
0.83
0.79
0.75
0.63
0.35
-0.11
-0.73
-1.48
-2.37
-3.40
-4.60
-5.92
-7.25
-8.41
-9.23
-9.61
-9.50
-8.92
-7.95
-6.66
-5.20
-3.72
-2.40
-1.33
-0.49
0.23
0.97
1.79
2.60
3.25
3.59
3.54
3.21
2.75
2.33
2.03
1.85
1.72
1.61
1.54
1.52
1.59
1.65
1.62
1.43
1.07
0.62
0.20
-0.09
-0.25
-0.35
-0.52
-0.86
-1.38
-2.02
-2.64
-3.18
-3.60
-3.97
-4.37
-4.86
-5.46
-6.16
-6.86
-7.52
-8.02
-8.28
-8.19
-7.69
-6.82
-5.64
-4.32
-3.00
-1.81
-0.80
0.05
0.76
1.36
1.84
2.20
2.41
2.48
2.45
2.41
2.47
2.67
3.03
3.45
3.81
4.01
4.04
3.97
3.87
3.80
3.73
3.58
3.24
2.70
2.00
1.27
0.61
0.07
-0.44
-1.00
-1.71
-2.59
-3.59
-4.60
-5.55
-6.39
-7.08
-7.60
-7.89
-7.90
-7.59
-6.94
-6.03
-4.94
-3.77
-2.65
-1.62
-0.72
0.11
0.96
1.86
2.78
3.63
4.28
4.70
4.95
5.15
5.44
5.87
6.40
6.90
7.22
7.22
6.87
6.20
5.35
4.47
3.71
3.15
2.74
2.36
1.83
1.08
0.13
-0.91
-1.94
-2.87
-3.74
-4.59
-5.46
-6.33
-7.10
-7.68
-7.97
-7.91
-7.51
-6.79
-5.84
-4.74
-3.60
-2.50
-1.51
-0.69
-0.06
0.41
0.73
0.96
1.16
1.34
1.51
1.64
1.67
1.57
1.30
0.89
0.37
-0.18
-0.72
-1.16
-1.48
-1.71
-1.88
-2.10
-2.42
-2.91
-3.58
-4.45
-5.48
-6.64
-7.86
-9.13
-10.45
-11.78
-13.10
-14.26
-15.10
-15.44
-15.23
-14.59
-13.79
-13.14
-12.78
-12.67
-12.58
-12.27
-11.57
-10.54
-9.34
-8.23
-7.39
-6.91
-6.76
-6.86
-7.10
-7.38
-7.63
-7.79
-7.86
-7.84
-7.74
-7.56
-7.27
-6.78
-6.00
-4.85
-3.29
-1.34
0.90
3.23
5.42
7.26
8.57
9.33
9.61
9.60
9.51
9.49
9.58
9.76
9.97
10.24
10.67
11.42
12.61
14.23
16.14
18.10
19.90
21.40
22.51
23.22
23.49
23.26
22.49
21.23
19.60
17.80
16.04
14.41
12.88
11.39
9.86
8.31
6.85
5.59
4.61
3.88
3.26
2.61
1.82
0.82
-0.34
-1.61
-2.91
-4.18
-5.37
-6.40
-7.22
-7.76
-7.96
-7.79
-7.23
-6.35
-5.19
-3.83
-2.37
-0.90
0.48
1.68
2.59
3.16
3.37
3.32
3.15
3.05
3.15
3.47
3.96
4.51
5.03
5.49
5.91
6.35
6.86
7.44
8.02
8.45
8.55
8.15
7.15
5.54
3.46
1.10
-1.33
-3.67
-5.81
-7.72
-9.37
-10.72
-11.72
-12.30
-12.50
-12.39
-12.09
-11.71
-11.25
-10.68
-9.95
-9.04
-8.04
-7.16
-6.52
-6.19
-6.10
-6.12
-6.14
-6.13
-6.13
-6.19
-6.35
-6.60
-6.96
-7.44
-7.99
-8.51
-8.82
-8.79
-8.39
-7.79
-7.26
-7.05
-7.19
-7.53
-7.80
-7.77
-7.42
-6.87
-6.35
-6.04
-5.99
-6.13
-6.33
-6.47
-6.43
-6.13
-5.54
-4.68
-3.64
-2.54
-1.47
-0.47
0.54
1.62
2.84
4.20
5.59
6.87
7.89
8.56
8.88
8.96
8.91
8.88
8.91
9.00
9.07
9.08
8.95
8.68
8.25
7.65
6.81
5.65
4.11
2.20
0.05
-2.10
-4.00
-5.42
-6.26
-6.58
-6.54
-6.22
-5.64
-4.68
-3.25
-1.36
0.76
2.79
4.46
5.72
6.75
7.89
9.40
11.33
13.51
15.71
17.69
19.37
20.78
21.94
22.81
23.32
23.39
22.94
21.97
20.48
18.53
16.20
13.64
11.07
8.78
7.03
6.03
5.84
6.41
7.54
8.93
10.28
11.37
12.05
12.36
12.35
12.14
11.76
11.18
10.36
9.26
7.91
6.32
4.51
2.48
0.20
-2.29
-4.92
-7.56
-10.10
-12.48
-14.68
-16.70
-18.52
-20.09
-21.32
-22.16
-22.58
-22.63
-22.38
-21.96
-21.47
-20.98
-20.52
-20.01
-19.38
-18.48
-17.24
-15.69
-13.99
-12.43
-11.35
-11.06
-11.74
-13.41
-15.94
-19.11
-22.63
-26.23
-29.59
-32.40
-34.33
-35.09
-34.52
-32.57
-29.42
-25.38
-20.84
-16.14
-11.50
-7.00
-2.55
1.96
6.55
11.11
15.34
18.95
21.73
23.72
25.18
26.50
28.02
29.89
32.00
34.10
35.86
37.05
37.61
37.63
37.32
36.91
36.58
36.44
36.46
36.53
36.42
35.93
34.90
33.35
31.44
29.48
27.72
26.28
25.04
23.72
21.97
19.55
16.43
12.79
8.94
5.19
1.75
-1.34
-4.18
-7.01
-10.06
-13.52
-17.43
-21.71
-26.11
-30.37
-34.15
-37.11
-38.92
-39.27
-37.96
-34.96
-30.51
-25.01
-18.98
-12.92
-7.13
-1.74
3.28
8.00
12.49
16.69
20.48
23.73
26.32
28.19
29.34
29.78
29.57
28.80
27.59
26.09
24.46
22.80
21.21
19.73
18.40
17.21
16.11
14.96
13.63
11.99
10.07
7.97
5.85
3.87
2.09
0.44
-1.16
-2.82
-4.56
-6.39
-8.24
-10.05
-11.72
-13.15
-14.23
-14.85
-14.98
-14.63
-13.93
-12.95
-11.78
-10.41
-8.76
-6.73
-4.19
-1.09
2.59
6.76
11.20
15.64
19.73
23.13
25.65
27.25
28.01
28.15
27.86
27.20
26.10
24.39
21.95
18.80
15.15
11.31
7.58
4.12
0.95
-2.05
-5.00
-7.89
-10.64
-13.08
-15.12
-16.77
-18.13
-19.32
-20.38
-21.28
-21.93
-22.29
-22.45
-22.62
-23.03
-23.83
-25.02
-26.46
-27.97
-29.41
-30.73
-31.97
-33.18
-34.42
-35.71
-37.05
-38.43
-39.77
-40.89
-41.55
-41.50
-40.58
-38.81
-36.35
-33.52
-30.63
-27.88
-25.40
-23.17
-21.12
-19.14
-17.14
-15.09
-13.03
-11.03
-9.19
-7.53
-6.03
-4.58
-3.11
-1.52
0.20
2.02
3.89
5.75
7.51
9.13
10.59
11.94
13.30
14.78
16.51
18.45
20.48
22.33
23.73
24.40
24.24
23.35
22.04
20.72
19.75
19.29
19.23
19.29
19.10
18.37
16.98
14.98
12.55
10.01
7.67
5.85
4.72
4.23
4.13
4.04
3.56
2.51
1.00
-0.70
-2.19
-3.25
-3.88
-4.27
-4.73
-5.46
-6.50
-7.69
-8.79
-9.57
-9.98
-10.10
-10.17
-10.48
-11.29
-12.71
-14.73
-17.10
-19.48
-21.54
-23.09
-24.17
-25.03
-25.92
-26.84
-27.47
-27.23
-25.61
-22.41
-17.94
-12.81
-7.68
-2.94
1.32
5.29
9.04
12.44
15.12
16.68
16.96
16.23
15.12
14.41
14.70
16.22
18.77
21.90
25.12
28.08
30.55
32.39
33.40
33.32
31.97
29.37
25.79
21.69
17.51
13.56
9.94
6.62
3.55
0.74
-1.74
-3.85
-5.64
-7.21
-8.70
-10.16
-11.57
-12.84
-13.88
-14.66
-15.19
-15.56
-15.87
-16.29
-16.92
-17.76
-18.73
-19.63
-20.27
-20.48
-20.23
-19.56
-18.50
-17.09
-15.33
-13.25
-10.95
-8.60
-6.39
-4.49
-3.01
-1.96
-1.29
-0.89
-0.64
-0.41
-0.12
0.30
0.81
1.39
1.98
2.54
3.05
3.53
3.99
4.41
4.76
4.98
5.03
4.89
4.58
4.11
3.52
2.85
2.16
1.49
0.86
0.30
-0.18
-0.61
-1.07
-1.64
-2.39
-3.35
-4.51
-5.80
-7.17
-8.56
-9.85
-10.96
-11.74
-12.06
-11.83
-11.03
-9.74
-8.13
-6.41
-4.75
-3.23
-1.85
-0.52
0.81
2.12
3.32
4.29
4.97
5.46
5.90
6.48
7.24
8.15
9.02
9.69
10.04
10.04
9.75
9.31
8.84
8.46
8.26
8.30
8.56
8.98
9.41
9.64
9.46
8.75
7.50
5.90
4.18
2.53
1.05
-0.35
-1.81
-3.42
-5.13
-6.74
-8.00
-8.70
-8.75
-8.24
-7.43
-6.63
-6.11
-6.03
-6.35
-6.80
-6.96
-6.44
-5.01
-2.75
-0.00
2.78
5.16
6.92
8.02
8.56
8.63
8.30
7.57
6.47
5.10
3.70
2.56
1.94
1.98
2.59
3.50
4.31
4.63
4.27
3.25
1.79
0.22
-1.15
-2.13
-2.68
-2.88
-2.85
-2.73
-2.61
-2.59
-2.78
-3.22
-3.92
-4.71
-5.38
-5.72
-5.59
-5.01
-4.07
-2.90
-1.56
-0.09
1.45
2.99
4.31
5.24
5.67
5.63
5.29
4.88
4.56
4.40
4.35
4.29
4.15
3.85
3.41
2.88
2.33
1.89
1.65
1.64
1.79
1.94
1.88
1.47
0.75
-0.12
-0.84
-1.20
-1.12
-0.72
-0.31
-0.23
-0.77
-2.02
-3.85
-5.96
-7.93
-9.32
-9.78
-9.10
-7.31
-4.68
-1.73
0.87
2.52
2.88
2.05
0.54
-0.89
-1.51
-0.99
0.61
2.89
5.31
7.50
9.31
10.76
11.88
12.60
12.77
12.30
11.26
9.91
8.61
7.67
7.20
7.06
6.95
6.57
5.70
4.32
2.59
0.73
-1.05
-2.68
-4.26
-5.96
-7.96
-10.26
-12.69
-14.90
-16.59
-17.60
-17.98
-17.93
-17.61
-17.07
-16.18
-14.81
-12.88
-10.45
-7.73
-4.89
-2.09
0.62
3.17
5.51
7.54
9.13
10.23
10.85
11.14
11.28
11.43
11.69
12.00
12.23
12.17
11.75
10.95
9.93
8.86
7.84
6.88
5.93
4.93
3.91
3.01
2.34
1.86
1.43
0.78
-0.23
-1.59
-3.05
-4.24
-4.89
-4.90
-4.40
-3.65
-2.84
-2.05
-1.22
-0.23
0.98
2.34
3.66
4.75
5.49
5.86
5.98
5.99
6.01
6.06
6.08
5.99
5.77
5.49
5.25
5.17
5.26
5.45
5.57
5.49
5.12
4.50
3.70
2.83
1.93
1.06
0.25
-0.46
-1.10
-1.71
-2.39
-3.23
-4.27
-5.40
-6.45
-7.20
-7.53
-7.37
-6.81
-5.95
-4.96
-3.92
-2.92
-1.98
-1.05
-0.07
1.01
2.19
3.40
4.49
5.36
5.92
6.19
6.22
6.03
5.59
4.81
3.66
2.21
0.67
-0.71
-1.64
-2.02
-1.88
-1.38
-0.77
-0.23
0.09
0.17
0.03
-0.29
-0.70
-1.16
-1.57
-1.89
-2.06
-2.08
-2.01
-1.87
-1.72
-1.56
-1.33
-0.92
-0.21
0.88
2.32
3.98
5.65
7.04
7.98
8.38
8.32
8.01
7.70
7.63
7.92
8.58
9.50
10.55
11.61
12.60
13.50
14.32
15.00
15.43
15.47
14.94
13.85
12.33
10.64
9.02
7.56
6.11
4.34
1.88
-1.50
-5.80
-10.69
-15.60
-19.82
-22.68
-23.76
-23.00
-20.79
-17.87
-15.09
-13.20
-12.57
-13.10
-14.35
-15.61
-16.19
-15.53
-13.33
-9.64
-4.82
0.46
5.45
9.52
12.41
14.31
15.79
17.58
20.28
24.23
29.39
35.47
41.99
48.45
54.33
59.25
63.00
65.46
66.44
65.34
61.37
53.94
43.26
30.68
18.23
7.72
-0.22
-6.47
-12.80
-20.63
-30.03
-39.57
-47.06
-50.89
-50.86
-48.19
-44.69
-41.76
-39.84
-38.52
-37.13
-35.29
-33.11
-31.04
-29.48
-28.51
-27.81
-26.77
-24.80
-21.65
-17.53
-13.13
-9.32
-6.84
-6.00
-6.58
-7.97
-9.47
-10.60
-11.19
-11.41
-11.47
-11.52
-11.57
-11.48
-11.17
-10.66
-10.08
-9.58
-9.16
-8.62
-7.57
-5.58
-2.37
2.02
7.16
12.40
17.10
20.79
23.26
24.51
24.68
23.92
22.45
20.56
18.57
16.67
14.83
12.77
10.19
6.95
3.29
-0.32
-3.40
-5.81
-7.89
-10.25
-13.37
-17.24
-21.30
-24.68
-26.53
-26.42
-24.41
-20.98
-16.72
-12.16
-7.63
-3.35
0.50
3.80
6.42
8.42
10.01
11.58
13.56
16.23
19.63
23.59
27.77
31.89
35.81
39.58
43.37
47.28
51.25
54.93
57.75
59.05
58.25
54.99
49.26
41.35
31.90
21.70
11.55
2.05
-6.44
-13.95
-20.65
-26.86
-32.73
-38.22
-43.03
-46.79
-49.21
-50.17
-49.89
-48.76
-47.27
-45.80
-44.51
-43.33
-42.02
-40.34
-38.06
-35.15
-31.66
-27.74
-23.56
-19.27
-15.00
-10.84
-6.88
-3.16
0.23
3.28
6.01
8.49
10.86
13.17
15.43
17.50
19.21
20.41
21.04
21.24
21.21
21.23
21.49
22.08
23.01
24.18
25.48
26.77
27.88
28.62
28.85
28.48
27.45
25.78
23.42
20.31
16.33
11.47
5.86
-0.20
-6.27
-11.93
-16.86
-20.98
-24.34
-27.14
-29.57
-31.81
-33.94
-35.95
-37.75
-39.10
-39.72
-39.32
-37.74
-35.00
-31.38
-27.32
-23.25
-19.54
-16.36
-13.77
-11.77
-10.39
-9.60
-9.22
-8.86
-7.97
-6.05
-2.82
1.51
6.40
11.10
14.94
17.52
18.72
18.73
17.79
16.19
14.13
11.74
9.09
6.23
3.24
0.15
-2.96
-6.12
-9.33
-12.60
-15.86
-18.91
-21.48
-23.28
-24.25
-24.44
-24.08
-23.40
-22.40
-20.95
-18.77
-15.71
-11.75
-7.27
-2.78
1.10
3.87
5.35
5.60
4.94
3.79
2.62
1.84
1.74
2.50
4.06
6.18
8.41
10.28
11.35
11.48
10.76
9.55
8.28
7.33
6.99
7.30
8.21
9.53
11.01
12.34
13.23
13.50
13.04
11.94
10.37
8.56
6.70
4.90
3.21
1.66
0.30
-0.78
-1.41
-1.41
-0.62
1.04
3.43
6.17
8.63
10.14
10.18
8.63
5.81
2.42
-0.80
-3.27
-4.75
-5.25
-4.89
-3.72
-1.74
1.05
4.44
8.08
11.51
14.35
16.45
17.88
18.80
19.30
19.39
18.93
17.82
16.02
13.62
10.82
7.86
4.97
2.32
0.08
-1.60
-2.54
-2.54
-1.36
1.16
5.06
10.27
16.50
23.40
30.53
37.44
43.70
48.90
52.76
55.17
56.24
56.29
55.76
55.01
54.31
53.79
53.49
53.41
53.44
53.36
52.77
51.30
48.76
45.36
41.68
38.52
36.48
35.65
35.57
35.38
34.23
31.58
27.25
21.40
14.31
6.40
-1.70
-9.13
-14.93
-18.35
-19.26
-18.25
-16.50
-15.30
-15.58
-17.61
-21.17
-25.79
-31.08
-36.78
-42.71
-48.56
-53.93
-58.41
-61.84
-64.36
-66.36
-68.21
-70.06
-71.71
-72.61
-72.12
-69.71
-65.25
-59.08
-52.02
-45.12
-39.36
-35.38
-33.34
-32.95
-33.56
-34.37
-34.59
-33.52
-30.80
-26.49
-21.15
-15.59
-10.48
-5.99
-1.56
3.88
11.34
21.35
33.74
47.80
62.71
77.89
93.01
107.83
122.03
135.12
146.58
156.06
163.28
167.80
168.69
164.62
154.31
137.49
115.67
92.18
71.25
56.42
49.12
48.12
50.31
52.25
51.73
48.31
42.84
36.28
28.82
19.73
8.33
-5.15
-19.13
-31.27
-39.65
-43.88
-45.34
-46.44
-49.36
-55.05
-62.83
-70.98
-77.59
-81.47
-82.32
-80.52
-76.60
-70.90
-63.56
-54.73
-44.85
-34.79
-25.69
-18.60
-14.07
-11.94
-11.37
-11.22
-10.46
-8.64
-5.93
-2.90
-0.13
2.17
4.18
6.15
8.06
9.41
9.48
7.84
4.71
0.99
-2.29
-4.56
-6.00
-7.50
-10.07
-14.25
-19.81
-25.86
-31.26
-35.10
-37.04
-37.30
-36.58
-35.69
-35.38
-36.00
-37.52
-39.54
-41.61
-43.43
-45.08
-46.89
-49.29
-52.48
-56.30
-60.30
-64.03
-67.28
-70.15
-72.94
-75.84
-78.74
-81.38
-83.51
-85.19
-86.88
-89.15
-92.34
-96.35
-100.64
-104.48
-107.41
-109.34
-110.56
-111.42
-111.92
-111.58
-109.61
-105.22
-98.12
-88.61
-77.54
-65.97
-54.77
-44.40
-34.82
-25.72
-16.69
-7.44
2.18
12.20
22.53
32.89
42.76
51.35
57.84
61.75
63.16
62.83
61.90
61.48
62.17
63.90
66.06
67.84
68.53
67.75
65.39
61.57
56.47
50.19
42.80
34.34
24.92
14.81
4.47
-5.52
-14.52
-22.04
-27.77
-31.64
-33.76
-34.32
-33.54
-31.70
-29.16
-26.40
-23.93
-22.18
-21.35
-21.33
-21.79
-22.31
-22.49
-22.09
-21.02
-19.33
-17.23
-14.96
-12.74
-10.82
-9.32
-8.22
-7.37
-6.54
-5.51
-4.18
-2.60
-0.94
0.64
2.03
3.22
4.25
5.11
5.76
6.13
6.21
6.10
5.94
5.85
5.87
5.89
5.73
5.27
4.50
3.61
2.88
2.60
2.97
3.96
5.39
6.96
8.38
9.44
10.12
10.46
10.53
10.39
10.00
9.33
8.42
7.41
6.49
5.82
5.44
5.23
5.00
4.63
4.10
3.49
2.94
2.51
2.20
1.92
1.57
1.11
0.52
-0.19
-1.00
-1.90
-2.84
-3.74
-4.46
-4.87
-4.94
-4.65
-4.09
-3.34
-2.46
-1.46
-0.32
0.98
2.41
3.91
5.43
6.84
8.06
8.97
9.50
9.60
9.30
8.70
7.95
7.16
6.42
5.77
5.19
4.68
4.25
3.90
3.63
3.36
2.99
2.48
1.88
1.33
0.97
0.84
0.83
0.69
0.21
-0.75
-2.07
-3.49
-4.69
-5.38
-5.44
-4.85
-3.70
-2.14
-0.37
1.39
2.96
4.22
5.20
6.01
6.81
7.71
8.69
9.57
10.15
10.30
10.04
9.58
9.19
9.07
9.23
9.51
9.69
9.64
9.35
8.94
8.59
8.34
8.12
7.77
7.15
6.24
5.11
3.90
2.71
1.58
0.43
-0.82
-2.21
-3.68
-5.09
-6.27
-7.05
-7.34
-7.12
-6.44
-5.41
-4.10
-2.61
-0.99
0.66
2.27
3.76
5.09
6.20
7.12
7.84
8.37
8.75
9.03
9.28
9.55
9.84
10.01
9.94
9.50
8.70
7.70
6.77
6.14
5.92
6.00
6.14
6.07
5.62
4.78
3.69
2.49
1.30
0.10
-1.20
-2.66
-4.26
-5.81
-7.06
-7.76
-7.80
-7.22
-6.17
-4.87
-3.45
-1.97
-0.42
1.25
3.06
4.92
6.72
8.30
9.54
10.41
10.95
11.27
11.46
11.56
11.53
11.29
10.85
10.25
9.69
9.29
9.15
9.19
9.25
9.11
8.61
7.72
6.47
4.96
3.33
1.67
0.06
-1.47
-2.95
-4.46
-6.11
-7.95
-9.99
-12.08
-14.00
-15.48
-16.28
-16.28
-15.50
-14.10
-12.27
-10.23
-8.14
-6.07
-4.05
-2.06
-0.09
1.80
3.51
4.93
6.01
6.73
7.16
7.39
7.52
7.63
7.72
7.77
7.72
7.51
7.14
6.62
6.00
5.37
4.73
4.10
3.43
2.65
1.70
0.56
-0.77
-2.35
-4.24
-6.53
-9.17
-11.99
-14.58
-16.48
-17.31
-16.95
-15.55
-13.43
-10.98
-8.43
-5.89
-3.34
-0.77
1.74
4.05
6.00
7.55
8.68
9.49
10.05
10.37
10.48
10.38
10.18
9.98
9.88
9.86
9.84
9.66
9.18
8.38
7.28
6.00
4.68
3.40
2.23
1.14
0.13
-0.87
-1.95
-3.20
-4.65
-6.27
-7.89
-9.26
-10.06
-10.09
-9.28
-7.73
-5.65
-3.27
-0.77
1.74
4.16
6.40
8.36
9.96
11.18
12.08
12.78
13.37
13.92
14.37
14.68
14.79
14.74
14.64
14.59
14.63
14.68
14.59
14.19
13.34
12.08
10.55
8.95
7.46
6.09
4.70
3.02
0.82
-1.95
-5.09
-8.21
-10.82
-12.53
-13.16
-12.77
-11.54
-9.71
-7.43
-4.79
-1.86
1.27
4.45
7.49
10.24
12.62
14.57
16.10
17.17
17.78
17.96
17.76
17.32
16.77
16.25
15.82
15.50
15.21
14.81
14.14
13.09
11.63
9.89
8.07
6.38
4.92
3.66
2.44
1.05
-0.68
-2.83
-5.40
-8.28
-11.25
-14.02
-16.24
-17.57
-17.76
-16.80
-14.82
-12.07
-8.79
-5.18
-1.36
2.55
6.44
10.13
13.43
16.21
18.37
19.88
20.83
21.33
21.56
21.69
21.82
21.95
21.98
21.79
21.35
20.68
19.88
19.01
18.05
16.88
15.41
13.59
11.48
9.25
7.04
4.95
2.96
1.03
-0.93
-2.99
-5.17
-7.54
-10.10
-12.83
-15.57
-18.05
-19.91
-20.86
-20.73
-19.53
-17.46
-14.77
-11.68
-8.34
-4.84
-1.24
2.35
5.81
8.94
11.56
13.54
14.86
15.60
15.94
16.05
16.01
15.83
15.51
15.05
14.53
14.08
13.79
13.64
13.47
13.09
12.35
11.19
9.72
8.05
6.28
4.43
2.49
0.44
-1.67
-3.78
-5.81
-7.83
-9.96
-12.37
-15.11
-18.05
-20.92
-23.32
-24.91
-25.53
-25.18
-24.00
-22.17
-19.77
-16.87
-13.50
-9.78
-5.91
-2.11
1.40
4.47
7.07
9.20
10.89
12.20
13.17
13.86
14.35
14.70
14.97
15.19
15.38
15.51
15.56
15.51
15.34
15.02
14.53
13.83
12.90
11.74
10.39
8.91
7.34
5.70
3.98
2.17
0.29
-1.59
-3.42
-5.20
-6.94
-8.75
-10.75
-13.02
-15.56
-18.27
-20.92
-23.18
-24.71
-25.29
-24.81
-23.40
-21.24
-18.56
-15.52
-12.23
-8.76
-5.24
-1.85
1.22
3.83
5.95
7.62
8.89
9.81
10.40
10.76
10.99
11.24
11.60
12.08
12.54
12.86
12.91
12.69
12.29
11.80
11.27
10.68
9.95
9.03
7.88
6.54
5.03
3.38
1.60
-0.33
-2.36
-4.42
-6.38
-8.18
-9.83
-11.50
-13.37
-15.61
-18.19
-20.89
-23.29
-24.97
-25.60
-25.06
-23.43
-20.95
-17.87
-14.43
-10.81
-7.20
-3.79
-0.77
1.73
3.67
5.19
6.45
7.62
8.74
9.73
10.45
10.83
10.94
10.89
10.87
10.96
11.06
11.02
10.66
9.90
8.73
7.28
5.66
4.00
2.34
0.73
-0.85
-2.40
-3.95
-5.56
-7.31
-9.26
-11.43
-13.72
-15.94
-17.83
-19.14
-19.66
-19.29
-18.02
-15.96
-13.27
-10.19
-6.93
-3.68
-0.58
2.28
4.86
7.10
8.96
10.41
11.42
12.03
12.32
12.39
12.34
12.20
11.98
11.67
11.31
10.91
10.52
10.10
9.55
8.77
7.69
6.29
4.64
2.88
1.13
-0.53
-2.12
-3.73
-5.50
-7.53
-9.82
-12.24
-14.60
-16.62
-18.04
-18.68
-18.39
-17.22
-15.29
-12.84
-10.13
-7.32
-4.52
-1.72
1.06
3.75
6.22
8.26
9.77
10.72
11.28
11.63
11.92
12.22
12.49
12.68
12.73
12.66
12.47
12.19
11.83
11.37
10.75
9.89
8.73
7.29
5.66
3.99
2.38
0.85
-0.69
-2.41
-4.48
-6.99
-9.93
-13.26
-16.89
-20.69
-24.42
-27.66
-29.81
-30.25
-28.50
-24.45
-18.51
-11.53
-4.54
1.51
6.02
8.85
10.27
10.79
10.91
11.02
11.39
12.20
13.55
15.54
18.10
20.98
23.74
25.92
27.17
27.41
26.87
25.96
25.04
24.32
23.74
23.07
22.04
20.43
18.21
15.46
12.35
9.11
5.97
3.14
0.75
-1.17
-2.78
-4.31
-6.01
-7.94
-9.92
-11.61
-12.63
-12.84
-12.33
-11.43
-10.38
-9.37
-8.46
-7.84
-7.89
-9.09
-11.77
-15.75
-20.27
-24.16
-26.35
-26.26
-24.11
-20.74
-17.22
-14.40
-12.58
-11.51
-10.58
-9.19
-7.01
-4.16
-1.08
1.62
3.49
4.43
4.77
5.06
5.82
7.25
9.21
11.23
12.84
13.65
13.43
11.98
9.06
4.56
-1.34
-7.90
-13.91
-17.99
-19.19
-17.38
-13.39
-8.58
-4.32
-1.47
-0.21
-0.25
-1.19
-2.76
-4.85
-7.38
-10.07
-12.46
-14.06
-14.55
-13.92
-12.53
-10.90
-9.49
-8.55
-8.02
-7.68
-7.35
-6.98
-6.79
-7.09
-8.13
-9.93
-12.21
-14.51
-16.37
-17.53
-18.04
-18.24
-18.56
-19.31
-20.61
-22.26
-23.93
-25.20
-25.73
-25.29
-23.76
-21.14
-17.58
-13.31
-8.64
-3.89
0.74
5.20
9.56
13.96
18.42
22.79
26.77
29.97
32.16
33.34
33.78
33.86
33.93
34.25
34.92
35.98
37.37
38.98
40.52
41.58
41.68
40.54
38.17
34.97
31.48
28.21
25.40
23.00
20.84
18.81
16.98
15.52
14.50
13.89
13.50
13.25
13.25
13.88
15.49
18.22
21.80
25.56
28.83
31.10
32.26
32.46
31.96
30.84
28.95
26.06
22.01
16.76
10.42
3.20
-4.64
-12.67
-20.17
-26.27
-30.15
-31.48
-30.70
-28.99
-27.94
-28.90
-32.41
-38.07
-44.75
-51.04
-55.82
-58.49
-59.00
-57.63
-54.92
-51.56
-48.37
-46.14
-45.35
-45.79
-46.54
-46.22
-43.70
-38.58
-31.50
-23.77
-16.66
-10.80
-5.90
-1.20
3.92
9.34
14.22
17.40
18.05
16.19
12.74
9.14
6.73
6.28
7.64
9.86
11.57
11.48
8.78
3.38
-3.96
-11.68
-17.63
-19.42
-15.07
-3.93
12.64
31.09
46.54
54.38
52.21
40.95
24.58
8.60
-2.14
-5.21
-0.96
8.18
19.17
29.64
38.39
45.20
50.22
53.39
54.17
51.78
45.58
35.45
22.06
6.66
-9.27
-24.49
-38.24
-50.02
-59.23
-64.93
-65.94
-61.47
-51.82
-38.77
-25.23
-14.29
-8.20
-7.60
-11.55
-18.08
-25.10
-31.06
-35.27
-37.75
-38.94
-39.37
-39.41
-39.24
-39.01
-38.82
-38.84
-39.32
-40.43
-42.28
-44.81
-47.83
-50.91
-53.45
-54.64
-53.73
-50.32
-44.56
-37.11
-28.93
-20.95
-13.88
-8.24
-4.30
-1.97
-0.58
1.32
5.59
13.84
26.49
42.24
58.37
71.74
80.14
83.02
81.52
77.61
73.09
68.95
65.37
62.08
58.89
55.91
53.44
51.70
50.51
49.26
47.11
43.28
37.46
29.91
21.37
12.85
5.40
-0.09
-2.78
-2.01
2.56
10.55
20.52
30.01
36.06
36.26
29.70
17.47
2.28
-12.49
-23.95
-30.53
-32.20
-30.12
-26.10
-21.94
-19.03
-18.02
-18.74
-20.28
-21.39
-20.92
-18.29
-13.66
-7.79
-1.64
4.02
8.87
12.95
16.43
19.45
21.85
23.31
23.41
21.82
18.42
13.37
7.10
0.22
-6.62
-12.84
-18.10
-22.26
-25.35
-27.55
-29.19
-30.81
-33.04
-36.36
-40.67
-45.05
-47.77
-47.03
-41.87
-33.03
-22.97
-14.96
-11.62
-13.61
-19.25
-25.29
-28.47
-26.87
-20.58
-11.18
-0.81
8.87
16.98
23.35
27.92
30.58
31.09
29.36
25.64
20.65
15.34
10.63
7.10
4.91
3.80
3.30
2.95
2.54
2.14
2.09
2.78
4.42
6.91
9.89
12.73
14.90
15.99
15.94
14.93
13.34
11.56
9.86
8.39
7.20
6.41
6.21
6.92
8.75
11.63
15.09
18.25
20.10
19.79
16.94
11.79
5.21
-1.58
-7.27
-10.81
-11.71
-10.12
-6.83
-2.95
0.45
2.74
3.85
4.16
4.17
4.20
4.21
3.95
3.14
1.75
-0.01
-1.74
-3.17
-4.27
-5.25
-6.37
-7.75
-9.20
-10.34
-10.77
-10.34
-9.25
-8.03
-7.23
-7.25
-8.11
-9.40
-10.50
-10.76
-9.75
-7.30
-3.57
1.08
6.16
11.19
15.76
19.61
22.66
24.91
26.36
26.91
26.42
24.75
21.95
18.35
14.55
11.31
9.26
8.71
9.57
11.45
13.73
15.82
17.27
17.75
17.08
15.14
11.87
7.35
1.92
-3.81
-9.00
-12.73
-14.30
-13.37
-10.18
-5.52
-0.55
3.46
5.50
4.97
1.85
-3.35
-9.75
-16.31
-22.05
-26.19
-28.28
-28.21
-26.13
-22.34
-17.19
-11.06
-4.34
2.51
8.95
14.39
18.30
20.33
20.42
18.75
15.74
11.85
7.49
2.98
-1.51
-5.83
-9.89
-13.57
-16.75
-19.34
-21.24
-22.44
-22.91
-22.65
-21.67
-19.99
-17.71
-14.97
-11.99
-9.01
-6.28
-4.04
-2.44
-1.57
-1.34
-1.54
-1.87
-2.06
-1.93
-1.50
-0.88
-0.25
0.23
0.55
0.75
0.94
1.13
1.30
1.33
1.03
0.31
-0.88
-2.43
-4.14
-5.66
-6.58
-6.55
-5.37
-3.17
-0.32
2.55
4.82
6.02
6.06
5.13
3.63
1.99
0.44
-0.88
-2.03
-3.04
-3.93
-4.61
-4.97
-4.91
-4.32
-3.13
-1.32
1.06
3.87
6.82
9.55
11.72
13.10
13.65
13.50
12.86
11.96
11.01
10.20
9.70
9.61
9.89
10.37
10.80
11.00
10.93
10.73
10.63
10.79
11.18
11.62
11.88
11.85
11.53
11.06
10.54
10.04
9.51
8.89
8.09
7.11
6.01
4.86
3.81
2.95
2.29
1.72
1.07
0.15
-1.14
-2.70
-4.37
-5.94
-7.22
-8.12
-8.56
-8.48
-7.86
-6.74
-5.29
-3.73
-2.26
-0.98
0.19
1.40
2.72
4.13
5.40
6.30
6.69
6.58
6.15
5.60
5.13
4.79
4.57
4.39
4.18
3.89
3.52
3.10
2.65
2.19
1.72
1.18
0.53
-0.33
-1.43
-2.77
-4.28
-5.82
-7.26
-8.43
-9.21
-9.54
-9.39
-8.78
-7.76
-6.41
-4.79
-2.99
-1.12
0.73
2.41
3.80
4.79
5.34
5.51
5.39
5.11
4.80
4.54
4.34
4.15
3.90
3.57
3.14
2.64
2.07
1.47
0.83
0.17
-0.54
-1.32
-2.15
-3.04
-3.97
-4.96
-6.02
-7.20
-8.50
-9.87
-11.14
-12.13
-12.60
-12.42
-11.57
-10.16
-8.37
-6.44
-4.50
-2.63
-0.83
0.90
2.56
4.09
5.39
6.40
7.08
7.45
7.62
7.69
7.78
7.93
8.11
8.24
8.25
8.06
7.70
7.21
6.67
6.12
5.59
5.00
4.31
3.46
2.50
1.48
0.48
-0.44
-1.27
-2.08
-2.94
-3.96
-5.17
-6.60
-8.22
-9.94
-11.60
-13.00
-13.91
-14.14
-13.63
-12.46
-10.83
-8.92
-6.90
-4.82
-2.70
-0.57
1.50
3.36
4.87
5.97
6.70
7.23
7.70
8.18
8.64
8.95
9.02
8.83
8.43
7.96
7.56
7.32
7.23
7.21
7.10
6.70
5.86
4.60
3.08
1.58
0.37
-0.48
-1.11
-1.83
-2.94
-4.56
-6.54
-8.57
-10.38
-11.88
-13.20
-14.60
-16.30
-18.33
-20.58
-22.80
-24.74
-26.23
-27.22
-27.68
-27.64
-27.15
-26.35
-25.44
-24.73
-24.47
-24.74
-25.35
-25.90
-25.96
-25.31
-23.98
-22.30
-20.69
-19.39
-18.29
-16.80
-14.05
-9.09
-1.32
9.29
22.04
35.76
49.18
61.34
71.85
80.86
88.75
95.88
102.36
108.03
112.64
115.94
117.66
117.45
114.81
109.27
100.54
88.83
74.93
60.11
45.77
33.10
22.79
14.91
9.08
4.62
0.92
-2.41
-5.52
-8.31
-10.61
-12.33
-13.56
-14.50
-15.45
-16.64
-18.14
-19.93
-21.84
-23.74
-25.51
-27.10
-28.47
-29.58
-30.42
-30.97
-31.32
-31.58
-31.87
-32.21
-32.54
-32.72
-32.60
-32.15
-31.39
-30.45
-29.46
-28.50
-27.62
-26.86
-26.26
-25.83
-25.52
-25.20
-24.69
-23.84
-22.57
-20.96
-19.13
-17.27
-15.50
-13.89
-12.44
-11.11
-9.89
-8.74
-7.68
-6.71
-5.85
-5.12
-4.51
-4.01
-3.59
-3.22
-2.85
-2.46
-2.06
-1.72
-1.50
-1.49
-1.72
-2.13
-2.65
-3.18
-3.64
-4.02
-4.32
-4.59
-4.91
-5.35
-5.93
-6.65
-7.42
-8.11
-8.56
-8.65
-8.33
-7.63
-6.66
-5.51
-4.28
-3.06
-1.89
-0.83
0.11
0.87
1.42
1.72
1.75
1.54
1.18
0.81
0.62
0.73
1.14
1.72
2.24
2.46
2.25
1.63
0.71
-0.35
-1.40
-2.35
-3.15
-3.76
-4.15
-4.34
-4.43
-4.59
-5.00
-5.76
-6.82
-7.97
-8.91
-9.39
-9.26
-8.57
-7.44
-6.04
-4.54
-3.04
-1.66
-0.47
0.46
1.11
1.54
1.89
2.28
2.76
3.28
3.70
3.85
3.66
3.20
2.67
2.25
2.07
2.13
2.31
2.44
2.39
2.12
1.69
1.16
0.60
0.01
-0.65
-1.40
-2.26
-3.21
-4.21
-5.23
-6.22
-7.13
-7.89
-8.43
-8.67
-8.56
-8.08
-7.22
-6.07
-4.73
-3.33
-1.98
-0.74
0.41
1.49
2.52
3.44
4.15
4.60
4.77
4.75
4.65
4.55
4.42
4.20
3.84
3.36
2.88
2.53
2.42
2.51
2.71
2.83
2.74
2.40
1.84
1.19
0.59
0.09
-0.29
-0.63
-1.00
-1.44
-1.96
-2.52
-3.05
-3.53
-4.00
-4.48
-4.97
-5.41
-5.66
-5.59
-5.12
-4.28
-3.18
-1.98
-0.80
0.31
1.34
2.30
3.19
4.02
4.73
5.34
5.84
6.25
6.56
6.72
6.70
6.51
6.17
5.78
5.39
5.03
4.72
4.42
4.12
3.76
3.28
2.62
1.73
0.66
-0.49
-1.59
-2.55
-3.34
-4.04
-4.73
-5.49
-6.32
-7.20
-8.05
-8.79
-9.27
-9.35
-8.88
-7.82
-6.23
-4.35
-2.47
-0.84
0.38
1.20
1.68
1.92
2.00
2.01
2.04
2.20
2.59
3.19
3.90
4.46
4.65
4.33
3.62
2.80
2.25
2.24
2.78
3.59
4.25
4.33
3.65
2.29
0.52
-1.32
-2.98
-4.34
-5.36
-6.03
-6.33
-6.28
-5.95
-5.46
-5.01
-4.68
-4.47
-4.18
-3.57
-2.43
-0.73
1.30
3.27
4.80
5.62
5.71
5.22
4.42
3.50
2.57
1.63
0.70
-0.18
-0.90
-1.36
-1.55
-1.58
-1.66
-1.96
-2.54
-3.31
-4.10
-4.74
-5.09
-5.18
-5.09
-4.92
-4.78
-4.78
-5.01
-5.53
-6.33
-7.27
-8.06
-8.40
-8.07
-7.03
-5.43
-3.57
-1.71
-0.07
1.31
2.46
3.47
4.38
5.19
5.82
6.19
6.27
6.08
5.70
5.27
4.88
4.60
4.41
4.26
4.05
3.74
3.36
2.97
2.68
2.52
2.51
2.59
2.73
2.84
2.87
2.77
2.49
2.01
1.32
0.45
-0.53
-1.51
-2.35
-2.99
-3.42
-3.76
-4.17
-4.82
-5.75
-6.85
-7.86
-8.49
-8.50
-7.89
-6.79
-5.45
-4.07
-2.75
-1.53
-0.42
0.49
1.14
1.49
1.65
1.80
2.14
2.74
3.57
4.45
5.22
5.78
6.14
6.35
6.47
6.56
6.64
6.74
6.86
7.00
7.09
7.02
6.69
6.03
5.07
3.90
2.68
1.54
0.55
-0.24
-0.85
-1.30
-1.62
-1.85
-2.01
-2.18
-2.44
-2.92
-3.71
-4.80
-6.11
-7.37
-8.33
-8.72
-8.40
-7.40
-5.93
-4.30
-2.78
-1.51
-0.52
0.34
1.17
2.05
2.94
3.71
4.29
4.57
4.56
4.27
3.76
3.14
2.52
2.04
1.79
1.78
1.94
2.10
2.13
1.92
1.50
0.98
0.47
0.02
-0.37
-0.77
-1.24
-1.82
-2.51
-3.28
-4.14
-5.08
-6.09
-7.08
-7.89
-8.32
-8.25
-7.68
-6.71
-5.52
-4.27
-3.03
-1.78
-0.51
0.72
1.79
2.58
3.02
3.14
3.08
2.95
2.84
2.73
2.59
2.33
1.97
1.55
1.11
0.69
0.29
-0.10
-0.47
-0.79
-1.04
-1.24
-1.40
-1.58
-1.82
-2.14
-2.54
-3.02
-3.56
-4.11
-4.61
-4.93
-4.97
-4.65
-3.99
-3.13
-2.16
-1.19
-0.23
0.74
1.75
2.74
3.59
4.19
4.43
4.37
4.13
3.89
3.78
3.80
3.86
3.86
3.69
3.32
2.79
2.19
1.63
1.15
0.77
0.43
0.05
-0.43
-1.06
-1.80
-2.58
-3.35
-4.11
-4.88
-5.70
-6.53
-7.24
-7.66
-7.66
-7.19
-6.35
-5.30
-4.18
-3.06
-1.93
-0.73
0.56
1.88
3.14
4.18
4.94
5.43
5.74
5.95
6.13
6.26
6.26
6.09
5.78
5.46
5.24
5.17
5.22
5.24
5.05
4.56
3.76
2.75
1.66
0.61
-0.35
-1.25
-2.10
-2.92
-3.62
-4.18
-4.61
-5.03
-5.59
-6.40
-7.38
-8.32
-8.91
-8.89
-8.22
-6.99
-5.44
-3.78
-2.11
-0.47
1.14
2.63
3.92
4.89
5.54
5.95
6.29
6.66
7.14
7.68
8.13
8.41
8.42
8.21
7.84
7.44
7.06
6.73
6.40
6.03
5.60
5.10
4.59
4.05
3.50
2.89
2.16
1.33
0.41
-0.51
-1.39
-2.22
-3.08
-4.03
-5.10
-6.19
-7.14
-7.72
-7.77
-7.29
-6.34
-5.12
-3.84
-2.62
-1.53
-0.60
0.21
0.93
1.58
2.18
2.75
3.30
3.80
4.22
4.51
4.62
4.55
4.34
4.05
3.77
3.55
3.41
3.30
3.19
3.04
2.84
2.59
2.30
1.98
1.60
1.18
0.74
0.33
-0.03
-0.39
-0.80
-1.36
-2.10
-2.96
-3.81
-4.46
-4.83
-4.89
-4.73
-4.42
-4.01
-3.47
-2.75
-1.85
-0.86
0.07
0.80
1.29
1.61
1.91
2.30
2.84
3.47
4.07
4.51
4.76
4.82
4.80
4.75
4.72
4.70
4.59
4.31
3.79
3.03
2.15
1.31
0.68
0.33
0.19
0.11
-0.13
-0.66
-1.53
-2.66
-3.95
-5.29
-6.54
-7.61
-8.32
-8.53
-8.13
-7.14
-5.71
-4.12
-2.59
-1.26
-0.13
0.84
1.75
2.60
3.32
3.85
4.17
4.35
4.46
4.59
4.75
4.93
5.07
5.14
5.16
5.14
5.12
5.11
5.09
5.05
4.90
4.58
3.99
3.13
2.03
0.83
-0.27
-1.11
-1.64
-1.93
-2.12
-2.37
-2.77
-3.29
-3.86
-4.42
-4.96
-5.55
-6.22
-6.92
-7.50
-7.73
-7.43
-6.58
-5.34
-3.98
-2.71
-1.62
-0.65
0.32
1.37
2.42
3.33
3.96
4.27
4.34
4.34
4.42
4.63
4.88
5.04
5.00
4.74
4.38
4.05
3.86
3.81
3.79
3.66
3.30
2.69
1.95
1.21
0.58
0.06
-0.47
-1.12
-1.98
-2.99
-4.02
-4.90
-5.54
-5.98
-6.31
-6.73
-7.33
-8.05
-8.72
-9.08
-8.91
-8.18
-7.04
-5.80
-4.72
-3.95
-3.38
-2.79
-1.94
-0.76
0.62
1.88
2.72
2.91
2.49
1.69
0.88
0.38
0.32
0.65
1.13
1.46
1.37
0.82
-0.00
-0.76
-1.11
-0.89
-0.18
0.72
1.46
1.80
1.72
1.42
1.30
1.89
3.70
7.07
12.04
18.14
24.43
29.65
32.68
33.10
31.55
29.83
30.34
35.44
46.56
63.85
86.04
110.81
135.32
156.70
172.34
180.24
179.47
170.33
154.43
134.22
112.40
91.46
73.41
59.82
51.73
49.28
51.16
54.58
55.80
51.50
40.18
22.86
2.69
-16.44
-31.59
-41.76
-47.96
-52.23
-56.51
-61.65
-67.19
-71.68
-73.40
-71.20
-64.98
-55.75
-45.18
-34.93
-25.97
-18.49
-12.08
-6.32
-1.27
2.37
3.51
1.06
-5.60
-16.38
-30.44
-46.37
-62.53
-77.30
-89.43
-98.22
-103.52
-105.75
-105.61
-103.94
-101.43
-98.57
-95.61
-92.64
-89.74
-86.97
-84.38
-81.90
-79.23
-75.94
-71.53
-65.75
-58.69
-50.86
-42.99
-35.78
-29.65
-24.79
-21.32
-19.32
-18.71
-18.79
-18.05
-14.50
-6.45
6.49
23.02
40.43
55.75
66.90
73.36
75.89
75.77
73.99
71.01
66.96
62.22
57.53
53.75
51.39
50.30
49.65
48.50
46.20
42.75
38.78
35.14
32.49
30.96
30.10
29.07
27.06
23.60
18.83
13.38
8.12
3.84
0.93
-0.62
-1.22
-1.42
-1.76
-2.68
-4.34
-6.76
-9.80
-13.24
-16.78
-20.12
-22.94
-24.99
-26.05
-26.05
-25.05
-23.25
-20.92
-18.37
-15.91
-13.83
-12.44
-11.97
-12.51
-13.95
-15.90
-17.86
-19.32
-20.09
-20.26
-20.20
-20.31
-20.79
-21.61
-22.50
-23.12
-23.18
-22.39
-20.47
-17.20
-12.60
-7.07
-1.50
3.05
5.69
6.15
4.88
2.82
1.01
0.06
0.09
0.75
1.55
2.08
2.07
1.37
-0.26
-3.16
-7.68
-13.94
-21.70
-30.26
-38.65
-45.87
-51.27
-54.64
-56.28
-56.69
-56.32
-55.24
-53.15
-49.52
-43.88
-36.17
-26.87
-16.99
-7.83
-0.57
4.04
5.94
5.75
4.47
3.12
2.38
2.30
2.31
1.38
-1.63
-7.57
-16.41
-26.98
-36.81
-42.58
-41.01
-30.02
-9.71
17.34
46.64
73.03
92.21
101.84
101.98
94.68
83.04
70.10
58.01
47.55
38.17
28.38
16.34
0.54
-19.67
-43.72
-69.89
-95.51
-117.37
-132.45
-138.50
-134.84
-122.53
-104.25
-83.41
-63.08
-45.10
-29.82
-16.58
-4.51
6.62
16.29
23.56
27.70
28.65
26.98
23.45
18.60
12.66
5.66
-2.20
-10.44
-18.36
-25.26
-30.66
-34.35
-36.27
-36.46
-35.10
-32.58
-29.48
-26.46
-24.11
-22.69
-22.16
-22.23
-22.59
-23.03
-23.40
-23.52
-23.08
-21.62
-18.74
-14.19
-8.16
-1.16
6.08
12.86
18.72
23.47
27.10
29.63
31.04
31.26
30.30
28.34
25.69
22.73
19.72
16.74
13.72
10.54
7.24
3.99
1.09
-1.15
-2.54
-3.01
-2.62
-1.48
0.27
2.49
4.97
7.45
9.52
10.82
11.02
10.03
7.99
5.25
2.28
-0.44
-2.52
-3.72
-3.99
-3.49
-2.58
-1.65
-1.03
-0.86
-1.09
-1.50
-1.84
-2.00
-1.96
-1.86
-1.78
-1.80
-1.85
-1.82
-1.53
-0.92
-0.01
1.04
2.04
2.89
3.61
4.42
5.60
7.41
10.02
13.37
17.30
21.45
25.39
28.63
30.74
31.43
30.60
28.37
25.00
20.81
16.09
11.15
6.28
1.80
-1.99
-4.86
-6.69
-7.54
-7.64
-7.34
-7.07
-7.16
-7.76
-8.72
-9.67
-10.12
-9.66
-8.14
-5.75
-2.92
-0.12
2.24
3.94
4.92
5.23
5.02
4.43
3.70
3.03
2.61
2.56
2.91
3.55
4.30
4.97
5.43
5.65
5.70
5.65
5.46
5.05
4.29
3.12
1.61
-0.12
-1.92
-3.60
-4.95
-5.64
-5.28
-3.59
-0.68
2.91
6.35
8.87
10.19
10.56
10.63
10.98
11.86
13.07
14.27
15.17
15.72
16.00
16.06
15.77
14.90
13.34
11.18
8.73
6.29
4.07
2.04
0.05
-2.03
-4.26
-6.67
-9.33
-12.34
-15.73
-19.26
-22.40
-24.48
-24.92
-23.59
-20.88
-17.47
-14.01
-10.87
-8.00
-5.17
-2.12
1.13
4.39
7.34
9.72
11.45
12.60
13.37
13.96
14.53
15.11
15.61
15.82
15.47
14.34
12.37
9.71
6.60
3.28
-0.11
-3.50
-6.67
-9.16
-10.35
-9.71
-7.17
-3.26
1.06
4.86
7.66
9.56
11.07
12.66
14.40
16.01
16.99
17.06
16.33
15.13
13.83
12.57
11.26
9.62
7.40
4.49
0.97
-2.95
-7.02
-11.12
-15.26
-19.58
-24.22
-29.19
-34.22
-38.78
-42.18
-43.80
-43.32
-40.76
-36.40
-30.60
-23.57
-15.33
-5.91
4.58
15.76
27.02
37.63
47.02
54.80
60.89
65.32
68.22
69.62
69.53
67.99
65.13
61.24
56.66
51.76
46.77
41.78
36.80
31.82
26.90
22.19
17.82
13.84
10.23
6.97
4.09
1.73
-0.17
-1.90
-4.06
-7.29
-11.87
-17.44
-23.04
-27.48
-29.89
-30.03
-28.41
-25.88
-23.26
-20.99
-19.07
-17.32
-15.54
-13.77
-12.21
-11.15
-10.75
-11.02
-11.74
-12.57
-13.17
-13.36
-13.19
-12.90
-12.80
-13.09
-13.84
-14.94
-16.26
-17.74
-19.35
-21.02
-22.42
-22.97
-21.93
-18.79
-13.60
-7.08
-0.38
5.39
9.61
12.31
13.99
15.26
16.50
17.80
19.10
20.41
21.86
23.58
25.47
27.12
27.89
27.19
24.73
20.65
15.47
9.92
4.71
0.38
-2.87
-5.16
-6.85
-8.35
-9.98
-11.75
-13.42
-14.65
-15.24
-15.31
-15.22
-15.36
-15.87
-16.54
-16.84
-16.30
-14.76
-12.53
-10.30
-8.79
-8.40
-9.06
-10.30
-11.42
-11.77
-10.84
-8.44
-4.72
-0.39
3.39
5.36
4.83
2.21
-0.80
-1.86
1.03
8.43
19.13
30.68
40.55
47.17
50.42
51.09
50.07
47.66
43.51
37.15
28.61
18.60
8.32
-1.13
-9.10
-15.43
-20.13
-23.12
-24.22
-23.44
-21.43
-19.56
-19.49
-22.36
-28.08
-35.03
-40.54
-41.86
-37.22
-26.50
-11.14
6.43
23.72
38.82
50.66
58.91
63.67
65.26
64.21
61.26
57.29
53.11
49.11
45.07
40.26
33.82
25.38
15.49
5.70
-1.88
-5.44
-4.38
0.25
5.89
9.44
8.37
1.74
-9.55
-23.17
-36.29
-46.42
-52.01
-52.55
-48.48
-41.02
-31.99
-23.46
-17.23
-14.25
-14.26
-16.02
-17.94
-19.02
-19.38
-20.01
-21.90
-24.99
-27.84
-28.20
-24.15
-15.36
-3.33
9.21
19.65
26.62
30.48
32.65
34.58
36.87
38.96
39.69
38.08
33.97
28.07
21.59
15.82
11.85
10.55
12.46
17.38
23.94
29.36
30.05
22.97
7.31
-14.65
-38.09
-57.45
-68.59
-70.24
-63.94
-52.84
-40.09
-27.80
-17.04
-8.39
-2.46
0.05
-1.00
-4.79
-9.46
-12.89
-13.65
-11.81
-8.89
-6.93
-7.44
-10.37
-14.21
-16.63
-15.76
-11.06
-3.56
4.70
11.63
15.82
16.88
15.29
11.95
7.87
3.98
1.11
-0.17
0.30
2.06
4.14
5.37
4.81
2.13
-2.38
-7.97
-13.94
-19.80
-25.53
-31.27
-37.14
-42.94
-48.06
-51.47
-51.90
-48.08
-39.14
-24.99
-6.60
14.04
34.18
51.02
62.35
67.05
65.29
58.28
47.96
36.50
25.85
17.33
11.41
7.69
5.09
2.32
-1.64
-7.17
-13.89
-20.83
-26.80
-30.89
-32.77
-32.86
-32.11
-31.67
-32.42
-34.53
-37.28
-39.25
-38.77
-34.50
-25.98
-13.83
0.50
15.07
28.01
37.94
44.09
46.30
44.91
40.67
34.59
27.85
21.60
16.70
13.47
11.66
10.57
9.43
7.74
5.50
3.13
1.21
0.05
-0.60
-1.56
-3.97
-8.70
-15.88
-24.55
-32.74
-38.07
-38.46
-32.87
-21.70
-6.66
9.70
24.73
36.26
43.10
44.96
42.42
36.48
28.30
18.92
9.17
-0.30
-9.06
-16.78
-23.34
-28.75
-33.15
-36.72
-39.56
-41.68
-43.09
-43.87
-44.22
-44.37
-44.31
-43.61
-41.41
-36.69
-28.68
-17.26
-3.14
12.39
27.85
42.08
54.42
64.72
73.09
79.53
83.90
85.87
85.23
82.06
76.84
70.29
63.13
55.81
48.50
41.17
33.71
26.05
18.16
9.90
1.15
-8.22
-18.01
-27.65
-36.14
-42.32
-45.24
-44.40
-39.92
-32.39
-22.79
-12.27
-2.10
6.51
12.52
15.25
14.58
10.88
4.99
-2.18
-9.73
-16.99
-23.46
-28.69
-32.24
-33.65
-32.57
-28.91
-22.97
-15.45
-7.28
0.50
7.00
11.56
13.83
13.74
11.49
7.49
2.40
-2.98
-7.77
-11.20
-12.77
-12.38
-10.41
-7.64
-5.04
-3.47
-3.37
-4.49
-5.95
-6.62
-5.62
-2.83
0.94
4.23
5.52
3.91
-0.55
-6.83
-13.44
-18.96
-22.51
-23.86
-23.25
-21.02
-17.49
-12.87
-7.43
-1.62
3.90
8.40
11.31
12.48
12.18
11.06
9.81
8.95
8.69
8.95
9.53
10.20
10.84
11.33
11.51
11.05
9.65
7.20
3.99
0.80
-1.35
-1.62
0.31
3.97
8.30
11.95
13.77
13.16
10.17
5.40
-0.22
-5.68
-10.10
-12.88
-13.83
-13.13
-11.35
-9.22
-7.36
-6.09
-5.29
-4.56
-3.49
-1.95
-0.23
1.17
1.75
1.31
0.01
-1.73
-3.56
-5.27
-6.84
-8.32
-9.68
-10.81
-11.58
-11.95
-11.96
-11.69
-11.09
-10.00
-8.23
-5.74
-2.80
0.06
2.27
3.49
3.80
3.60
3.41
3.58
4.12
4.74
5.14
5.18
5.08
5.32
6.30
8.12
10.41
12.48
13.61
13.40
11.88
9.52
7.03
5.00
3.78
3.37
3.43
3.51
3.13
1.93
-0.20
-3.11
-6.41
-9.52
-11.87
-13.13
-13.34
-13.11
-13.39
-15.03
-18.27
-22.30
-25.20
-24.62
-18.62
-6.61
10.26
29.39
47.59
62.06
71.12
74.35
72.37
66.41
57.82
47.79
37.25
26.81
16.87
7.73
-0.25
-6.73
-11.56
-14.88
-17.22
-19.39
-22.07
-25.63
-29.98
-34.63
-38.78
-41.24
-40.43
-34.74
-23.08
-5.57
16.07
38.79
59.06
74.09
82.58
85.01
83.14
79.24
75.25
72.36
70.97
70.82
71.10
70.62
67.80
60.97
48.95
31.66
10.62
-11.11
-29.60
-41.41
-44.73
-40.11
-30.03
-17.82
-6.41
2.41
8.09
10.76
10.86
8.99
5.97
2.75
-0.15
-3.38
-8.91
-19.15
-35.28
-55.80
-76.31
-91.18
-96.04
-89.90
-75.38
-56.98
-38.52
-21.45
-5.01
12.02
29.36
44.46
53.44
53.08
42.59
24.23
2.55
-17.28
-31.10
-36.92
-35.19
-28.25
-19.26
-10.95
-4.66
-0.04
4.58
11.17
20.77
32.40
42.76
46.77
39.31
17.73
-15.93
-54.35
-86.90
-103.75
-100.24
-79.11
-49.11
-20.70
-1.18
8.13
11.00
12.82
16.94
22.88
27.49
27.65
22.55
14.18
5.93
0.35
-2.08
-2.51
-2.14
-0.80
3.31
12.47
27.65
47.40
68.08
85.19
95.36
97.54
93.31
85.89
78.64
73.48
70.22
66.87
60.96
51.18
38.30
25.16
15.17
10.51
10.64
12.40
11.59
5.19
-6.97
-22.18
-36.26
-45.62
-48.83
-46.96
-42.75
-39.17
-38.34
-41.01
-46.91
-55.24
-65.24
-76.29
-87.59
-97.95
-105.72
-109.33
-107.91
-101.82
-92.47
-81.73
-71.18
-61.78
-54.00
-48.21
-44.92
-44.46
-46.67
-50.70
-55.28
-59.31
-62.30
-64.36
-65.67
-66.00
-64.69
-61.09
-55.27
-48.30
-41.83
-37.14
-34.51
-33.03
-31.31
-28.40
-24.21
-19.44
-14.95
-11.29
-8.64
-7.02
-6.57
-7.50
-9.74
-12.66
-15.04
-15.55
-13.30
-8.19
-0.91
7.47
15.85
23.29
29.02
32.43
33.18
31.43
27.93
23.86
20.34
18.01
16.69
15.70
14.22
11.79
8.47
4.66
0.84
-2.67
-5.70
-8.19
-9.95
-10.83
-10.79
-10.15
-9.62
-10.01
-11.89
-15.14
-19.00
-22.32
-24.13
-24.24
-23.23
-22.33
-22.84
-25.70
-31.18
-38.88
-47.81
-56.63
-63.94
-68.55
-69.93
-68.43
-65.23
-61.94
-59.87
-59.53
-60.35
-61.13
-60.48
-57.61
-52.43
-45.46
-37.41
-28.79
-19.81
-10.50
-0.95
8.52
17.44
25.41
32.37
38.73
45.16
52.34
60.53
69.50
78.53
86.84
93.83
99.23
103.06
105.48
106.59
106.52
105.43
103.59
101.33
98.87
96.24
93.15
89.17
83.98
77.53
70.13
62.30
54.58
47.27
40.33
33.46
26.28
18.58
10.43
2.26
-5.35
-11.91
-17.18
-21.22
-24.29
-26.64
-28.43
-29.65
-30.28
-30.41
-30.32
-30.39
-30.95
-32.09
-33.55
-34.68
-34.59
-32.36
-27.25
-19.06
-8.26
4.02
16.25
26.93
35.14
40.79
44.49
47.19
49.62
52.06
54.25
55.80
56.42
56.05
54.76
52.51
49.06
44.17
37.81
30.41
22.73
15.65
9.77
5.27
1.96
-0.47
-2.29
-3.54
-4.08
-3.72
-2.29
0.26
3.82
8.09
12.68
17.17
21.25
24.84
28.12
31.50
35.45
40.32
46.15
52.55
58.67
63.49
66.15
66.25
64.00
60.14
55.56
50.99
46.76
42.85
39.03
35.08
30.87
26.33
21.35
15.82
9.60
2.67
-4.87
-12.75
-20.63
-28.23
-35.25
-41.47
-46.74
-50.95
-54.09
-56.19
-57.31
-57.47
-56.73
-55.15
-52.88
-50.17
-47.35
-44.70
-42.35
-40.25
-38.21
-36.04
-33.67
-31.14
-28.63
-26.29
-24.21
-22.38
-20.79
-19.44
-18.37
-17.62
-17.12
-16.66
-15.93
-14.66
-12.71
-10.24
-7.58
-5.15
-3.27
-2.01
-1.24
-0.69
-0.12
0.59
1.44
2.34
3.19
3.95
4.58
5.10
5.48
5.67
5.62
5.28
4.67
3.86
2.93
1.97
0.98
-0.11
-1.37
-2.88
-4.49
-5.98
-7.05
-7.49
-7.24
-6.39
-5.12
-3.63
-2.05
-0.50
0.86
1.82
2.24
2.07
1.43
0.56
-0.31
-1.01
-1.53
-1.92
-2.26
-2.57
-2.88
-3.15
-3.36
-3.50
-3.52
-3.40
-3.11
-2.67
-2.17
-1.72
-1.42
-1.35
-1.45
-1.62
-1.66
-1.39
-0.72
0.30
1.47
2.52
3.25
3.64
3.83
4.03
4.44
5.05
5.73
6.24
6.40
6.17
5.61
4.87
4.07
3.28
2.50
1.74
1.02
0.38
-0.18
-0.68
-1.20
-1.83
-2.67
-3.74
-4.99
-6.33
-7.66
-8.84
-9.74
-10.24
-10.24
-9.67
-8.55
-7.02
-5.30
-3.64
-2.23
-1.14
-0.33
0.32
0.89
1.38
1.73
1.82
1.58
1.07
0.39
-0.27
-0.78
-1.10
-1.24
-1.29
-1.32
-1.41
-1.61
-1.94
-2.39
-2.95
-3.58
-4.26
-4.97
-5.68
-6.34
-6.85
-7.10
-7.06
-6.74
-6.23
-5.63
-4.99
-4.24
-3.34
-2.25
-1.07
0.01
0.78
1.12
1.00
0.53
-0.13
-0.88
-1.62
-2.35
-3.07
-3.79
-4.50
-5.17
-5.73
-6.10
-6.21
-6.05
-5.69
-5.22
-4.82
-4.63
-4.77
-5.29
-6.14
-7.18
-8.16
-8.83
-8.91
-8.28
-6.95
-5.12
-3.07
-1.12
0.52
1.80
2.77
3.56
4.26
4.91
5.47
5.83
5.91
5.67
5.16
4.42
3.58
2.73
1.91
1.11
0.31
-0.53
-1.40
-2.22
-2.94
-3.51
-4.00
-4.57
-5.34
-6.40
-7.71
-9.05
-10.15
-10.79
-10.83
-10.30
-9.37
-8.25
-7.14
-6.14
-5.26
-4.45
-3.67
-2.90
-2.18
-1.59
-1.20
-1.06
-1.13
-1.40
-1.77
-2.16
-2.49
-2.71
-2.80
-2.83
-2.88
-3.09
-3.55
-4.26
-5.15
-6.08
-6.92
-7.60
-8.16
-8.65
-9.04
-9.24
-9.07
-8.34
-7.01
-5.14
-2.91
-0.53
1.87
4.22
6.50
8.65
10.59
12.20
13.37
14.03
14.15
13.73
12.81
11.51
10.02
8.55
7.29
6.29
5.48
4.70
3.78
2.66
1.35
-0.05
-1.47
-2.89
-4.38
-6.00
-7.74
-9.48
-10.96
-11.94
-12.22
-11.79
-10.75
-9.30
-7.60
-5.77
-3.86
-1.89
0.06
1.89
3.44
4.59
5.27
5.48
5.31
4.85
4.24
3.61
3.08
2.70
2.51
2.51
2.64
2.87
3.12
3.29
3.21
2.75
1.78
0.27
-1.72
-3.99
-6.30
-8.40
-10.07
-11.14
-11.51
-11.14
-10.08
-8.44
-6.42
-4.19
-1.91
0.34
2.50
4.56
6.45
8.07
9.33
10.16
10.55
10.60
10.41
10.15
9.91
9.75
9.70
9.71
9.72
9.68
9.52
9.17
8.63
7.91
7.09
6.22
5.34
4.42
3.36
2.12
0.67
-0.88
-2.31
-3.33
-3.66
-3.15
-1.79
0.25
2.70
5.29
7.80
10.07
12.02
13.64
14.95
16.00
16.85
17.59
18.28
19.02
19.94
21.16
22.80
24.86
27.26
29.84
32.48
35.21
38.27
42.08
47.18
54.04
62.93
73.85
86.40
99.80
112.98
124.76
134.13
140.45
143.50
143.47
140.68
135.41
127.82
117.99
106.17
92.84
78.81
64.97
52.01
40.17
29.19
18.53
7.70
-3.41
-14.39
-24.40
-32.64
-38.62
-42.48
-44.79
-46.25
-47.31
-47.90
-47.58
-45.85
-42.54
-37.94
-32.84
-28.07
-24.21
-21.37
-19.16
-17.01
-14.39
-11.02
-6.92
-2.33
2.31
6.43
9.40
10.66
9.80
6.82
2.04
-3.99
-10.80
-18.26
-26.68
-36.53
-47.99
-60.44
-72.16
-80.64
-83.50
-79.44
-69.03
-54.66
-39.70
-27.32
-19.66
-17.56
-20.77
-28.16
-37.88
-47.48
-54.31
-56.29
-52.89
-45.48
-36.92
-30.19
-27.11
-27.58
-30.06
-32.67
-34.31
-34.97
-35.30
-35.73
-36.01
-35.39
-33.16
-29.20
-24.11
-18.78
-13.94
-9.90
-6.51
-3.57
-1.09
0.66
1.30
0.64
-1.14
-3.55
-5.96
-7.81
-8.72
-8.60
-7.70
-6.85
-7.42
-11.14
-19.43
-32.66
-49.73
-68.29
-85.50
-99.14
-108.28
-113.19
-114.78
-113.65
-109.76
-102.63
-91.96
-78.30
-63.08
-48.22
-35.39
-25.47
-18.56
-14.24
-11.91
-10.99
-10.70
-9.99
-7.68
-2.98
3.95
11.69
18.01
20.84
19.30
14.19
7.70
2.33
-0.16
0.58
3.64
7.52
10.85
12.92
13.58
13.06
11.65
9.67
7.56
5.94
5.57
7.09
10.81
16.51
23.55
31.03
38.02
43.75
47.69
49.61
49.56
47.97
45.52
43.06
41.25
40.37
40.26
40.44
40.44
39.90
38.52
35.90
31.36
24.18
13.95
1.02
-13.38
-27.41
-39.27
-47.76
-52.67
-54.67
-54.87
-54.34
-53.72
-53.14
-52.35
-50.97
-48.67
-45.31
-40.92
-35.59
-29.43
-22.56
-15.16
-7.52
-0.12
6.52
11.92
15.82
18.25
19.48
19.87
19.63
18.71
16.73
13.22
7.91
1.06
-6.48
-13.51
-18.88
-21.95
-22.78
-22.03
-20.61
-19.36
-18.81
-19.11
-19.94
-20.56
-19.96
-17.22
-11.98
-4.73
3.26
10.44
15.66
18.67
20.12
21.05
22.31
24.19
26.49
28.91
31.41
34.14
37.23
40.42
43.05
44.38
44.10
42.52
40.43
38.63
37.40
36.30
34.36
30.48
23.86
14.25
2.04
-11.90
-26.28
-39.67
-50.68
-58.29
-62.10
-62.34
-59.76
-55.21
-49.43
-42.97
-36.29
-29.94
-24.51
-20.48
-17.97
-16.74
-16.30
-16.22
-16.32
-16.52
-16.59
-15.87
-13.29
-7.83
0.82
11.89
23.64
33.93
41.12
44.60
44.90
43.22
40.91
39.04
38.28
39.05
41.48
45.39
50.12
54.55
57.29
57.19
53.68
46.95
37.79
27.36
16.88
7.47
-0.03
-5.23
-8.36
-10.17
-11.58
-13.27
-15.26
-16.93
-17.34
-15.81
-12.34
-7.59
-2.60
1.70
4.90
7.07
8.63
9.95
11.12
12.03
12.39
12.12
11.33
10.41
9.72
9.48
9.60
9.65
9.02
7.12
3.67
-1.13
-6.53
-11.45
-14.70
-15.34
-12.78
-6.92
1.81
12.42
23.36
32.62
38.09
38.07
32.02
20.97
7.59
-4.43
-11.36
-10.65
-1.60
14.35
34.01
53.25
67.90
74.66
71.84
59.98
42.05
23.16
9.34
5.56
13.71
31.49
52.87
70.16
76.60
68.52
46.08
12.76
-25.88
-63.65
-94.67
-114.12
-118.73
-107.41
-81.56
-44.94
-3.01
38.18
73.16
97.94
110.71
112.08
105.00
94.03
84.12
79.05
80.07
85.48
91.23
92.57
86.02
70.71
48.69
23.93
0.48
-19.10
-34.36
-46.40
-56.32
-63.89
-67.14
-63.29
-50.37
-28.69
-1.24
27.30
52.15
69.98
79.49
81.01
75.69
64.88
50.19
33.90
19.03
8.61
4.36
5.43
8.17
7.20
-2.40
-23.02
-53.38
-89.07
-124.09
-152.95
-172.01
-179.97
-177.32
-165.53
-146.29
-121.23
-92.06
-60.73
-29.58
-0.93
23.42
42.63
56.95
67.38
75.04
80.69
84.60
86.74
87.22
86.48
85.24
84.21
83.71
83.54
83.01
81.14
76.91
69.47
58.37
43.77
26.59
8.46
-8.56
-22.58
-32.26
-37.22
-37.88
-35.20
-30.39
-24.66
-19.16
-14.94
-12.89
-13.55
-17.00
-22.77
-29.93
-37.33
-43.86
-48.72
-51.53
-52.29
-51.41
-49.53
-47.44
-45.94
-45.66
-46.78
-48.87
-50.84
-51.16
-48.43
-41.97
-32.13
-20.27
-8.13
2.81
11.79
18.77
23.99
27.52
29.16
28.67
26.16
22.39
18.56
15.85
14.81
15.20
16.07
16.36
15.34
12.89
9.42
5.49
1.56
-2.25
-6.02
-9.94
-14.06
-18.30
-22.42
-26.15
-29.32
-31.80
-33.50
-34.24
-33.79
-31.94
-28.77
-24.82
-20.99
-18.15
-16.71
-16.16
-15.29
-12.60
-7.12
1.08
10.86
20.53
28.53
33.89
36.44
36.40
34.18
30.02
24.19
17.13
9.58
2.49
-3.31
-7.32
-9.61
-10.69
-11.35
-12.34
-14.09
-16.69
-19.91
-23.44
-27.12
-31.04
-35.33
-39.99
-44.65
-48.58
-50.92
-50.96
-48.33
-43.05
-35.43
-26.02
-15.52
-4.81
5.23
13.86
20.65
25.59
28.95
31.07
32.27
32.83
33.09
33.59
34.86
37.13
40.06
42.75
44.11
43.25
39.97
34.69
28.30
21.60
15.08
8.71
2.06
-5.37
-13.84
-23.17
-32.63
-41.06
-47.21
-50.07
-49.20
-44.96
-38.38
-30.91
-23.86
-17.99
-13.28
-8.99
-4.15
2.08
9.92
18.97
28.34
36.91
43.64
47.68
48.54
46.03
40.33
31.94
21.62
10.19
-1.55
-12.94
-23.38
-32.35
-39.41
-44.29
-47.01
-47.82
-47.02
-44.86
-41.42
-36.88
-31.64
-26.38
-21.78
-18.13
-15.05
-11.63
-7.03
-0.94
6.11
13.01
18.76
23.02
26.26
29.42
33.33
38.22
43.80
49.42
54.52
58.75
61.90
63.75
63.92
62.07
57.99
51.87
44.23
35.77
27.21
19.04
11.46
4.49
-2.03
-8.12
-13.55
-17.75
-19.99
-19.58
-16.37
-10.88
-4.37
1.50
5.17
5.63
2.70
-3.08
-10.60
-18.58
-25.79
-31.26
-34.37
-34.89
-32.95
-29.06
-24.04
-18.90
-14.73
-12.43
-12.48
-14.87
-19.00
-23.87
-28.32
-31.31
-32.13
-30.56
-26.90
-21.85
-16.33
-11.26
-7.30
-4.72
-3.43
-3.04
-3.02
-2.90
-2.28
-1.03
0.69
2.35
3.21
2.51
-0.17
-4.62
-10.03
-15.20
-18.99
-20.58
-19.72
-16.66
-11.88
-5.97
0.56
7.31
13.95
20.18
25.70
30.18
33.28
34.72
34.33
32.15
28.45
23.67
18.31
12.83
7.61
2.96
-0.82
-3.36
-4.28
-3.26
-0.17
4.72
10.78
17.09
22.63
26.53
28.18
27.38
24.23
19.02
12.16
4.12
-4.62
-13.52
-22.01
-29.51
-35.42
-39.16
-40.23
-38.29
-33.33
-25.80
-16.67
-7.31
0.84
6.56
9.17
8.61
5.36
0.21
-5.99
-12.43
-18.46
-23.48
-26.99
-28.53
-27.89
-25.15
-20.82
-15.76
-10.91
-7.10
-4.65
-3.37
-2.58
-1.49
0.44
3.24
6.36
8.97
10.27
9.88
7.98
5.15
2.16
-0.36
-2.11
-3.03
-3.29
-3.05
-2.42
-1.42
-0.09
1.46
2.96
4.07
4.38
3.54
1.40
-1.91
-6.00
-10.29
-14.11
-16.89
-18.24
-17.97
-16.05
-12.56
-7.77
-2.06
4.01
9.88
15.15
19.68
23.70
27.59
31.63
35.71
39.25
41.30
40.96
37.76
31.85
23.96
15.12
6.32
-1.68
-8.36
-13.37
-16.38
-17.17
-15.72
-12.31
-7.60
-2.50
1.96
4.85
5.50
3.63
-0.54
-6.31
-12.58
-18.15
-22.04
-23.71
-23.20
-21.00
-17.77
-14.12
-10.53
-7.32
-4.68
-2.71
-1.36
-0.40
0.52
1.72
3.34
5.22
6.93
7.98
8.04
7.09
5.43
3.61
2.13
1.35
1.36
2.03
3.18
4.67
6.46
8.50
10.70
12.80
14.45
15.26
14.97
13.54
11.16
8.16
4.85
1.47
-1.88
-5.10
-8.07
-10.58
-12.44
-13.67
-14.54
-15.53
-17.13
-19.56
-22.61
-25.62
-27.68
-27.93
-25.86
-21.49
-15.44
-8.77
-2.79
1.32
2.78
1.48
-2.10
-7.07
-12.50
-17.71
-22.37
-26.42
-29.91
-32.88
-35.43
-37.68
-39.88
-42.28
-44.98
-47.90
-50.76
-53.30
-55.43
-57.28
-59.13
-61.26
-63.81
-66.87
-70.53
-74.96
-80.27
-86.23
-92.11
-96.69
-98.74
-97.61
-93.56
-87.64
-81.10
-74.72
-68.49
-61.86
-54.31
-45.79
-36.79
-27.91
-19.47
-11.45
-3.68
3.66
10.07
14.95
18.14
20.17
21.98
24.37
27.53
31.03
34.35
37.59
41.59
47.67
56.88
69.30
83.85
98.58
111.29
120.24
124.61
124.55
121.02
115.26
108.01
99.17
87.94
73.62
56.75
39.83
27.07
22.87
29.94
47.64
71.99
97.15
117.74
130.86
136.75
137.83
136.91
135.68
134.06
131.05
125.92
119.22
112.79
108.69
108.06
110.49
114.34
117.89
120.46
122.82
126.69
133.78
144.71
158.89
174.82
190.73
204.90
215.67
221.28
219.89
210.17
191.82
165.98
134.73
100.12
63.27
24.28
-16.92
-59.41
-100.70
-137.10
-165.10
-182.63
-189.48
-186.94
-176.99
-161.89
-144.19
-127.04
-114.01
-108.22
-111.15
-121.81
-137.00
-152.58
-164.92
-172.03
-173.61
-170.44
-163.76
-154.77
-144.52
-133.96
-123.84
-114.57
-106.12
-98.03
-89.71
-80.80
-71.34
-61.85
-53.09
-45.81
-40.51
-37.23
-35.63
-35.08
-34.90
-34.52
-33.58
-32.09
-30.30
-28.63
-27.38
-26.64
-26.08
-25.16
-23.32
-20.25
-16.03
-10.97
-5.49
0.19
6.09
12.37
19.08
25.94
32.35
37.52
40.77
41.72
40.39
37.08
32.26
26.39
19.88
13.09
6.33
-0.14
-6.11
-11.44
-16.02
-19.71
-22.42
-24.11
-24.86
-24.84
-24.26
-23.27
-21.92
-20.21
-18.12
-15.67
-12.92
-9.89
-6.59
-3.08
0.37
3.35
5.39
6.17
5.79
4.70
3.46
2.51
1.89
1.33
0.53
-0.57
-1.68
-2.37
-2.36
-1.78
-1.09
-0.79
-1.10
-1.85
-2.60
-2.99
-2.99
-2.87
-2.99
-3.49
-4.18
-4.57
-4.15
-2.65
-0.14
3.08
6.55
9.91
12.88
15.33
17.13
18.10
18.08
16.97
14.84
11.88
8.40
4.68
0.90
-2.84
-6.46
-9.75
-12.43
-14.17
-14.77
-14.24
-12.90
-11.22
-9.63
-8.38
-7.52
-6.86
-6.18
-5.26
-3.95
-2.14
0.27
3.31
6.93
10.83
14.56
17.55
19.38
19.83
18.96
17.05
14.48
11.77
9.48
8.16
8.13
9.31
11.14
12.77
13.38
12.54
10.37
7.38
4.22
1.36
-1.03
-2.98
-4.60
-5.93
-6.99
-7.81
-8.46
-9.03
-9.51
-9.79
-9.66
-8.95
-7.62
-5.82
-3.85
-2.01
-0.45
0.85
2.04
3.24
4.34
4.99
4.75
3.31
0.70
-2.66
-6.12
-9.08
-11.18
-12.45
-13.15
-13.59
-13.97
-14.30
-14.50
-14.51
-14.38
-14.17
-13.86
-13.27
-12.06
-9.93
-6.83
-3.03
0.93
4.49
7.36
9.58
11.39
13.02
14.43
15.45
15.87
15.66
15.00
14.07
12.96
11.57
9.81
7.83
6.01
4.80
4.39
4.49
4.36
3.24
0.72
-2.93
-6.94
-10.34
-12.37
-12.69
-11.34
-8.59
-4.78
-0.32
4.26
8.32
11.15
12.33
11.84
10.24
8.40
7.21
7.14
8.06
9.33
10.04
9.45
7.25
3.71
-0.49
-4.53
-7.80
-10.10
-11.68
-12.99
-14.43
-16.11
-17.73
-18.84
-19.01
-18.13
-16.46
-14.45
-12.54
-10.98
-9.80
-8.86
-7.98
-6.97
-5.75
-4.26
-2.48
-0.44
1.88
4.50
7.42
10.51
13.52
16.13
18.06
19.26
19.92
20.33
20.66
20.76
20.18
18.38
15.06
10.39
4.96
-0.36
-4.81
-7.83
-9.21
-9.01
-7.47
-4.96
-2.00
0.80
2.77
3.29
2.02
-1.04
-5.35
-10.00
-13.86
-15.97
-15.89
-13.80
-10.43
-6.70
-3.34
-0.66
1.42
3.15
4.73
6.07
6.94
7.10
6.54
5.47
4.35
3.57
3.38
3.76
4.45
5.12
5.43
5.18
4.28
2.65
0.28
-2.84
-6.57
-10.60
-14.40
-17.41
-19.25
-19.87
-19.53
-18.60
-17.30
-15.51
-12.90
-9.15
-4.29
1.17
6.46
10.79
13.66
14.92
14.61
12.84
9.66
5.28
0.21
-4.64
-8.18
-9.52
-8.39
-5.30
-1.34
2.29
4.77
5.87
5.88
5.35
4.74
4.31
3.98
3.56
2.82
1.57
-0.33
-2.93
-6.21
-9.98
-13.82
-17.18
-19.48
-20.35
-19.71
-17.80
-15.03
-11.87
-8.78
-6.12
-4.26
-3.40
-3.49
-4.14
-4.59
-4.11
-2.23
0.87
4.45
7.54
9.46
10.22
10.60
11.73
14.50
18.96
24.13
28.27
29.71
27.54
22.11
14.86
7.63
1.95
-1.41
-2.43
-1.57
0.36
2.02
1.56
-2.96
-12.29
-24.75
-35.94
-40.14
-32.99
-14.10
12.06
37.88
55.84
61.75
56.07
42.79
26.80
11.43
-2.37
-15.19
-27.48
-38.43
-46.10
-48.53
-45.19
-37.52
-28.52
-21.44
-18.41
-19.64
-23.54
-27.69
-29.99
-29.62
-27.03
-23.54
-20.45
-18.35
-16.92
-15.18
-12.13
-7.20
-0.60
6.77
13.66
18.82
21.40
21.01
17.65
11.61
3.39
-6.52
-17.52
-29.03
-40.45
-51.17
-60.57
-68.02
-72.94
-74.79
-73.19
-67.89
-58.85
-46.37
-31.21
-14.69
1.44
15.38
25.83
32.39
35.79
37.49
39.08
41.73
45.84
51.13
56.91
62.52
67.43
71.38
74.25
75.98
76.52
75.81
73.81
70.53
66.17
61.12
55.98
51.40
47.87
45.63
44.57
44.39
44.67
45.07
45.24
44.82
43.36
40.43
35.85
29.85
23.09
16.57
11.25
7.79
6.37
6.67
8.15
10.12
11.94
13.05
13.05
11.74
9.12
5.48
1.31
-2.81
-6.35
-8.98
-10.57
-11.25
-11.17
-10.53
-9.42
-7.92
-6.15
-4.28
-2.56
-1.20
-0.33
0.11
0.26
0.31
0.29
0.10
-0.52
-1.86
-4.22
-7.78
-12.53
-18.23
-24.39
-30.30
-35.20
-38.48
-39.88
-39.58
-38.13
-36.20
-34.33
-32.81
-31.60
-30.47
-29.16
-27.48
-25.35
-22.79
-19.85
-16.58
-13.12
-9.67
-6.56
-4.10
-2.55
-1.92
-2.05
-2.63
-3.34
-4.05
-4.73
-5.47
-6.30
-7.13
-7.75
-7.92
-7.44
-6.21
-4.23
-1.68
1.21
4.09
6.65
8.63
9.95
10.64
10.82
10.61
10.12
9.44
8.72
8.16
7.94
8.14
8.67
9.35
10.06
10.82
11.76
13.01
14.56
16.18
17.51
18.24
18.24
17.67
16.77
15.81
14.94
14.18
13.49
12.90
12.46
12.22
12.07
11.73
10.83
9.03
6.26
2.79
-0.84
-4.00
-6.27
-7.53
-8.00
-8.13
-8.34
-8.86
-9.69
-10.59
-11.28
-11.54
-11.30
-10.62
-9.65
-8.48
-7.16
-5.71
-4.17
-2.63
-1.24
-0.14
0.63
1.07
1.31
1.42
1.39
1.17
0.68
-0.10
-1.09
-2.17
-3.22
-4.20
-5.16
-6.18
-7.35
-8.67
-10.03
-11.26
-12.15
-12.52
-12.30
-11.50
-10.23
-8.69
-7.08
-5.59
-4.34
-3.42
-2.88
-2.78
-3.16
-3.98
-5.09
-6.24
-7.17
-7.70
-7.81
-7.67
-7.49
-7.46
-7.65
-8.00
-8.42
-8.86
-9.28
-9.65
-9.90
-9.86
-9.40
-8.42
-6.94
-5.12
-3.11
-1.06
0.97
2.94
4.77
6.36
7.55
8.26
8.47
8.29
7.86
7.35
6.83
6.36
5.95
5.57
5.15
4.58
3.71
2.41
0.68
-1.32
-3.30
-4.96
-6.12
-6.78
-7.09
-7.29
-7.57
-8.06
-8.76
-9.60
-10.51
-11.43
-12.34
-13.28
-14.36
-15.64
-17.21
-18.98
-20.81
-22.45
-23.70
-24.50
-24.95
-25.31
-25.86
-26.87
-28.41
-30.42
-32.58
-34.47
-35.66
-35.77
-34.63
-32.22
-28.65
-24.17
-19.05
-13.54
-7.83
-2.02
3.97
10.28
17.02
24.17
31.46
38.45
44.73
50.09
54.55
58.32
61.50
64.09
65.85
66.55
66.07
64.49
62.03
58.95
55.46
51.69
47.79
43.96
40.45
37.47
35.09
33.25
31.71
30.20
28.51
26.55
24.38
22.17
20.13
18.43
17.11
16.05
14.97
13.61
11.74
9.23
6.08
2.39
-1.72
-6.12
-10.65
-15.23
-19.85
-24.56
-29.40
-34.40
-39.44
-44.30
-48.75
-52.65
-55.99
-58.90
-61.57
-64.12
-66.54
-68.81
-70.93
-72.99
-75.20
-77.78
-80.83
-84.25
-87.75
-90.91
-93.30
-94.59
-94.75
-94.07
-93.19
-92.99
-94.24
-97.22
-101.40
-105.35
-107.11
-104.67
-96.60
-82.36
-62.42
-38.13
-11.33
15.87
41.50
63.99
82.42
96.61
106.96
114.16
118.76
121.06
121.10
119.00
115.07
109.95
104.32
98.73
93.43
88.47
83.82
79.50
75.59
72.12
68.97
65.87
62.55
58.85
54.89
51.04
47.71
45.30
43.95
43.65
44.23
45.52
47.46
50.08
53.44
57.64
62.65
68.33
74.35
80.27
85.65
90.14
93.60
96.12
97.97
99.48
100.90
102.29
103.47
104.13
103.97
102.94
101.25
99.25
97.10
94.44
90.28
83.16
71.55
54.33
31.13
2.49
-30.17
-64.60
-97.94
-127.14
-149.50
-163.38
-168.57
-166.30
-158.64
-147.78
-135.39
-122.48
-109.76
-97.95
-87.94
-80.45
-75.45
-71.92
-67.94
-61.49
-51.46
-38.28
-23.97
-11.30
-2.75
0.44
-1.42
-6.83
-13.91
-21.12
-27.49
-32.55
-35.91
-37.14
-35.78
-31.74
-25.53
-18.26
-11.37
-6.09
-3.07
-2.22
-2.86
-4.07
-5.10
-5.61
-5.65
-5.59
-5.83
-6.61
-7.92
-9.50
-10.97
-11.97
-12.31
-12.06
-11.48
-10.99
-10.92
-11.46
-12.57
-13.98
-15.36
-16.41
-16.95
-16.94
-16.41
-15.40
-13.93
-12.04
-9.81
-7.42
-5.06
-2.99
-1.36
-0.22
0.49
0.92
1.27
1.68
2.25
3.00
3.89
4.83
5.71
6.41
6.84
6.96
6.83
6.66
6.82
7.73
9.77
13.01
17.09
21.29
24.65
26.33
25.87
23.25
18.82
13.10
6.58
-0.27
-7.02
-13.16
-18.13
-21.51
-23.17
-23.46
-23.10
-22.91
-23.52
-25.16
-27.60
-30.29
-32.55
-33.57
-32.51
-28.47
-20.72
-8.93
6.48
24.28
42.64
59.57
73.41
83.20
88.68
90.13
88.15
83.46
76.86
69.19
61.12
53.16
45.49
38.04
30.58
22.81
14.39
4.95
-5.77
-17.83
-30.80
-43.77
-55.53
-64.91
-71.20
-74.29
-74.54
-72.51
-68.72
-63.48
-57.02
-49.60
-41.64
-33.59
-25.91
-18.94
-12.88
-7.89
-4.17
-2.02
-1.83
-3.88
-8.12
-13.88
-19.98
-24.92
-27.46
-27.14
-24.44
-20.55
-16.80
-14.04
-12.35
-11.24
-10.11
-8.69
-7.28
-6.50
-6.88
-8.45
-10.74
-12.93
-14.34
-14.80
-14.73
-14.96
-16.28
-18.95
-22.49
-25.87
-27.93
-28.05
-26.52
-24.48
-23.49
-24.82
-28.92
-35.17
-42.21
-48.48
-52.84
-54.92
-55.21
-54.97
-56.07
-60.63
-70.39
-85.79
-105.11
-124.07
-136.65
-136.73
-120.47
-87.90
-43.33
6.00
52.26
89.37
114.42
127.73
131.88
130.40
126.62
123.01
120.93
120.77
122.06
123.95
125.57
126.53
127.12
128.16
130.62
134.84
140.19
144.97
147.03
144.80
138.24
129.14
120.43
114.87
113.56
115.29
116.80
114.14
103.93
84.28
55.18
18.59
-21.19
-57.63
-82.80
-89.71
-75.36
-43.11
-2.59
33.25
52.89
50.58
27.99
-7.34
-45.85
-79.64
-104.59
-120.12
-127.65
-128.91
-125.35
-118.23
-109.11
-99.91
-92.59
-88.41
-87.35
-88.07
-88.42
-86.32
-80.63
-71.65
-61.00
-50.94
-43.40
-39.29
-38.29
-39.10
-40.30
-40.90
-40.79
-40.53
-40.90
-42.41
-45.03
-48.22
-51.26
-53.60
-55.09
-56.03
-56.90
-58.25
-60.40
-63.42
-67.18
-71.39
-75.74
-79.90
-83.59
-86.60
-88.80
-90.25
-91.13
-91.70
-92.13
-92.25
-91.47
-88.74
-82.74
-72.16
-56.03
-34.02
-6.67
24.51
57.24
88.93
117.34
141.26
160.81
177.32
192.60
208.09
224.16
240.00
253.98
264.43
270.22
271.21
268.10
262.16
254.80
247.19
240.03
233.47
227.03
219.72
210.25
197.52
181.16
161.97
141.66
122.16
104.49
87.95
70.12
47.90
19.10
-16.32
-55.84
-95.29
-130.34
-157.92
-176.89
-187.75
-191.81
-190.40
-184.54
-175.11
-163.15
-149.95
-136.89
-125.07
-114.91
-106.13
-98.01
-89.85
-81.39
-72.98
-65.35
-59.32
-55.33
-53.16
-52.13
-51.27
-49.77
-47.24
-43.80
-39.97
-36.40
-33.60
-31.70
-30.49
-29.45
-27.99
-25.69
-22.40
-18.42
-14.42
-11.24
-9.71
-10.28
-12.88
-16.96
-21.61
-26.03
-29.71
-32.61
-35.05
-37.42
-39.96
-42.70
-45.53
-48.41
-51.41
-54.81
-58.89
-63.84
-69.69
-76.30
-83.46
-90.98
-98.67
-106.30
-113.56
-120.07
-125.56
-130.14
-134.28
-138.75
-144.04
-149.87
-154.83
-156.66
-152.94
-142.06
-123.73
-98.88
-69.11
-35.95
-0.61
35.79
71.73
105.07
133.41
154.80
168.49
175.16
176.45
174.17
169.64
163.50
156.01
147.53
138.76
130.70
124.17
119.53
116.49
114.25
111.91
108.78
104.68
99.85
94.89
90.46
87.11
85.02
83.95
83.27
82.10
79.61
75.25
68.85
60.61
50.92
40.28
29.31
18.75
9.38
1.82
-3.83
-8.10
-11.95
-16.37
-21.87
-28.19
-34.45
-39.55
-42.64
-43.40
-41.98
-38.72
-33.91
-27.69
-20.08
-11.20
-1.30
9.16
19.62
29.50
38.35
45.97
52.47
58.21
63.72
69.45
75.50
81.60
87.13
91.48
94.36
96.00
97.15
98.74
101.52
105.74
111.16
117.27
123.59
129.96
136.51
143.60
151.52
160.35
169.80
179.28
187.94
194.97
199.85
202.56
203.62
203.87
204.02
204.25
204.08
202.64
198.83
191.67
180.10
162.95
138.91
106.89
66.62
19.05
-33.71
-89.00
-144.38
-198.03
-248.41
-293.57
-330.64
-356.14
-367.21
-363.06
-345.87
-320.37
-292.52
-267.47
-247.89
-233.40
-221.31
-208.29
-192.10
-172.53
-151.13
-130.12
-111.10
-94.44
-79.57
-65.92
-53.80
-44.43
-39.34
-39.26
-43.49
-49.93
-56.01
-59.70
-60.20
-57.89
-53.77
-48.96
-44.22
-39.90
-35.98
-32.31
-28.79
-25.43
-22.37
-19.73
-17.56
-15.76
-14.13
-12.55
-11.02
-9.71
-8.85
-8.56
-8.76
-9.21
-9.58
-9.57
-9.09
-8.37
-7.96
-8.67
-11.29
-16.09
-22.55
-29.22
-34.02
-34.94
-30.68
-21.24
-7.89
7.24
21.74
33.68
41.91
46.13
46.75
44.59
40.56
35.46
29.90
24.20
18.50
12.78
6.91
0.77
-5.74
-12.52
-19.31
-25.59
-30.81
-34.53
-36.57
-37.15
-36.64
-35.50
-33.92
-31.80
-28.79
-24.53
-18.83
-11.85
-4.07
3.81
11.00
16.79
20.53
21.77
20.37
16.60
11.25
5.49
0.59
-2.45
-3.24
-2.09
0.16
2.55
4.29
5.02
4.75
3.75
2.32
0.72
-0.83
-2.11
-2.91
-3.03
-2.42
-1.21
0.29
1.67
2.62
2.99
2.81
2.28
1.60
0.98
0.45
0.01
-0.43
-0.96
-1.62
-2.35
-3.05
-3.57
-3.76
-3.54
-2.88
-1.85
-0.52
0.97
2.46
3.84
5.00
5.92
6.71
7.55
8.71
10.39
12.63
15.25
17.90
20.26
22.05
23.19
23.72
23.71
23.21
22.22
20.79
19.00
17.06
15.15
13.39
11.76
10.18
8.55
6.86
5.20
3.71
2.46
1.39
0.36
-0.86
-2.46
-4.51
-6.89
-9.32
-11.48
-13.05
-13.79
-13.58
-12.42
-10.46
-7.96
-5.33
-3.00
-1.36
-0.57
-0.53
-0.98
-1.57
-2.06
-2.41
-2.70
-3.06
-3.53
-4.07
-4.55
-4.87
-4.96
-4.87
-4.65
-4.45
-4.43
-4.73
-5.38
-6.29
-7.20
-7.79
-7.78
-7.04
-5.66
-3.86
-1.95
-0.18
1.28
2.36
3.07
3.41
3.45
3.25
2.88
2.43
1.97
1.51
1.07
0.62
0.10
-0.49
-1.15
-1.85
-2.54
-3.19
-3.82
-4.51
-5.36
-6.45
-7.78
-9.19
-10.41
-11.08
-10.94
-9.89
-8.04
-5.70
-3.20
-0.85
1.24
2.98
4.37
5.38
5.91
5.98
5.65
5.10
4.54
4.12
3.88
3.73
3.47
3.00
2.27
1.34
0.35
-0.53
-1.17
-1.52
-1.61
-1.54
-1.46
-1.49
-1.67
-1.90
-2.00
-1.72
-0.93
0.24
1.46
2.18
1.91
0.44
-2.06
-5.00
-7.63
-9.33
-9.93
-9.82
-9.83
-10.87
-13.49
-17.56
-22.30
-26.59
-29.49
-30.72
-30.81
-30.90
-32.20
-35.51
-40.77
-47.08
-52.93
-56.63
-56.79
-52.80
-45.28
-36.40
-29.55
-28.41
-35.39
-50.06
-68.39
-83.38
-87.09
-73.38
-40.22
9.50
68.92
129.42
183.15
224.78
252.12
265.59
267.23
259.74
245.79
227.74
207.53
186.64
166.01
145.93
126.10
105.87
84.48
61.42
36.63
10.55
-15.94
-41.54
-64.76
-84.12
-98.47
-107.36
-111.37
-111.91
-110.80
-109.52
-108.76
-108.21
-106.87
-103.37
-96.33
-84.58
-67.51
-45.57
-20.84
2.87
20.62
27.90
22.47
5.59
-18.07
-42.01
-60.23
-69.29
-69.03
-61.89
-51.29
-40.20
-30.39
-22.54
-16.78
-13.39
-12.71
-14.96
-19.62
-25.36
-30.41
-33.41
-34.07
-33.42
-33.12
-34.31
-36.70
-38.46
-37.05
-30.75
-19.73
-6.23
6.49
15.68
20.42
21.81
22.22
24.04
28.62
36.07
45.62
56.20
66.91
76.99
85.82
92.70
97.02
98.41
97.05
93.73
89.68
86.28
84.54
84.85
86.81
89.37
91.22
91.29
89.09
84.80
79.14
72.88
66.66
60.74
55.13
49.77
44.76
40.31
36.64
33.83
31.65
29.72
27.59
24.97
21.75
18.03
13.94
9.63
5.29
1.09
-2.70
-5.81
-7.97
-9.02
-8.95
-7.94
-6.33
-4.56
-3.13
-2.42
-2.66
-3.78
-5.42
-7.07
-8.13
-8.28
-7.43
-5.89
-4.15
-2.79
-2.29
-2.96
-5.02
-8.41
-12.85
-17.65
-21.91
-24.66
-25.29
-23.90
-21.29
-18.75
-17.48
-18.14
-20.65
-24.32
-28.33
-32.07
-35.40
-38.44
-41.39
-44.25
-46.71
-48.29
-48.51
-47.19
-44.41
-40.57
-36.13
-31.59
-27.26
-23.31
-19.73
-16.41
-13.24
-10.07
-6.85
-3.56
-0.25
2.95
5.82
8.04
9.21
8.94
7.02
3.43
-1.48
-7.14
-12.87
-18.07
-22.33
-25.44
-27.37
-28.12
-27.71
-26.17
-23.57
-20.16
-16.29
-12.31
-8.34
-4.11
1.00
7.67
16.25
26.43
37.18
47.02
54.49
58.58
58.98
56.07
50.75
44.10
37.27
31.19
26.54
23.62
22.33
22.31
22.95
23.65
23.91
23.55
22.76
22.05
22.09
23.31
25.69
28.55
30.89
31.87
31.28
29.73
28.26
27.77
28.44
29.80
31.10
32.03
33.02
34.92
38.33
42.94
47.49
50.19
49.40
43.91
32.82
15.30
-9.22
-40.44
-76.50
-113.92
-148.43
-176.47
-196.60
-209.92
-219.36
-227.98
-237.29
-246.31
-251.84
-249.78
-236.91
-212.37
-178.27
-139.01
-99.84
-65.06
-36.90
-15.47
0.31
11.40
17.95
19.47
15.82
7.97
-1.84
-10.91
-17.22
-20.23
-20.86
-20.72
-21.19
-22.69
-24.73
-26.28
-26.50
-25.12
-22.45
-19.16
-15.85
-12.84
-10.14
-7.58
-4.97
-2.22
0.56
3.17
5.31
6.74
7.34
7.16
6.41
5.41
4.45
3.72
3.26
2.98
2.71
2.36
1.87
1.30
0.73
0.24
-0.20
-0.69
-1.38
-2.39
-3.76
-5.41
-7.14
-8.66
-9.69
-10.02
-9.58
-8.44
-6.80
-4.87
-2.85
-0.85
1.04
2.79
4.35
5.65
6.64
7.23
7.44
7.30
6.91
6.38
5.78
5.17
4.49
3.72
2.78
1.69
0.44
-0.97
-2.55
-4.31
-6.17
-7.97
-9.43
-10.30
-10.42
-9.76
-8.39
-6.42
-3.95
-1.05
2.13
5.42
8.57
11.34
13.61
15.36
16.64
17.51
17.92
17.77
17.00
15.64
13.91
12.07
10.41
9.07
7.98
6.99
5.85
4.35
2.40
0.02
-2.58
-5.11
-7.18
-8.48
-8.77
-8.05
-6.44
-4.13
-1.31
1.84
5.17
8.48
11.54
14.10
16.00
17.15
17.60
17.45
16.86
15.93
14.78
13.49
12.14
10.80
9.52
8.27
6.98
5.54
3.88
1.97
-0.16
-2.43
-4.69
-6.79
-8.54
-9.70
-9.98
-9.08
-6.84
-3.27
1.36
6.54
11.60
15.92
19.05
20.78
21.26
20.81
19.86
18.63
17.23
15.50
13.31
10.51
7.08
3.05
-1.48
-6.16
-10.32
-13.00
-13.31
-11.13
-7.56
-4.90
-5.76
-11.83
-22.94
-37.13
-51.53
-63.59
-71.72
-75.25
-74.04
-68.08
-57.94
-45.24
-32.82
-23.98
-21.12
-24.57
-32.47
-41.79
-49.81
-55.32
-58.64
-61.03
-63.74
-67.57
-72.87
-79.66
-87.63
-95.90
-102.75
-105.72
-102.07
-89.77
-68.30
-39.22
-5.87
27.39
56.57
79.19
94.82
104.93
111.85
117.74
123.77
130.08
136.15
141.40
145.50
148.35
149.90
149.99
148.48
145.45
141.27
136.56
131.90
127.65
123.66
119.46
114.39
108.02
100.39
92.17
84.60
79.06
76.68
77.90
82.38
89.09
96.78
104.45
111.61
118.40
125.18
132.34
139.83
147.26
154.09
160.01
165.22
170.28
175.84
182.16
189.01
195.77
201.67
205.97
207.76
205.87
198.80
185.26
164.69
137.66
105.64
70.26
32.71
-6.43
-46.54
-86.03
-121.96
-150.66
-169.11
-176.39
-174.27
-166.51
-157.44
-150.35
-146.71
-146.19
-147.46
-149.06
-149.93
-149.64
-148.18
-145.76
-142.59
-138.71
-134.05
-128.42
-121.74
-114.18
-106.27
-98.69
-92.11
-86.91
-82.99
-79.97
-77.28
-74.56
-71.71
-68.92
-66.40
-64.07
-61.40
-57.54
-51.85
-44.30
-35.74
-27.60
-21.21
-17.17
-15.03
-13.77
-12.42
-10.67
-9.01
-8.26
-8.91
-10.77
-12.97
-14.54
-14.89
-14.03
-12.52
-11.06
-10.09
-9.65
-9.42
-8.89
-7.62
-5.45
-2.54
0.69
3.72
6.17
7.91
9.08
9.99
11.00
12.27
13.76
15.13
15.79
15.09
12.52
7.96
1.81
-5.06
-11.58
-16.86
-20.40
-22.28
-22.94
-23.00
-22.98
-23.10
-23.41
-23.85
-24.48
-25.50
-27.21
-29.68
-32.58
-35.14
-36.40
-35.70
-33.05
-29.20
-25.24
-22.06
-19.81
-17.84
-15.07
-10.71
-4.71
2.06
8.20
12.48
14.37
14.27
13.42
13.24
14.81
18.34
23.29
28.49
32.64
34.36
32.19
24.82
11.88
-5.20
-23.01
-37.10
-43.91
-42.53
-35.04
-25.38
-16.96
-10.83
-5.39
2.13
13.54
28.34
43.98
57.56
67.44
73.90
78.34
81.92
84.53
84.80
80.97
71.87
57.76
40.30
22.05
5.34
-8.37
-18.69
-25.96
-30.87
-34.11
-36.34
-38.28
-40.61
-43.61
-46.97
-49.72
-50.89
-50.29
-49.05
-49.36
-53.54
-62.66
-75.83
-90.40
-103.07
-111.21
-113.73
-111.07
-104.74
-96.44
-87.49
-78.44
-69.27
-59.67
-49.59
-39.53
-30.62
-24.22
-21.38
-22.20
-25.71
-30.33
-34.49
-37.39
-39.08
-39.98
-40.02
-37.99
-31.80
-19.36
0.32
26.41
56.32
86.49
113.62
135.42
150.94
160.27
164.20
163.85
160.63
156.22
152.29
150.11
149.86
150.62
150.69
148.42
143.00
134.57
123.85
111.39
97.17
80.77
61.82
40.72
18.73
-2.33
-20.77
-35.71
-47.22
-56.13
-63.47
-69.90
-75.45
-79.47
-81.02
-79.40
-74.67
-67.74
-60.13
-53.23
-47.82
-43.88
-40.88
-38.37
-36.31
-34.91
-34.26
-34.07
-33.66
-32.46
-30.41
-28.10
-26.47
-26.17
-27.10
-28.32
-28.47
-26.48
-22.12
-16.12
-9.90
-4.93
-2.29
-2.31
-4.77
-9.10
-14.67
-20.97
-27.55
-33.94
-39.53
-43.64
-45.63
-45.10
-42.06
-36.91
-30.36
-23.22
-16.09
-9.16
-2.20
5.14
13.03
21.30
29.70
38.16
47.08
57.06
68.34
80.24
90.93
97.98
99.38
94.31
83.53
68.80
51.88
33.81
14.85
-4.91
-24.59
-42.10
-54.70
-60.08
-57.64
-48.94
-37.15
-25.66
-16.67
-10.52
-6.01
-1.53
3.84
9.77
15.06
18.52
19.77
19.58
19.41
20.56
23.46
27.43
31.01
32.78
31.92
28.66
23.94
18.96
14.54
10.83
7.39
3.62
-0.84
-5.82
-10.68
-14.63
-17.12
-18.06
-17.84
-17.18
-16.83
-17.30
-18.76
-21.02
-23.65
-26.15
-28.09
-29.14
-29.17
-28.14
-26.18
-23.48
-20.29
-16.93
-13.64
-10.58
-7.81
-5.37
-3.25
-1.50
-0.23
0.44
0.46
-0.12
-1.08
-2.10
-2.87
-3.06
-2.53
-1.24
0.74
3.25
6.17
9.33
12.54
15.59
18.22
20.17
21.32
21.68
21.44
20.80
19.90
18.78
17.38
15.62
13.53
11.22
8.86
6.55
4.30
2.05
-0.24
-2.51
-4.58
-6.20
-7.19
-7.50
-7.26
-6.69
-6.03
-5.43
-4.91
-4.38
-3.74
-2.87
-1.76
-0.48
0.88
2.22
3.46
4.57
5.57
6.44
7.20
7.78
8.14
8.24
8.11
7.82
7.46
7.12
6.88
6.78
6.89
7.33
8.18
9.50
11.22
13.15
15.03
16.56
17.52
17.82
17.49
16.62
15.35
13.78
11.99
10.10
8.20
6.45
4.97
3.81
2.89
2.05
1.03
-0.38
-2.27
-4.57
-7.06
-9.48
-11.61
-13.36
-14.71
-15.66
-16.23
-16.38
-16.11
-15.49
-14.68
-13.87
-13.24
-12.84
-12.62
-12.45
-12.24
-12.02
-11.87
-11.95
-12.34
-12.98
-13.73
-14.42
-14.95
-15.28
-15.46
-15.54
-15.58
-15.67
-15.87
-16.28
-16.91
-17.65
-18.27
-18.44
-17.94
-16.66
-14.73
-12.35
-9.76
-7.11
-4.49
-1.96
0.43
2.60
4.47
5.99
7.14
7.88
8.22
8.18
7.79
7.12
6.30
5.45
4.69
4.07
3.59
3.14
2.59
1.82
0.74
-0.62
-2.16
-3.72
-5.10
-6.12
-6.65
-6.58
-5.91
-4.67
-2.97
-0.95
1.23
3.44
5.62
7.74
9.79
11.74
13.49
14.93
15.87
16.14
15.58
14.15
11.90
9.07
5.96
2.97
0.43
-1.40
-2.41
-2.67
-2.42
-1.99
-1.71
-1.85
-2.60
-4.04
-6.22
-9.08
-12.49
-16.15
-19.64
-22.54
-24.48
-25.33
-25.21
-24.49
-23.57
-22.79
-22.35
-22.24
-22.38
-22.66
-23.04
-23.50
-23.99
-24.40
-24.56
-24.32
-23.62
-22.49
-21.09
-19.56
-17.99
-16.39
-14.75
-13.08
-11.49
-10.11
-9.06
-8.43
-8.22
-8.33
-8.64
-8.95
-9.03
-8.71
-7.80
-6.23
-4.01
-1.22
1.99
5.48
9.09
12.73
16.29
19.67
22.75
25.41
27.53
29.03
29.95
30.39
30.46
30.27
29.84
29.15
28.13
26.79
25.17
23.42
21.67
20.06
18.62
17.34
16.14
14.91
13.59
12.11
10.50
8.86
7.41
6.42
6.15
6.70
7.99
9.76
11.64
13.29
14.59
15.53
16.20
16.64
16.76
16.46
15.63
14.36
12.88
11.48
10.39
9.68
9.26
8.94
8.53
7.92
7.05
5.93
4.63
3.17
1.59
-0.11
-1.90
-3.68
-5.27
-6.36
-6.69
-6.06
-4.53
-2.36
0.03
2.25
4.06
5.36
6.26
6.84
7.20
7.34
7.19
6.68
5.70
4.22
2.28
0.08
-2.11
-3.99
-5.31
-5.97
-6.05
-5.82
-5.57
-5.60
-6.13
-7.24
-8.93
-11.06
-13.39
-15.57
-17.23
-18.03
-17.74
-16.40
-14.26
-11.73
-9.20
-6.94
-4.96
-3.14
-1.29
0.71
2.85
5.00
7.03
8.88
10.54
12.10
13.61
15.10
16.57
17.98
19.30
20.48
21.41
21.94
21.88
21.03
19.26
16.58
13.21
9.55
6.12
3.46
1.98
1.86
3.04
5.20
7.93
10.78
13.35
15.40
16.83
17.65
17.97
17.94
17.69
17.35
16.98
16.61
16.21
15.70
14.97
13.89
12.40
10.49
8.24
5.78
3.21
0.60
-2.06
-4.78
-7.59
-10.45
-13.31
-16.14
-18.94
-21.79
-24.76
-27.92
-31.25
-34.62
-37.81
-40.51
-42.43
-43.35
-43.13
-41.82
-39.57
-36.68
-33.41
-29.99
-26.57
-23.28
-20.20
-17.46
-15.17
-13.34
-11.87
-10.46
-8.77
-6.42
-3.18
0.96
5.80
10.95
15.89
20.10
23.12
24.69
24.70
23.28
20.71
17.40
13.76
10.24
7.19
4.90
3.52
3.10
3.54
4.62
6.04
7.47
8.61
9.20
9.10
8.21
6.54
4.24
1.60
-0.91
-2.74
-3.41
-2.68
-0.68
2.17
5.26
8.02
10.08
11.34
11.91
12.09
12.15
12.29
12.61
13.10
13.64
14.06
14.24
14.11
13.70
13.12
12.50
11.95
11.46
10.99
10.42
9.61
8.42
6.80
4.75
2.37
-0.08
-2.31
-4.07
-5.30
-6.10
-6.74
-7.47
-8.37
-9.29
-9.90
-9.86
-8.95
-7.19
-4.80
-2.07
0.67
3.18
5.28
6.88
7.95
8.52
8.64
8.39
7.83
7.03
6.06
5.12
4.38
4.03
4.16
4.70
5.45
6.19
6.80
7.26
7.64
7.98
8.22
8.15
7.53
6.16
3.98
1.13
-2.12
-5.40
-8.32
-10.51
-11.70
-11.76
-10.77
-8.97
-6.70
-4.32
-2.05
-0.01
1.83
3.44
4.82
5.89
6.57
6.83
6.72
6.37
5.90
5.42
4.96
4.51
4.04
3.51
2.92
2.28
1.57
0.77
-0.14
-1.18
-2.37
-3.65
-5.00
-6.41
-7.97
-9.81
-12.07
-14.80
-17.86
-20.92
-23.51
-25.21
-25.74
-25.06
-23.34
-20.88
-17.93
-14.68
-11.25
-7.77
-4.33
-1.10
1.82
4.35
6.50
8.27
9.66
10.64
11.12
11.09
10.56
9.69
8.62
7.52
6.48
5.48
4.46
3.30
1.99
0.54
-0.97
-2.42
-3.74
-4.93
-6.00
-7.00
-7.98
-8.98
-10.02
-11.09
-12.15
-13.15
-14.06
-14.88
-15.71
-16.71
-18.01
-19.69
-21.66
-23.73
-25.60
-26.91
-27.33
-26.59
-24.62
-21.58
-17.81
-13.75
-9.77
-6.07
-2.66
0.60
3.82
6.94
9.74
11.95
13.33
13.83
13.62
13.04
12.50
12.32
12.64
13.48
14.71
16.18
17.79
19.45
21.14
22.79
24.23
25.28
25.76
25.61
24.90
23.80
22.54
21.29
20.15
19.06
17.91
16.57
14.96
13.06
10.97
8.76
6.54
4.33
2.13
-0.11
-2.39
-4.62
-6.64
-8.15
-8.90
-8.70
-7.53
-5.57
-3.10
-0.47
2.08
4.44
6.56
8.44
10.00
11.09
11.56
11.37
10.64
9.64
8.68
8.00
7.63
7.45
7.28
7.01
6.63
6.25
5.98
5.89
5.94
6.00
5.94
5.67
5.14
4.36
3.38
2.25
1.10
0.07
-0.75
-1.31
-1.77
-2.37
-3.37
-4.93
-6.98
-9.21
-11.18
-12.44
-12.67
-11.75
-9.75
-6.89
-3.52
-0.01
3.29
6.17
8.52
10.44
12.09
13.61
15.01
16.21
17.02
17.33
17.14
16.53
15.66
14.59
13.30
11.77
10.00
8.11
6.29
4.76
3.65
2.93
2.48
2.13
1.72
1.18
0.46
-0.50
-1.75
-3.34
-5.25
-7.25
-9.04
-10.24
-10.57
-9.91
-8.38
-6.21
-3.71
-1.17
1.22
3.28
4.89
5.95
6.45
6.45
6.06
5.43
4.67
3.85
2.99
2.11
1.26
0.50
-0.07
-0.39
-0.47
-0.39
-0.32
-0.46
-0.94
-1.83
-3.08
-4.61
-6.35
-8.21
-10.16
-12.12
-14.03
-15.79
-17.32
-18.55
-19.35
-19.62
-19.20
-18.03
-16.09
-13.51
-10.53
-7.42
-4.44
-1.78
0.44
2.19
3.49
4.47
5.35
6.38
7.74
9.49
11.49
13.43
14.97
15.91
16.18
15.89
15.23
14.34
13.29
12.07
10.67
9.18
7.68
6.24
4.82
3.24
1.32
-1.11
-4.02
-7.20
-10.26
-12.81
-14.46
-15.00
-14.34
-12.62
-10.06
-6.99
-3.72
-0.48
2.63
5.54
8.23
10.61
12.52
13.82
14.39
14.23
13.43
12.15
10.58
8.84
7.08
5.40
3.99
2.94
2.36
2.16
2.18
2.19
2.02
1.65
1.15
0.67
0.24
-0.23
-0.94
-2.10
-3.79
-5.93
-8.29
-10.57
-12.45
-13.68
-14.09
-13.59
-12.25
-10.21
-7.74
-5.09
-2.42
0.18
2.69
5.07
7.26
9.11
10.53
11.48
12.06
12.42
12.67
12.84
12.90
12.78
12.46
12.01
11.52
11.03
10.54
9.92
9.10
8.03
6.80
5.49
4.19
2.92
1.58
0.09
-1.59
-3.39
-5.22
-6.98
-8.68
-10.40
-12.19
-14.05
-15.81
-17.23
-18.07
-18.19
-17.58
-16.35
-14.62
-12.56
-10.27
-7.83
-5.34
-2.85
-0.41
1.90
4.00
5.76
7.08
7.87
8.13
7.97
7.58
7.18
6.96
7.02
7.37
7.91
8.53
9.11
9.54
9.75
9.67
9.20
8.27
6.86
5.06
3.02
0.94
-1.05
-2.88
-4.60
-6.25
-7.86
-9.35
-10.58
-11.35
-11.53
-11.07
-10.04
-8.65
-7.14
-5.71
-4.46
-3.29
-1.99
-0.30
1.98
4.86
8.15
11.55
14.72
17.45
19.64
21.39
22.88
24.31
25.86
27.61
29.59
31.76
34.04
36.31
38.41
40.15
41.42
42.24
42.76
43.22
43.72
44.09
43.79
42.09
38.28
32.02
23.50
13.47
3.07
-6.41
-13.80
-18.19
-19.05
-16.32
-10.50
-2.73
5.37
12.12
16.25
17.35
15.97
13.26
10.45
8.27
6.74
5.40
3.65
1.22
-1.75
-4.80
-7.55
-9.85
-11.87
-13.92
-16.20
-18.68
-21.01
-22.79
-23.73
-23.92
-23.75
-23.83
-24.68
-26.55
-29.31
-32.51
-35.66
-38.38
-40.55
-42.26
-43.70
-45.06
-46.44
-47.78
-48.88
-49.43
-49.11
-47.69
-45.15
-41.64
-37.49
-33.05
-28.64
-24.50
-20.87
-18.00
-16.17
-15.55
-16.17
-17.75
-19.74
-21.49
-22.46
-22.33
-21.21
-19.57
-18.17
-17.87
-19.34
-22.92
-28.36
-34.93
-41.50
-46.91
-50.27
-51.13
-49.61
-46.20
-41.58
-36.44
-31.26
-26.26
-21.35
-16.20
-10.39
-3.50
4.65
13.97
24.20
34.94
45.82
56.49
66.49
75.25
81.93
85.73
85.99
82.46
75.34
65.11
52.39
37.77
21.84
5.31
-10.87
-25.52
-37.42
-45.60
-49.64
-49.70
-46.46
-40.83
-33.58
-25.25
-16.18
-6.66
2.88
11.75
19.24
24.72
27.96
29.07
28.39
26.27
22.85
18.14
12.08
4.80
-3.36
-11.85
-20.08
-27.66
-34.39
-40.26
-45.26
-49.33
-52.25
-53.68
-53.28
-50.77
-46.12
-39.61
-31.82
-23.62
-15.97
-9.71
-5.40
-3.23
-3.00
-4.25
-6.33
-8.56
-10.40
-11.54
-12.01
-12.08
-12.23
-12.89
-14.32
-16.48
-18.97
-21.17
-22.36
-21.96
-19.68
-15.68
-10.49
-4.93
0.12
3.98
6.29
7.07
6.56
5.07
2.86
0.14
-2.85
-5.72
-7.90
-8.78
-7.89
-5.10
-0.74
4.54
9.89
14.50
17.80
19.51
19.66
18.56
16.73
14.79
13.32
12.70
13.01
14.09
15.62
17.28
18.91
20.47
22.02
23.69
25.55
27.68
30.10
32.77
35.56
38.20
40.32
41.54
41.65
40.69
38.98
37.01
35.25
33.97
33.16
32.59
31.91
30.90
29.48
27.78
26.02
24.41
23.09
21.97
20.90
19.67
18.12
16.16
13.83
11.25
8.58
6.09
4.04
2.81
2.69
3.81
6.02
8.88
11.83
14.32
16.09
17.20
17.98
18.83
20.04
21.70
23.69
25.74
27.53
28.73
29.10
28.42
26.65
23.90
20.47
16.78
13.24
10.18
7.75
5.94
4.55
3.34
2.03
0.42
-1.61
-4.07
-6.83
-9.74
-12.60
-15.30
-17.73
-19.79
-21.38
-22.37
-22.70
-22.39
-21.62
-20.64
-19.76
-19.19
-19.04
-19.29
-19.84
-20.53
-21.25
-21.91
-22.45
-22.84
-23.03
-23.01
-22.79
-22.48
-22.22
-22.14
-22.32
-22.65
-22.95
-22.94
-22.46
-21.46
-20.12
-18.71
-17.50
-16.68
-16.31
-16.28
-16.45
-16.65
-16.76
-16.70
-16.48
-16.13
-15.71
-15.29
-14.88
-14.47
-14.00
-13.43
-12.76
-12.06
-11.47
-11.14
-11.20
-11.62
-12.23
-12.71
-12.72
-12.01
-10.51
-8.37
-5.85
-3.20
-0.56
2.05
4.74
7.58
10.57
13.60
16.47
18.99
20.99
22.38
23.09
23.12
22.56
21.55
20.28
18.96
17.75
16.72
15.90
15.29
14.84
14.57
14.39
14.19
13.86
13.27
12.42
11.38
10.25
9.12
8.04
6.97
5.79
4.43
2.84
1.11
-0.58
-1.97
-2.84
-3.08
-2.76
-2.06
-1.23
-0.48
0.10
0.53
0.89
1.24
1.63
2.07
2.47
2.77
2.84
2.64
2.20
1.67
1.26
1.15
1.39
1.84
2.29
2.51
2.39
1.97
1.41
0.90
0.58
0.47
0.47
0.41
0.11
-0.59
-1.73
-3.25
-4.89
-6.32
-7.19
-7.19
-6.23
-4.35
-1.78
1.17
4.17
6.98
9.39
11.31
12.77
13.86
14.73
15.44
15.95
16.12
15.79
14.81
13.22
11.19
8.96
6.77
4.79
3.13
1.82
0.83
0.14
-0.32
-0.62
-0.88
-1.16
-1.50
-1.91
-2.38
-2.90
-3.47
-4.09
-4.76
-5.44
-6.04
-6.44
-6.54
-6.23
-5.50
-4.43
-3.19
-1.94
-0.88
-0.10
0.34
0.49
0.46
0.36
0.32
0.40
0.59
0.85
1.06
1.16
1.10
0.88
0.54
0.08
-0.49
-1.17
-1.92
-2.61
-3.04
-3.07
-2.68
-2.05
-1.44
-1.19
-1.50
-2.37
-3.67
-5.17
-6.66
-7.98
-8.98
-9.56
-9.61
-9.09
-8.06
-6.66
-5.14
-3.69
-2.48
-1.58
-1.05
-0.88
-1.06
-1.53
-2.19
-2.92
-3.64
-4.32
-5.00
-5.78
-6.74
-7.94
-9.32
-10.72
-11.91
-12.69
-12.94
-12.68
-12.08
-11.41
-10.94
-10.85
-11.16
-11.79
-12.56
-13.34
-14.02
-14.60
-15.09
-15.50
-15.86
-16.16
-16.41
-16.61
-16.76
-16.82
-16.80
-16.70
-16.61
-16.64
-16.91
-17.49
-18.36
-19.46
-20.66
-21.86
-22.88
-23.48
-23.41
-22.45
-20.56
-17.92
-14.91
-11.94
-9.23
-6.73
-4.13
-1.03
2.77
7.21
11.93
16.44
20.30
23.25
25.26
26.41
26.86
26.74
26.15
25.17
23.93
22.61
21.42
20.57
20.16
20.13
20.27
20.21
19.63
18.34
16.44
14.27
12.28
10.85
10.11
9.92
9.97
9.90
9.49
8.70
7.66
6.59
5.73
5.27
5.31
5.88
6.81
7.75
8.18
7.58
5.68
2.65
-0.87
-3.88
-5.43
-4.92
-2.35
1.73
6.40
10.73
14.02
15.95
16.55
16.12
15.11
13.96
13.04
12.53
12.44
12.61
12.80
12.76
12.29
11.29
9.72
7.64
5.13
2.36
-0.54
-3.45
-6.32
-9.25
-12.40
-15.90
-19.73
-23.60
-27.01
-29.35
-30.15
-29.18
-26.57
-22.74
-18.25
-13.64
-9.34
-5.61
-2.58
-0.30
1.20
1.92
1.87
1.18
0.01
-1.35
-2.61
-3.51
-3.91
-3.82
-3.29
-2.42
-1.32
-0.04
1.34
2.68
3.78
4.46
4.55
4.04
3.01
1.71
0.34
-0.91
-1.97
-2.91
-3.81
-4.82
-5.95
-7.22
-8.53
-9.80
-10.94
-11.82
-12.31
-12.29
-11.71
-10.60
-9.14
-7.53
-5.95
-4.54
-3.33
-2.33
-1.49
-0.83
-0.30
0.09
0.38
0.60
0.75
0.84
0.85
0.74
0.50
0.13
-0.33
-0.86
-1.35
-1.77
-2.07
-2.28
-2.44
-2.61
-2.81
-3.05
-3.35
-3.70
-4.10
-4.57
-5.10
-5.70
-6.35
-7.03
-7.74
-8.46
-9.20
-9.94
-10.67
-11.36
-12.00
-12.56
-13.02
-13.34
-13.42
-13.23
-12.68
-11.76
-10.48
-8.86
-7.00
-5.00
-3.02
-1.19
0.33
1.49
2.22
2.58
2.65
2.49
2.20
1.85
1.49
1.18
0.98
0.94
1.06
1.31
1.64
1.96
2.25
2.49
2.72
2.98
3.30
3.73
4.25
4.86
5.52
6.15
6.63
6.80
6.54
5.76
4.58
3.20
1.92
1.05
0.76
1.10
1.96
3.18
4.59
6.02
7.38
8.57
9.58
10.38
10.96
11.37
11.65
11.90
12.16
12.49
12.82
13.06
13.05
12.71
12.03
11.17
10.31
9.63
9.18
8.93
8.73
8.47
8.09
7.61
7.03
6.33
5.44
4.33
2.99
1.52
0.05
-1.30
-2.49
-3.50
-4.35
-4.95
-5.25
-5.13
-4.57
-3.61
-2.35
-0.88
0.72
2.38
4.03
5.56
6.86
7.89
8.69
9.37
10.07
10.85
11.65
12.31
12.64
12.48
11.79
10.64
9.22
7.75
6.46
5.48
4.90
4.73
4.90
5.26
5.63
5.83
5.69
5.11
4.07
2.64
0.91
-0.97
-2.86
-4.60
-6.03
-7.04
-7.54
-7.52
-7.09
-6.38
-5.53
-4.69
-3.93
-3.23
-2.53
-1.72
-0.72
0.44
1.65
2.70
3.41
3.66
3.45
2.91
2.27
1.76
1.57
1.83
2.53
3.54
4.62
5.51
6.05
6.18
6.00
5.71
5.49
5.40
5.41
5.43
5.34
5.12
4.77
4.33
3.79
3.14
2.34
1.38
0.31
-0.81
-1.95
-3.12
-4.37
-5.76
-7.22
-8.56
-9.52
-9.84
-9.47
-8.54
-7.37
-6.31
-5.60
-5.29
-5.26
-5.30
-5.21
-4.87
-4.21
-3.25
-2.09
-0.91
0.07
0.63
0.64
0.17
-0.56
-1.21
-1.49
-1.23
-0.44
0.67
1.85
2.82
3.46
3.81
4.09
4.60
5.57
7.03
8.77
10.43
11.62
12.11
11.90
11.19
10.34
9.75
9.75
10.57
12.32
14.92
18.15
21.66
25.17
28.47
31.53
34.24
36.09
35.75
30.95
19.04
-1.93
-31.83
-67.59
-103.43
-132.28
-147.75
-145.90
-126.05
-90.69
-44.65
5.87
54.28
94.49
121.96
134.71
133.83
123.18
108.17
93.90
83.70
78.46
77.09
77.46
77.52
75.93
72.19
66.45
59.31
51.58
44.13
37.79
33.18
30.51
29.45
29.24
28.91
27.73
25.47
22.44
19.33
16.78
15.04
13.91
12.86
11.38
9.22
6.42
3.22
-0.06
-3.23
-6.20
-9.03
-11.80
-14.62
-17.55
-20.66
-23.97
-27.43
-30.89
-34.13
-36.88
-38.90
-40.07
-40.44
-40.22
-39.65
-38.90
-38.02
-36.90
-35.41
-33.51
-31.31
-29.06
-27.01
-25.25
-23.70
-22.17
-20.50
-18.64
-16.71
-14.93
-13.47
-12.40
-11.67
-11.21
-10.97
-10.95
-11.21
-11.78
-12.67
-13.80
-15.03
-16.25
-17.35
-18.24
-18.91
-19.36
-19.65
-19.87
-20.14
-20.59
-21.30
-22.31
-23.59
-25.06
-26.64
-28.24
-29.79
-31.23
-32.48
-33.48
-34.19
-34.65
-34.95
-35.20
-35.45
-35.64
-35.62
-35.22
-34.37
-33.12
-31.63
-30.09
-28.59
-27.08
-25.42
-23.51
-21.34
-19.08
-16.93
-15.07
-13.51
-12.12
-10.72
-9.17
-7.51
-5.91
-4.62
-3.82
-3.59
-3.80
-4.23
-4.64
-4.89
-4.96
-4.94
-4.94
-5.01
-5.15
-5.24
-5.18
-4.92
-4.52
-4.10
-3.75
-3.54
-3.47
-3.50
-3.59
-3.77
-4.09
-4.58
-5.24
-5.95
-6.53
-6.78
-6.55
-5.84
-4.75
-3.51
-2.31
-1.29
-0.42
0.37
1.17
1.99
2.72
3.21
3.36
3.20
2.91
2.72
2.80
3.20
3.82
4.44
4.90
5.07
4.97
4.71
4.42
4.17
3.98
3.76
3.41
2.84
2.05
1.10
0.10
-0.88
-1.79
-2.67
-3.54
-4.42
-5.28
-6.00
-6.45
-6.48
-6.00
-5.01
-3.57
-1.83
0.07
1.98
3.79
5.40
6.77
7.89
8.78
9.49
10.02
10.37
10.44
10.17
9.55
8.65
7.65
6.72
5.99
5.47
5.14
4.97
4.97
5.20
5.67
6.30
6.97
7.56
7.96
8.18
8.23
8.15
7.96
7.72
7.58
7.71
8.27
9.25
10.46
11.55
12.27
12.66
13.17
14.43
16.93
20.66
25.06
29.35
33.04
36.30
39.75
43.98
48.86
53.30
55.80
55.19
51.33
45.01
37.30
28.74
19.19
8.44
-2.88
-12.89
-19.12
-19.96
-15.92
-9.87
-5.96
-7.61
-15.83
-28.80
-42.83
-54.08
-60.15
-60.55
-56.26
-48.81
-39.58
-29.60
-19.73
-10.76
-3.41
1.90
5.19
6.93
7.79
8.52
9.66
11.45
13.78
16.23
18.22
19.15
18.81
17.54
16.23
15.89
17.17
19.93
23.25
25.77
26.39
24.68
20.95
16.09
11.04
6.43
2.29
-1.93
-7.11
-14.00
-22.77
-32.91
-43.37
-53.05
-61.21
-67.79
-73.39
-78.85
-84.78
-91.13
-97.18
-101.84
-104.08
-103.43
-100.12
-95.12
-90.06
-87.18
-88.97
-97.44
-113.09
-133.88
-155.09
-170.25
-173.21
-160.41
-132.25
-92.93
-48.79
-6.06
31.10
61.19
84.90
103.91
119.79
133.52
145.45
155.74
164.50
171.85
177.80
182.06
184.16
183.55
180.04
174.00
166.33
158.22
150.76
144.49
139.29
134.60
129.76
124.49
119.11
114.42
111.42
110.74
112.38
115.55
118.90
121.01
120.90
118.32
113.79
108.28
102.73
97.65
92.89
87.79
81.41
72.93
61.97
48.65
33.65
17.87
2.22
-12.68
-26.55
-39.30
-50.91
-61.25
-70.20
-77.76
-84.21
-89.96
-95.35
-100.37
-104.60
-107.42
-108.42
-107.69
-105.79
-103.46
-101.25
-99.38
-97.73
-96.07
-94.28
-92.39
-90.47
-88.60
-86.82
-85.14
-83.55
-82.06
-80.64
-79.21
-77.67
-76.02
-74.35
-72.90
-71.99
-71.83
-72.41
-73.52
-74.83
-76.07
-77.12
-78.00
-78.80
-79.54
-80.14
-80.49
-80.60
-80.61
-80.67
-80.77
-80.58
-79.47
-76.75
-71.99
-65.13
-56.46
-46.41
-35.35
-23.57
-11.34
0.95
12.71
23.25
31.99
38.60
43.11
45.86
47.33
48.00
48.22
48.13
47.68
46.70
45.03
42.64
39.71
36.58
33.64
31.20
29.32
27.83
26.43
24.76
22.62
19.98
16.95
13.73
10.44
7.08
3.61
-0.02
-3.80
-7.66
-11.51
-15.37
-19.25
-23.13
-26.83
-29.97
-32.08
-32.78
-31.96
-29.76
-26.64
-23.04
-19.40
-15.97
-12.86
-10.08
-7.57
-5.29
-3.11
-0.94
1.34
3.81
6.48
9.30
12.15
14.85
17.23
19.14
20.48
21.23
21.42
21.13
20.46
19.45
18.19
16.72
15.08
13.36
11.63
9.96
8.38
6.89
5.44
3.94
2.29
0.39
-1.80
-4.25
-6.84
-9.42
-11.78
-13.75
-15.25
-16.30
-17.00
-17.46
-17.77
-17.88
-17.71
-17.08
-15.78
-13.65
-10.65
-6.98
-2.98
0.79
3.85
5.85
6.72
6.68
6.10
5.42
4.96
4.92
5.29
5.99
6.85
7.72
8.46
8.99
9.31
9.45
9.46
9.40
9.32
9.29
9.39
9.69
10.22
10.86
11.41
11.61
11.27
10.36
9.01
7.50
6.06
4.84
3.77
2.69
1.40
-0.20
-2.13
-4.35
-6.79
-9.38
-12.03
-14.56
-16.72
-18.22
-18.85
-18.57
-17.53
-15.93
-14.01
-11.86
-9.46
-6.77
-3.76
-0.52
2.72
5.66
8.06
9.75
10.80
11.37
11.67
11.85
11.97
11.98
11.84
11.56
11.19
10.81
10.45
10.07
9.58
8.86
7.78
6.28
4.35
2.03
-0.50
-3.03
-5.25
-6.90
-7.80
-7.89
-7.28
-6.20
-4.96
-3.81
-2.88
-2.15
-1.45
-0.61
0.48
1.79
3.19
4.55
5.79
7.00
8.30
9.82
11.56
13.49
15.49
17.55
19.70
22.05
24.63
27.39
30.12
32.49
34.14
34.74
34.09
32.14
29.03
25.07
20.74
16.62
13.28
11.17
10.49
11.15
12.81
14.93
16.90
18.16
18.30
17.05
14.41
10.57
5.92
0.95
-3.83
-7.98
-11.18
-13.31
-14.40
-14.68
-14.56
-14.54
-15.08
-16.50
-18.75
-21.45
-24.02
-25.86
-26.55
-26.01
-24.46
-22.23
-19.66
-17.00
-14.34
-11.69
-9.03
-6.32
-3.55
-0.69
2.21
5.07
7.76
10.12
12.07
13.56
14.59
15.21
15.51
15.61
15.60
15.52
15.35
14.95
14.22
13.08
11.64
10.13
8.84
8.02
7.70
7.73
7.78
7.52
6.75
5.45
3.83
2.13
0.61
-0.61
-1.53
-2.27
-2.94
-3.66
-4.52
-5.61
-7.04
-8.81
-10.85
-12.89
-14.61
-15.62
-15.64
-14.57
-12.54
-9.86
-6.91
-4.06
-1.52
0.66
2.56
4.27
5.82
7.18
8.26
9.04
9.60
10.08
10.61
11.25
11.92
12.49
12.81
12.82
12.57
12.15
11.69
11.31
11.03
10.79
10.47
9.92
9.04
7.83
6.39
4.89
3.49
2.25
1.12
0.01
-1.24
-2.71
-4.40
-6.20
-7.90
-9.26
-10.08
-10.22
-9.65
-8.43
-6.67
-4.53
-2.14
0.35
2.79
5.07
7.04
8.62
9.81
10.65
11.23
11.65
11.99
12.33
12.68
12.99
13.19
13.15
12.83
12.26
11.57
10.95
10.55
10.43
10.51
10.61
10.53
10.09
9.23
7.98
6.46
4.88
3.43
2.29
1.44
0.76
-0.05
-1.27
-3.13
-5.65
-8.66
-11.83
-14.72
-16.92
-18.12
-18.11
-16.89
-14.58
-11.46
-7.83
-4.01
-0.26
3.25
6.42
9.18
11.51
13.31
14.46
14.86
14.51
13.56
12.31
11.13
10.35
10.13
10.40
10.92
11.38
11.50
11.16
10.36
9.29
8.14
7.09
6.27
5.70
5.33
5.05
4.70
4.17
3.40
2.44
1.43
0.53
-0.11
-0.49
-0.72
-0.98
-1.52
-2.54
-4.17
-6.49
-9.43
-12.79
-16.14
-18.97
-20.75
-21.15
-20.14
-18.02
-15.23
-12.17
-9.08
-6.08
-3.21
-0.53
1.81
3.66
4.92
5.56
5.66
5.35
4.74
4.01
3.37
3.03
3.16
3.84
5.01
6.52
8.14
9.67
11.00
12.07
12.92
13.62
14.26
14.84
15.32
15.54
15.31
14.45
12.94
10.88
8.52
6.14
3.93
1.93
0.12
-1.57
-3.18
-4.62
-5.75
-6.42
-6.58
-6.26
-5.63
-4.88
-4.12
-3.32
-2.24
-0.54
2.08
5.69
9.91
14.02
17.10
18.51
18.22
16.93
15.84
16.01
17.90
21.02
24.31
26.64
27.46
26.99
25.99
25.23
25.19
26.03
27.82
30.59
34.14
37.53
39.08
36.94
30.43
21.12
12.98
11.08
19.27
38.08
64.07
91.01
112.38
123.81
124.40
116.31
103.26
88.71
74.93
62.80
52.49
44.09
37.86
34.16
32.99
33.80
35.43
36.59
36.17
33.68
29.34
23.88
18.23
13.11
8.77
4.91
0.84
-4.17
-10.51
-17.99
-25.89
-33.21
-39.13
-43.39
-46.32
-48.60
-50.84
-53.21
-55.35
-56.62
-56.48
-54.78
-51.91
-48.53
-45.35
-42.75
-40.74
-39.04
-37.35
-35.43
-33.23
-30.68
-27.59
-23.66
-18.55
-12.14
-4.64
3.55
12.00
20.55
29.36
38.81
49.17
60.30
71.64
82.22
91.02
97.00
99.27
97.11
90.15
78.47
62.91
44.99
26.67
9.83
-4.28
-15.25
-23.52
-29.95
-35.41
-40.41
-45.01
-49.03
-52.33
-55.01
-57.47
-60.10
-63.13
-66.39
-69.48
-72.06
-74.24
-76.65
-80.18
-85.40
-92.11
-99.22
-105.19
-108.70
-109.25
-107.23
-103.53
-98.87
-93.38
-86.56
-77.65
-66.09
-51.86
-35.56
-18.18
-0.92
15.16
29.19
40.78
50.22
58.45
66.90
76.87
88.97
102.62
116.13
127.18
133.62
134.11
128.71
118.97
107.77
98.83
95.49
99.49
109.71
121.96
130.03
127.89
112.15
83.55
46.67
7.86
-27.20
-55.24
-75.58
-89.04
-96.69
-99.11
-96.83
-91.09
-84.33
-79.70
-79.82
-85.65
-95.91
-107.75
-118.09
-124.98
-128.34
-129.61
-130.76
-133.07
-136.50
-139.72
-140.83
-138.26
-131.49
-121.06
-108.25
-94.49
-80.90
-68.18
-56.69
-46.50
-37.50
-29.45
-21.95
-14.63
-7.33
-0.14
6.69
12.83
18.00
22.06
24.91
26.43
26.56
25.40
23.29
20.85
18.83
17.84
18.12
19.52
21.56
23.71
25.61
27.10
28.24
29.11
29.77
30.24
30.55
30.75
30.77
30.32
28.79
25.50
20.05
12.76
4.71
-2.59
-7.94
-11.04
-12.70
-14.49
-17.88
-23.34
-30.07
-36.25
-40.07
-40.53
-38.00
-33.94
-30.15
-27.89
-27.38
-27.95
-28.48
-28.13
-26.68
-24.54
-22.34
-20.60
-19.50
-18.84
-18.29
-17.52
-16.25
-14.31
-11.52
-7.78
-3.10
2.25
7.64
12.14
14.78
14.98
13.09
10.51
9.33
11.59
18.22
28.47
40.06
50.03
55.78
56.02
51.01
42.26
31.89
21.97
14.11
9.22
7.46
8.17
10.04
11.32
10.30
5.92
-1.86
-12.02
-22.82
-32.46
-39.65
-44.04
-46.11
-46.87
-47.31
-48.01
-48.95
-49.72
-49.90
-49.29
-48.10
-46.75
-45.68
-45.06
-44.70
-44.14
-42.82
-40.32
-36.45
-31.33
-25.28
-18.76
-12.24
-6.20
-0.99
3.23
6.56
9.47
12.66
16.74
22.01
28.21
34.58
40.17
44.17
46.21
46.38
45.02
42.48
38.98
34.55
29.25
23.25
16.83
10.37
4.15
-1.67
-7.00
-11.77
-15.82
-18.90
-20.69
-21.00
-19.79
-17.26
-13.79
-9.76
-5.45
-0.89
3.99
9.22
14.44
18.96
21.92
22.69
21.25
18.29
14.98
12.51
11.71
12.78
15.41
18.94
22.59
25.72
27.87
28.80
28.57
27.54
26.20
25.09
24.53
24.51
24.81
25.10
25.07
24.55
23.40
21.49
18.69
14.87
10.00
4.16
-2.52
-9.89
-17.87
-26.29
-34.89
-43.22
-50.83
-57.46
-63.10
-68.02
-72.46
-76.38
-79.46
-81.27
-81.61
-80.68
-78.93
-76.70
-73.89
-70.00
-64.35
-56.47
-46.28
-34.00
-20.04
-4.90
10.77
26.13
40.34
52.89
63.84
73.74
83.10
91.74
98.50
101.68
100.07
93.93
85.41
77.66
73.58
74.33
78.89
84.60
88.56
88.90
85.25
78.08
67.60
53.32
34.70
12.43
-10.58
-29.96
-41.78
-44.84
-41.36
-35.80
-32.16
-31.77
-32.91
-32.50
-28.68
-22.35
-16.68
-14.92
-18.01
-23.87
-28.57
-28.84
-23.84
-15.66
-7.88
-3.63
-4.10
-8.06
-12.94
-16.17
-16.49
-14.20
-10.54
-6.72
-3.08
1.00
6.63
14.57
24.63
35.62
45.73
53.24
57.16
57.47
54.99
50.80
45.81
40.41
34.52
27.92
20.56
12.74
5.11
-1.62
-6.90
-10.55
-12.79
-14.05
-14.89
-15.72
-16.71
-17.78
-18.66
-19.05
-18.78
-17.91
-16.63
-15.24
-13.90
-12.63
-11.28
-9.74
-7.97
-6.10
-4.38
-2.98
-1.98
-1.29
-0.77
-0.30
0.17
0.59
0.86
0.97
0.95
0.87
0.82
0.79
0.74
0.61
0.38
0.13
-0.03
-0.04
0.06
0.05
-0.30
-1.18
-2.51
-4.07
-5.45
-6.30
-6.44
-5.88
-4.78
-3.37
-1.87
-0.41
0.91
2.02
2.88
3.50
3.94
4.33
4.76
5.24
5.68
5.92
5.84
5.43
4.83
4.24
3.80
3.53
3.33
3.05
2.61
2.00
1.32
0.64
0.06
-0.42
-0.83
-1.19
-1.52
-1.89
-2.35
-2.93
-3.65
-4.42
-5.10
-5.53
-5.60
-5.29
-4.66
-3.85
-2.92
-1.96
-0.96
0.11
1.22
2.33
3.34
4.15
4.69
4.96
5.01
4.90
4.71
4.44
4.13
3.75
3.35
2.98
2.74
2.72
2.97
3.40
3.84
4.07
3.91
3.34
2.46
1.48
0.61
-0.04
-0.48
-0.84
-1.27
-1.86
-2.62
-3.46
-4.26
-4.90
-5.30
-5.42
-5.27
-4.89
-4.34
-3.65
-2.84
-1.95
-1.00
-0.06
0.78
1.42
1.78
1.86
1.73
1.52
1.36
1.30
1.31
1.33
1.26
1.07
0.81
0.58
0.46
0.47
0.53
0.50
0.23
-0.35
-1.16
-2.07
-2.90
-3.54
-4.01
-4.40
-4.81
-5.28
-5.75
-6.05
-6.04
-5.58
-4.62
-3.23
-1.55
0.25
1.92
3.25
4.06
4.30
4.05
3.56
3.11
2.92
3.05
3.34
3.57
3.52
3.14
2.59
2.18
2.28
3.07
4.48
6.09
7.37
7.84
7.30
5.97
4.36
3.07
2.55
2.96
4.09
5.47
6.55
6.87
6.23
4.69
2.57
0.31
-1.64
-2.95
-3.51
-3.36
-2.65
-1.53
-0.19
1.17
2.31
2.98
2.99
2.35
1.26
0.06
-0.83
-1.14
-0.72
0.35
1.84
3.47
4.95
6.06
6.59
6.44
5.64
4.32
2.70
1.03
-0.51
-1.84
-2.96
-3.85
-4.45
-4.62
-4.23
-3.29
-1.96
-0.42
1.19
2.97
5.15
7.92
11.18
14.45
17.01
18.22
17.89
16.25
13.90
11.42
9.17
7.31
5.89
5.11
5.20
6.31
8.22
10.29
11.59
11.32
9.18
5.48
1.02
-3.35
-6.96
-9.59
-11.36
-12.52
-13.25
-13.55
-13.37
-12.66
-11.56
-10.32
-9.18
-8.22
-7.28
-6.12
-4.53
-2.53
-0.31
1.76
3.37
4.36
4.68
4.44
3.77
2.86
1.82
0.71
-0.52
-2.03
-3.97
-6.40
-9.11
-11.71
-13.69
-14.67
-14.57
-13.59
-12.16
-10.71
-9.53
-8.65
-7.95
-7.31
-6.66
-6.07
-5.63
-5.41
-5.33
-5.31
-5.24
-5.15
-5.13
-5.30
-5.72
-6.26
-6.67
-6.67
-6.08
-4.88
-3.17
-1.15
0.96
2.95
4.66
5.98
6.90
7.52
8.00
8.50
9.09
9.69
10.02
9.85
8.98
7.49
5.63
3.75
2.16
0.96
0.01
-0.95
-2.20
-3.92
-6.13
-8.67
-11.33
-13.82
-15.89
-17.38
-18.22
-18.48
-18.37
-18.12
-18.01
-18.25
-18.91
-19.94
-21.18
-22.44
-23.57
-24.49
-25.22
-25.89
-26.64
-27.63
-29.00
-30.78
-32.95
-35.30
-37.60
-39.62
-41.33
-42.98
-44.90
-47.28
-49.78
-51.39
-50.73
-46.68
-39.11
-29.30
-19.60
-12.47
-9.34
-10.05
-13.00
-16.13
-18.11
-18.94
-19.84
-22.54
-28.34
-37.70
-50.08
-64.00
-76.97
-85.41
-85.13
-72.51
-46.14
-8.10
35.84
77.55
108.91
124.34
122.40
105.84
80.18
51.71
25.43
3.96
-12.64
-26.00
-38.09
-49.83
-60.36
-67.42
-68.61
-62.95
-51.66
-37.75
-24.49
-13.82
-5.44
2.69
13.00
26.82
43.58
61.28
77.71
91.67
103.39
114.04
124.61
135.12
144.37
150.62
152.44
149.53
142.80
133.96
124.81
116.49
109.21
102.32
94.77
85.67
74.72
62.37
49.76
38.32
29.30
23.29
20.04
18.53
17.40
15.48
12.21
7.63
2.27
-3.28
-8.62
-13.67
-18.47
-23.03
-27.24
-30.85
-33.69
-35.73
-37.13
-38.05
-38.49
-38.20
-36.75
-33.89
-29.80
-25.25
-21.34
-19.10
-18.96
-20.61
-23.05
-25.12
-25.91
-25.08
-22.87
-19.79
-16.38
-12.98
-9.75
-6.75
-4.09
-1.96
-0.49
0.27
0.48
0.40
0.37
0.57
0.97
1.36
1.48
1.17
0.50
-0.26
-0.74
-0.62
0.22
1.67
3.48
5.28
6.76
7.67
7.91
7.50
6.59
5.38
4.00
2.54
1.02
-0.56
-2.18
-3.74
-5.13
-6.28
-7.22
-8.07
-8.94
-9.92
-10.93
-11.88
-12.60
-12.98
-12.98
-12.58
-11.85
-10.83
-9.61
-8.28
-6.92
-5.60
-4.33
-3.14
-2.05
-1.07
-0.24
0.43
0.95
1.32
1.58
1.72
1.76
1.73
1.67
1.65
1.68
1.78
1.86
1.78
1.42
0.67
-0.46
-1.92
-3.58
-5.29
-6.88
-8.18
-9.04
-9.31
-8.95
-8.03
-6.76
-5.43
-4.31
-3.57
-3.18
-3.00
-2.84
-2.56
-2.17
-1.74
-1.38
-1.14
-1.00
-0.87
-0.73
-0.58
-0.50
-0.54
-0.71
-0.96
-1.17
-1.29
-1.29
-1.28
-1.37
-1.69
-2.34
-3.31
-4.49
-5.64
-6.44
-6.55
-5.89
-4.63
-3.22
-2.19
-1.88
-2.20
-2.73
-2.91
-2.35
-1.14
0.20
0.96
0.54
-1.21
-3.93
-6.94
-9.47
-11.06
-11.70
-11.82
-12.11
-13.16
-15.34
-18.63
-22.63
-26.59
-29.39
-29.61
-25.96
-17.85
-5.96
7.56
19.57
27.02
28.21
23.57
15.49
7.35
2.14
1.53
5.69
13.74
24.34
36.05
47.46
57.06
63.56
66.22
65.39
62.70
60.55
61.15
65.43
72.52
79.89
84.37
83.36
75.68
61.79
43.48
23.44
4.76
-9.36
-16.36
-15.11
-6.75
5.39
16.83
23.74
24.59
20.56
14.52
9.11
5.14
1.30
-4.59
-13.84
-25.66
-37.28
-45.47
-48.15
-45.35
-38.92
-31.54
-25.38
-21.44
-19.47
-18.52
-17.68
-16.57
-15.55
-15.38
-16.77
-19.89
-24.14
-28.44
-31.65
-33.26
-33.69
-34.21
-36.37
-41.23
-48.84
-58.20
-67.74
-76.03
-82.23
-86.09
-87.57
-86.39
-82.01
-73.89
-62.17
-48.01
-33.44
-20.70
-11.31
-5.51
-2.33
-0.15
2.45
6.09
10.57
15.27
19.58
23.30
26.57
29.63
32.51
34.96
36.47
36.61
35.19
32.49
29.24
26.33
24.49
23.95
24.36
25.01
25.25
24.80
23.81
22.77
22.04
21.66
21.34
20.65
19.34
17.50
15.56
14.02
13.20
13.07
13.28
13.41
13.15
12.41
11.38
10.33
9.50
9.03
8.92
9.08
9.39
9.71
9.88
9.78
9.28
8.33
6.97
5.30
3.54
1.89
0.56
-0.29
-0.55
-0.21
0.60
1.64
2.59
3.14
3.14
2.62
1.75
0.82
0.06
-0.50
-0.96
-1.57
-2.51
-3.73
-4.95
-5.77
-5.83
-5.13
-4.07
-3.36
-3.77
-5.80
-9.44
-14.14
-19.06
-23.33
-26.46
-28.45
-29.74
-30.99
-32.60
-34.49
-36.01
-36.14
-33.88
-28.78
-21.32
-12.99
-5.94
-2.24
-3.12
-8.34
-16.07
-23.30
-26.64
-23.59
-13.65
1.07
16.14
26.35
27.62
18.75
1.92
-18.00
-35.20
-44.83
-44.42
-34.50
-18.37
-1.21
11.21
14.34
6.45
-10.61
-31.92
-51.33
-63.89
-67.55
-63.52
-54.98
-45.34
-36.90
-30.71
-27.03
-25.89
-27.08
-29.74
-32.01
-31.35
-25.37
-12.99
4.79
25.11
44.08
58.11
65.13
65.17
60.22
53.37
47.72
45.38
46.99
51.77
58.06
64.04
68.38
70.53
70.64
69.31
67.21
64.83
62.40
59.85
57.03
53.83
50.32
46.73
43.36
40.40
37.87
35.64
33.48
31.23
28.80
26.18
23.38
20.36
16.99
13.19
8.94
4.39
-0.24
-4.67
-8.73
-12.35
-15.63
-18.75
-21.94
-25.36
-29.14
-33.28
-37.70
-42.19
-46.46
-50.13
-52.72
-53.74
-52.78
-49.68
-44.55
-37.87
-30.27
-22.41
-14.75
-7.46
-0.50
6.21
12.64
18.52
23.48
27.15
29.38
30.20
29.83
28.53
26.62
24.44
22.40
20.89
20.10
19.93
19.87
19.29
17.78
15.36
12.60
10.23
8.85
8.55
8.98
9.59
10.03
10.38
11.07
12.56
15.03
18.27
21.75
25.01
27.86
30.52
33.46
37.13
41.68
46.79
51.74
55.74
58.26
59.37
59.80
60.71
63.22
68.07
75.28
84.21
93.89
103.38
112.05
119.51
125.63
130.24
133.42
135.56
137.45
139.87
142.78
144.77
143.13
135.13
119.60
98.10
74.53
53.41
37.86
28.51
23.93
22.11
21.65
22.00
22.67
22.54
19.88
13.26
2.62
-10.44
-23.42
-34.26
-42.27
-48.20
-53.46
-59.21
-65.95
-73.75
-82.49
-92.02
-101.97
-111.87
-121.22
-129.95
-138.42
-147.19
-156.40
-165.43
-172.98
-177.67
-178.72
-176.25
-171.23
-164.81
-157.83
-150.49
-142.57
-133.96
-125.08
-116.90
-110.47
-106.22
-103.45
-100.49
-95.39
-86.86
-75.07
-61.59
-48.71
-38.30
-30.96
-25.67
-20.30
-12.62
-1.28
13.64
30.67
47.63
62.46
73.71
80.71
83.31
81.49
75.41
65.29
51.39
33.84
12.59
-12.40
-40.50
-69.75
-96.76
-117.41
-128.32
-128.26
-118.81
-103.68
-87.31
-73.41
-64.07
-59.51
-58.15
-57.02
-52.40
-41.01
-21.56
4.06
31.09
53.47
66.47
68.56
61.64
49.70
36.62
24.76
14.70
6.29
-0.42
-4.81
-6.28
-5.09
-2.67
-1.19
-2.72
-8.25
-17.29
-28.17
-38.74
-47.16
-52.51
-54.87
-55.11
-54.39
-53.56
-52.85
-51.81
-49.67
-45.69
-39.69
-32.10
-23.88
-16.19
-9.92
-5.50
-2.81
-1.43
-0.81
-0.55
-0.46
-0.49
-0.68
-0.95
-1.19
-1.25
-1.07
-0.77
-0.59
-0.79
-1.47
-2.58
-3.83
-4.87
-5.38
-5.21
-4.32
-2.85
-1.01
0.96
2.80
4.32
5.42
6.14
6.68
7.29
8.23
9.60
11.37
13.30
15.07
16.38
16.96
16.62
15.32
13.18
10.44
7.45
4.51
1.83
-0.55
-2.70
-4.68
-6.48
-7.90
-8.69
-8.66
-7.96
-7.02
-6.58
-7.35
-9.66
-13.22
-17.18
-20.37
-21.74
-20.78
-17.65
-13.09
-8.15
-3.87
-1.10
-0.44
-2.19
-6.20
-11.79
-17.82
-23.01
-26.39
-27.85
-28.21
-28.82
-30.82
-34.46
-38.80
-42.18
-43.08
-40.98
-36.65
-31.66
-27.42
-24.40
-21.90
-18.53
-13.11
-5.28
4.43
15.03
25.72
36.23
46.62
57.02
67.27
76.98
85.62
92.75
98.14
101.82
104.05
105.18
105.46
104.74
102.30
97.02
87.78
74.20
57.01
37.95
19.15
2.29
-11.96
-23.77
-33.65
-41.88
-48.23
-52.28
-53.84
-53.32
-51.66
-49.90
-48.83
-48.64
-49.02
-49.33
-48.90
-47.15
-43.71
-38.37
-31.13
-22.27
-12.30
-1.98
7.81
16.24
22.64
26.66
28.30
27.95
26.32
24.35
22.98
22.90
24.39
27.30
31.17
35.38
39.33
42.49
44.47
44.97
43.85
41.16
37.16
32.33
27.23
22.41
18.38
15.54
14.25
14.73
17.01
20.71
25.06
28.93
31.17
30.97
28.16
23.15
16.75
9.82
3.05
-3.15
-8.47
-12.57
-15.15
-16.07
-15.57
-14.32
-13.25
-13.21
-14.63
-17.49
-21.37
-25.78
-30.27
-34.53
-38.33
-41.45
-43.64
-44.77
-44.81
-43.82
-41.80
-38.67
-34.32
-28.80
-22.57
-16.39
-11.14
-7.40
-5.12
-3.76
-2.56
-1.05
0.69
2.13
2.70
2.18
0.89
-0.52
-1.49
-1.87
-1.91
-1.95
-2.07
-1.98
-1.17
0.60
2.99
5.08
5.86
4.78
2.13
-0.96
-3.16
-3.47
-1.73
1.46
5.08
8.19
10.27
11.20
11.15
10.40
9.34
8.40
8.05
8.59
9.93
11.55
12.61
12.40
10.61
7.53
3.85
0.38
-2.29
-3.80
-4.03
-2.95
-0.60
2.76
6.65
10.37
13.24
14.91
15.41
15.20
14.78
14.61
14.83
15.36
15.96
16.34
16.26
15.60
14.47
13.34
12.95
14.05
17.09
21.85
27.43
32.51
35.87
36.88
35.61
32.73
29.00
25.01
21.00
16.99
13.06
9.47
6.67
5.05
4.72
5.31
6.13
6.37
5.49
3.49
0.81
-1.80
-3.72
-4.77
-5.23
-5.70
-6.70
-8.30
-10.00
-10.88
-9.97
-6.81
-1.72
4.26
9.72
13.45
14.87
14.27
12.49
10.63
9.51
9.48
10.41
11.96
13.76
15.58
17.23
18.52
19.19
19.00
17.89
16.09
13.95
11.85
9.85
7.73
5.08
1.70
-2.23
-6.11
-9.18
-10.93
-11.22
-10.28
-8.38
-5.64
-1.94
2.86
8.61
14.84
20.83
25.95
29.94
32.84
34.76
35.54
34.71
31.67
26.13
18.33
9.09
-0.38
-8.85
-15.29
-19.00
-19.65
-17.35
-12.68
-6.70
-0.71
3.98
6.40
6.14
3.32
-1.53
-7.71
-14.42
-20.90
-26.44
-30.55
-33.04
-34.00
-33.73
-32.49
-30.39
-27.33
-23.24
-18.25
-12.78
-7.54
-3.15
0.01
2.02
3.28
4.29
5.36
6.53
7.62
8.42
8.81
8.79
8.44
7.78
6.78
5.37
3.51
1.22
-1.44
-4.36
-7.43
-10.46
-13.20
-15.31
-16.44
-16.34
-15.00
-12.69
-9.86
-7.10
-4.90
-3.53
-3.00
-3.01
-3.09
-2.74
-1.60
0.46
3.32
6.65
10.05
13.11
15.52
17.02
17.54
17.12
16.01
14.54
13.09
11.96
11.23
10.83
10.54
10.14
9.43
8.40
7.09
5.65
4.17
2.68
1.14
-0.58
-2.63
-5.03
-7.64
-10.17
-12.21
-13.38
-13.48
-12.51
-10.65
-8.16
-5.30
-2.26
0.82
3.79
6.55
9.01
11.13
12.84
14.07
14.69
14.59
13.79
12.41
10.80
9.28
8.12
7.38
6.99
6.82
6.77
6.79
6.85
6.88
6.75
6.33
5.53
4.39
3.05
1.66
0.41
-0.61
-1.41
-2.13
-3.05
-4.47
-6.51
-9.10
-11.82
-14.14
-15.56
-15.83
-14.99
-13.29
-11.05
-8.52
-5.84
-3.07
-0.28
2.39
4.82
6.91
8.63
10.03
11.12
11.89
12.25
12.20
11.77
11.10
10.34
9.59
8.88
8.19
7.51
6.85
6.24
5.71
5.15
4.45
3.46
2.16
0.66
-0.88
-2.28
-3.48
-4.57
-5.73
-7.12
-8.80
-10.64
-12.30
-13.32
-13.27
-11.93
-9.38
-6.01
-2.38
0.92
3.50
5.22
6.22
6.72
7.00
7.22
7.43
7.59
7.59
7.35
6.80
5.93
4.79
3.47
2.07
0.75
-0.38
-1.27
-1.95
-2.61
-3.53
-5.00
-7.18
-9.91
-12.75
-15.11
-16.45
-16.60
-15.77
-14.46
-13.12
-11.97
-10.84
-9.36
-7.19
-4.20
-0.55
3.48
7.62
11.73
15.74
19.62
23.13
25.95
27.69
28.07
27.07
24.97
22.21
19.33
16.80
14.87
13.65
13.05
12.84
12.76
12.53
11.96
11.02
9.74
8.27
6.72
5.12
3.42
1.55
-0.52
-2.76
-5.05
-7.32
-9.48
-11.48
-13.21
-14.49
-15.03
-14.59
-13.09
-10.71
-7.81
-4.88
-2.26
-0.10
1.69
3.27
4.67
5.77
6.34
6.15
5.20
3.74
2.21
1.03
0.43
0.37
0.62
0.89
0.95
0.76
0.40
-0.03
-0.46
-0.92
-1.54
-2.42
-3.64
-5.13
-6.75
-8.35
-9.80
-11.03
-11.99
-12.61
-12.82
-12.54
-11.74
-10.43
-8.69
-6.59
-4.25
-1.77
0.71
3.04
5.08
6.73
7.97
8.81
9.32
9.56
9.60
9.50
9.32
9.10
8.88
8.64
8.38
8.13
7.91
7.75
7.61
7.39
7.02
6.46
5.75
4.97
4.18
3.37
2.45
1.31
-0.09
-1.69
-3.39
-5.05
-6.65
-8.19
-9.66
-10.99
-11.97
-12.35
-11.91
-10.63
-8.62
-6.20
-3.66
-1.24
0.94
2.85
4.48
5.82
6.82
7.44
7.70
7.65
7.39
7.02
6.64
6.31
6.10
6.04
6.13
6.38
6.69
6.98
7.17
7.16
6.90
6.35
5.54
4.51
3.37
2.25
1.24
0.33
-0.50
-1.38
-2.42
-3.75
-5.41
-7.41
-9.64
-11.91
-13.96
-15.48
-16.26
-16.13
-15.12
-13.36
-11.11
-8.57
-5.92
-3.30
-0.79
1.53
3.54
5.15
6.30
6.98
7.29
7.35
7.31
7.30
7.34
7.42
7.52
7.61
7.67
7.72
7.75
7.76
7.71
7.53
7.18
6.63
5.90
5.07
4.24
3.47
2.77
2.12
1.44
0.64
-0.36
-1.61
-3.12
-4.86
-6.79
-8.81
-10.78
-12.50
-13.69
-14.11
-13.59
-12.19
-10.13
-7.78
-5.45
-3.31
-1.35
0.52
2.41
4.25
5.87
7.09
7.80
8.08
8.09
8.03
8.01
8.02
7.95
7.73
7.34
6.88
6.46
6.17
6.01
5.90
5.74
5.47
5.05
4.52
3.91
3.25
2.51
1.67
0.74
-0.28
-1.37
-2.51
-3.74
-5.09
-6.57
-8.13
-9.59
-10.68
-11.12
-10.73
-9.50
-7.61
-5.35
-3.03
-0.86
1.09
2.84
4.42
5.84
7.03
7.90
8.40
8.54
8.37
8.00
7.51
6.98
6.50
6.20
6.13
6.31
6.63
6.91
6.96
6.66
6.00
5.05
3.94
2.73
1.47
0.09
-1.41
-3.06
-4.82
-6.64
-8.43
-10.05
-11.32
-12.03
-12.00
-11.15
-9.59
-7.57
-5.42
-3.42
-1.68
-0.19
1.17
2.51
3.82
4.94
5.66
5.87
5.59
5.02
4.39
3.92
3.66
3.55
3.46
3.27
2.91
2.37
1.67
0.82
-0.14
-1.24
-2.45
-3.81
-5.35
-7.06
-8.91
-10.76
-12.41
-13.63
-14.22
-14.10
-13.26
-11.85
-10.00
-7.87
-5.56
-3.15
-0.72
1.63
3.74
5.43
6.54
7.03
6.95
6.47
5.81
5.14
4.60
4.30
4.26
4.50
4.99
5.65
6.35
6.96
7.37
7.52
7.37
6.85
5.83
4.24
2.07
-0.52
-3.21
-5.63
-7.47
-8.55
-8.79
-8.30
-7.24
-5.81
-4.22
-2.69
-1.37
-0.36
0.37
0.93
1.44
2.00
2.64
3.31
3.92
4.41
4.71
4.80
4.69
4.43
4.10
3.75
3.41
3.08
2.65
2.06
1.28
0.33
-0.71
-1.75
-2.74
-3.69
-4.68
-5.77
-6.96
-8.17
-9.26
-10.05
-10.40
-10.24
-9.57
-8.45
-7.00
-5.35
-3.63
-1.93
-0.30
1.29
2.85
4.40
5.87
7.16
8.12
8.63
8.70
8.43
8.06
7.77
7.68
7.72
7.74
7.53
7.03
6.30
5.53
4.89
4.45
4.13
3.75
3.11
2.14
0.88
-0.49
-1.79
-2.95
-3.97
-4.98
-6.01
-6.97
-7.65
-7.79
-7.26
-6.12
-4.62
-3.02
-1.51
-0.10
1.28
2.71
4.13
5.36
6.22
6.56
6.42
5.89
5.12
4.21
3.20
2.09
0.92
-0.25
-1.30
-2.18
-2.88
-3.47
-4.08
-4.85
-5.87
-7.17
-8.72
-10.46
-12.26
-13.99
-15.47
-16.57
-17.23
-17.49
-17.47
-17.31
-17.12
-16.79
-16.15
-14.96
-13.14
-10.80
-8.22
-5.77
-3.63
-1.78
0.09
2.37
5.41
9.39
14.22
19.63
25.16
30.28
34.45
37.30
38.65
38.67
37.77
36.52
35.44
34.83
34.71
34.87
34.97
34.65
33.66
31.87
29.28
26.00
22.19
18.07
13.75
9.38
5.00
0.73
-3.26
-6.68
-9.24
-10.70
-11.00
-10.28
-8.90
-7.30
-5.94
-5.12
-5.01
-5.57
-6.63
-7.87
-8.98
-9.68
-9.81
-9.36
-8.45
-7.27
-6.06
-5.05
-4.40
-4.23
-4.60
-5.44
-6.61
-7.88
-8.99
-9.71
-9.91
-9.60
-8.94
-8.14
-7.45
-7.05
-7.02
-7.32
-7.86
-8.46
-8.96
-9.22
-9.16
-8.76
-8.07
-7.15
-6.04
-4.79
-3.40
-1.92
-0.44
0.88
1.86
2.37
2.38
1.98
1.39
0.81
0.42
0.27
0.30
0.41
0.49
0.48
0.37
0.17
-0.18
-0.73
-1.53
-2.58
-3.79
-5.05
-6.22
-7.24
-8.07
-8.68
-9.00
-8.92
-8.32
-7.13
-5.40
-3.32
-1.16
0.80
2.36
3.48
4.20
4.64
4.91
5.04
4.99
4.74
4.29
3.74
3.19
2.72
2.30
1.88
1.33
0.63
-0.14
-0.85
-1.38
-1.73
-2.02
-2.47
-3.25
-4.40
-5.78
-7.14
-8.17
-8.67
-8.59
-7.99
-7.06
-5.96
-4.83
-3.73
-2.68
-1.67
-0.75
0.06
0.73
1.20
1.49
1.62
1.63
1.57
1.50
1.44
1.42
1.45
1.48
1.46
1.29
0.92
0.36
-0.30
-0.93
-1.47
-1.90
-2.38
-3.04
-3.94
-5.02
-6.03
-6.73
-6.90
-6.47
-5.50
-4.14
-2.56
-0.88
0.76
2.27
3.51
4.35
4.74
4.77
4.58
4.38
4.27
4.28
4.27
4.09
3.64
2.93
2.06
1.17
0.36
-0.30
-0.83
-1.23
-1.52
-1.69
-1.80
-1.93
-2.22
-2.81
-3.76
-5.02
-6.41
-7.71
-8.67
-9.12
-9.01
-8.42
-7.45
-6.23
-4.84
