1513827919.00
64.000000
-0.00
-0.00
-0.00
-0.00
-0.00
-0.00
-0.00
-0.00
-0.00
-0.00
0.00
0.01
0.01
-0.00
-0.03
-0.05
-0.05
0.00
0.13
0.36
0.66
1.01
1.37
1.72
2.06
2.40
2.79
3.24
3.80
4.42
5.06
5.66
6.20
6.68
7.15
7.68
8.31
9.14
10.09
11.04
11.88
12.56
13.14
13.76
14.65
15.96
17.91
20.32
22.90
25.38
27.58
29.57
31.68
34.32
37.81
42.54
48.15
54.10
59.83
64.97
69.58
74.14
79.34
85.71
93.76
103.00
112.62
121.73
129.77
136.75
143.30
150.75
157.77
166.64
177.95
191.79
206.97
220.57
228.24
225.36
208.53
176.87
132.78
80.08
23.11
-34.92
-92.46
-149.28
-205.46
-260.72
-314.18
-364.35
-410.31
-451.37
-486.96
-516.23
-537.80
-549.91
-550.77
-539.25
-515.11
-479.55
-434.71
-383.29
-327.96
-270.99
-214.07
-158.37
-104.84
-54.29
-7.73
33.85
69.66
99.29
122.85
140.94
154.49
164.41
171.46
175.97
178.00
177.45
174.32
168.89
161.76
153.73
145.57
137.80
130.46
123.23
115.59
107.11
97.72
87.78
77.96
68.95
61.16
54.58
48.81
43.25
37.31
30.50
22.51
13.40
3.86
-4.56
-9.67
-9.38
-2.63
9.80
25.25
40.12
51.19
56.83
57.39
54.61
50.60
46.82
43.71
41.03
38.30
35.35
32.36
29.66
27.45
25.69
24.12
22.31
20.01
17.19
14.14
11.33
9.18
7.82
6.99
6.34
5.59
4.87
4.53
4.92
6.02
7.33
8.11
7.75
6.12
3.65
0.98
-1.30
-2.98
-4.11
-4.84
-5.23
-5.23
-4.77
-3.97
-3.12
-2.58
-2.64
-3.33
-4.51
-5.78
-6.70
-6.89
-6.20
-4.72
-2.77
-0.82
0.75
1.68
1.98
1.80
1.35
0.85
0.46
0.31
0.50
1.01
1.73
2.47
3.04
3.39
3.59
3.81
4.20
4.77
5.41
5.96
6.36
6.64
6.94
7.38
7.93
8.51
8.93
9.04
8.76
8.13
7.21
6.01
4.60
2.85
0.73
-1.69
-4.25
-6.72
-8.86
-10.51
-11.66
-12.42
-12.92
-13.24
-13.34
-13.06
-12.27
-10.93
-9.19
-7.36
-5.77
-4.70
-4.22
-4.26
-4.65
-5.20
-5.79
-6.34
-6.82
-7.19
-7.41
-7.46
-7.35
-7.13
-6.88
-6.66
-6.49
-6.34
-6.19
-6.01
-5.81
-5.63
-5.54
-5.63
-5.91
-6.39
-6.98
-7.58
-8.12
-8.57
-8.94
-9.32
-9.81
-10.45
-11.25
-12.14
-13.06
-13.92
-14.70
-15.41
-16.06
-16.71
-17.33
-17.84
-18.03
-17.60
-16.19
-13.56
-9.59
-4.46
1.40
7.37
12.84
17.38
20.84
23.34
25.19
26.68
28.07
29.40
30.64
31.66
32.37
32.74
32.81
32.69
32.39
31.88
31.06
29.83
28.19
26.23
24.15
22.05
19.91
17.56
14.78
11.44
7.58
3.37
-0.95
-5.18
-9.24
-13.11
-16.71
-19.90
-22.53
-24.47
-25.79
-26.72
-27.59
-28.69
-30.07
-31.60
-32.94
-33.77
-33.81
-32.93
-31.17
-28.66
-25.64
-22.39
-19.21
-16.31
-13.80
-11.63
-9.64
-7.63
-5.43
-2.94
-0.12
3.06
6.59
10.47
14.63
18.93
23.19
27.21
30.79
33.74
35.90
37.12
37.36
36.68
35.27
33.40
31.34
29.31
27.38
25.51
23.58
21.43
18.93
16.01
12.70
9.10
5.35
1.55
-2.27
-6.07
-9.72
-12.97
-15.48
-16.97
-17.27
-16.52
-15.11
-13.57
-12.40
-11.87
-11.97
-12.50
-13.17
-13.69
-13.87
-13.66
-13.10
-12.21
-10.98
-9.33
-7.34
-5.10
-2.68
-0.10
2.63
5.46
8.28
10.87
12.95
14.04
13.89
12.75
11.34
10.50
10.73
12.05
14.06
16.17
17.62
18.10
17.98
18.00
18.75
20.10
21.37
21.59
19.88
15.30
7.48
-3.10
-15.23
-27.35
-38.06
-46.20
-51.02
-50.19
-43.46
-33.76
-25.61
-21.86
-22.32
-24.92
-27.34
-28.26
-27.68
-26.83
-26.90
-28.00
-29.87
-31.06
-30.78
-29.13
-26.77
-24.52
-23.15
-22.91
-23.32
-23.57
-23.00
-21.63
-19.93
-18.30
-17.26
-17.26
-18.41
-20.34
-22.40
-23.93
-24.61
-24.29
-22.91
-20.47
-17.01
-12.59
-7.33
-1.52
4.35
9.53
13.44
15.82
16.78
16.69
16.05
15.30
14.69
14.29
13.98
13.66
13.23
12.59
11.68
10.57
9.44
8.60
8.36
8.94
10.73
13.89
18.15
22.77
26.87
29.80
31.32
31.70
31.46
31.77
33.36
36.11
39.05
41.08
41.49
40.29
37.94
35.03
33.06
32.99
34.75
37.21
39.16
40.05
40.31
41.12
43.72
50.18
61.49
76.90
94.21
111.21
126.23
138.29
146.37
140.79
115.04
70.08
15.21
-37.97
-81.83
-114.84
-138.99
-156.51
-167.32
-167.28
-151.62
-118.91
-74.68
-26.72
15.28
43.45
54.42
50.00
36.57
21.11
8.17
-1.27
-8.38
-14.88
-21.40
-27.63
-32.35
-34.15
-32.72
-29.26
-25.85
-24.10
-24.73
-27.13
-29.95
-31.83
-31.86
-30.06
-27.28
-24.41
-21.58
-18.24
-13.44
-6.55
2.21
11.76
20.41
26.53
29.28
29.06
27.04
24.69
23.13
22.90
23.90
25.53
26.80
26.82
25.09
21.33
15.49
7.81
-1.21
-9.74
-15.47
-17.48
-16.61
-14.68
-13.42
-13.68
-15.23
-17.01
-18.43
-18.68
-17.76
-16.11
-14.22
-12.39
-10.68
-8.96
-7.17
-5.45
-3.50
-1.73
-0.48
0.19
0.48
0.77
1.28
2.01
2.67
2.87
2.11
0.33
-1.99
-4.08
-5.16
-4.83
-3.16
-0.61
2.17
4.43
5.65
5.65
4.49
2.39
-0.38
-3.58
-6.93
-10.15
-13.10
-15.70
-17.89
-19.63
-20.93
-21.82
-22.36
-22.58
-22.48
-22.16
-21.67
-21.13
-20.59
-20.11
-19.72
-19.43
-19.05
-18.44
-17.58
-16.66
-15.90
-15.54
-15.64
-16.14
-16.86
-17.16
-16.52
-14.83
-12.41
-9.83
-7.58
-5.83
-4.48
-3.18
-1.08
2.41
7.13
12.34
17.16
20.97
23.82
26.26
29.16
34.07
42.27
54.07
68.92
85.18
100.25
111.01
114.33
104.05
77.81
39.56
-1.56
-36.23
-59.95
-73.38
-79.56
-81.33
-80.17
-75.61
-67.04
-54.77
-40.13
-23.23
-4.04
17.52
40.73
63.31
82.17
93.90
92.63
78.14
54.64
28.14
3.93
-15.21
-29.04
-38.29
-43.82
-46.71
-46.47
-43.20
-37.93
-32.21
-27.44
-24.45
-23.11
-22.73
-22.54
-21.58
-19.71
-17.48
-15.54
-13.96
-12.54
-10.72
-7.93
-3.89
1.55
7.90
14.20
19.42
22.84
24.11
23.36
21.04
17.80
14.42
11.36
8.74
6.42
4.16
1.76
-0.77
-3.22
-5.27
-6.55
-6.91
-6.49
-5.59
-4.53
-3.56
-2.77
-2.14
-1.64
-1.25
-0.98
-0.84
-0.79
-0.81
-0.86
-1.01
-1.31
-1.80
-2.50
-3.36
-4.28
-5.13
-5.81
-6.29
-6.66
-7.10
-7.86
-9.08
-10.73
-12.52
-13.95
-14.53
-13.91
-12.07
-9.23
-5.76
-2.02
1.73
5.29
8.58
11.42
13.57
14.81
15.04
14.42
13.29
12.10
11.19
10.84
10.97
11.23
11.15
10.51
9.51
8.67
8.61
9.75
12.35
15.87
19.13
20.83
20.23
17.65
14.29
11.66
11.01
13.12
17.43
22.28
25.66
26.17
23.69
19.32
14.95
12.81
15.38
23.83
37.48
53.33
66.70
72.70
67.71
50.56
20.25
-18.33
-55.64
-82.16
-94.47
-95.87
-92.47
-89.70
-90.64
-95.47
-101.19
-103.16
-97.80
-81.51
-53.53
-16.21
25.47
65.39
98.19
120.96
128.03
119.37
98.80
71.23
41.48
13.62
-9.22
-25.10
-33.59
-35.94
-33.72
-29.26
-25.20
-23.28
-23.95
-26.64
-30.29
-33.72
-36.33
-37.79
-38.20
-38.57
-39.73
-41.93
-44.73
-47.19
-48.13
-46.66
-42.12
-34.84
-26.05
-17.21
-9.52
-3.58
0.60
3.39
5.29
6.89
8.46
9.94
11.23
12.27
13.08
13.70
14.17
14.53
14.93
15.46
16.07
16.62
16.90
16.64
15.68
13.98
11.71
9.06
6.28
3.50
0.77
-1.89
-4.49
-6.97
-9.30
-11.44
-13.41
-15.20
-16.81
-18.20
-19.28
-20.04
-20.55
-20.97
-21.46
-22.06
-22.58
-22.63
-21.74
-19.51
-15.79
-10.71
-4.70
1.64
7.71
12.97
17.12
20.09
21.98
23.03
23.45
23.44
23.14
22.70
22.29
22.07
22.19
22.64
23.32
24.04
24.61
24.91
24.93
24.71
24.27
23.66
22.85
21.83
20.57
19.08
17.40
15.54
13.51
11.30
8.90
6.28
3.46
0.47
-2.55
-5.42
-7.94
-9.99
-11.63
-12.99
-14.33
-15.83
-17.51
-19.12
-20.18
-20.12
-18.55
-15.37
-10.81
-5.34
0.49
6.11
11.07
15.08
17.95
19.63
20.20
19.93
19.14
18.13
17.04
15.76
14.31
12.65
10.84
9.08
7.70
6.88
6.75
7.17
7.71
8.35
9.15
10.31
12.23
15.44
20.20
26.77
35.01
44.33
54.58
65.34
75.83
85.13
92.42
96.88
98.59
97.95
95.21
91.16
85.70
78.03
67.39
54.21
40.10
28.47
22.37
17.29
9.79
-2.40
-19.58
-40.17
-58.38
-72.81
-82.46
-87.35
-88.66
-87.33
-83.76
-78.23
-71.21
-63.59
-56.93
-51.90
-48.45
-45.59
-40.87
-32.28
-19.45
-5.20
5.89
10.05
7.94
3.44
0.33
0.17
1.62
2.03
-0.56
-6.11
-13.10
-19.25
-23.37
-25.78
-27.47
-29.36
-31.59
-32.92
-31.34
-25.06
-13.28
2.79
19.91
33.90
40.12
36.62
24.95
9.40
-5.06
-14.73
-18.88
-18.99
-17.18
-15.13
-13.33
-11.44
-8.91
-5.62
-1.96
1.29
3.36
3.95
3.23
1.93
0.68
-0.06
-0.58
-1.55
-3.67
-7.14
-11.45
-15.62
-18.54
-19.59
-18.97
-17.63
-16.66
-16.84
-18.21
-20.15
-21.77
-22.25
-21.27
-18.98
-15.95
-12.77
-9.89
-7.52
-5.66
-4.25
-3.20
-2.44
-1.88
-1.49
-1.24
-1.16
-1.37
-1.95
-2.87
-3.89
-4.49
-4.06
-2.12
1.48
6.41
11.96
17.33
21.88
25.37
27.97
30.09
32.17
34.47
36.95
39.37
41.40
42.82
43.58
43.90
44.12
44.54
45.29
46.15
46.67
46.18
44.06
39.90
33.69
25.89
17.48
9.70
3.74
0.33
-0.58
0.18
1.20
1.07
-1.16
-5.60
-11.59
-18.00
-23.72
-27.98
-30.55
-31.60
-31.58
-31.04
-30.56
-30.70
-31.99
-34.76
-39.00
-44.35
-50.13
-55.67
-60.37
-63.90
-66.23
-67.52
-68.01
-67.94
-67.58
-67.20
-67.21
-67.72
-68.60
-69.24
-68.89
-66.80
-62.62
-56.43
-48.60
-39.68
-29.87
-19.16
-7.35
5.52
18.90
31.70
42.92
53.40
63.70
74.68
87.05
100.74
113.83
123.01
124.81
117.69
103.14
85.15
69.37
58.60
53.99
54.78
58.80
62.60
62.69
56.50
42.81
21.87
-5.45
-36.83
-69.28
-96.08
-111.20
-112.34
-101.98
-85.23
-66.61
-48.97
-33.50
-20.74
-10.89
-4.29
-0.82
0.54
1.30
2.90
5.90
9.98
14.12
17.35
18.82
18.45
17.20
16.46
17.29
19.67
22.54
24.29
23.57
19.76
12.91
4.92
-2.26
-7.45
-10.70
-13.11
-16.08
-20.70
-27.55
-36.64
-47.27
-57.67
-65.07
-65.86
-56.55
-35.38
-3.71
33.72
70.21
99.59
118.32
125.67
122.94
111.57
91.81
62.69
23.42
-25.13
-80.03
-133.28
-175.95
-201.10
-205.93
-192.46
-166.45
-134.82
-103.24
-74.58
-48.95
-25.48
-3.48
16.80
34.32
47.97
57.41
63.21
66.47
68.22
68.58
66.97
62.62
55.25
45.36
34.15
23.19
13.86
7.12
3.06
1.17
0.64
0.55
0.20
-0.76
-2.23
-3.76
-4.72
-4.66
-3.48
-1.46
0.82
2.81
4.13
4.79
5.06
5.27
5.60
5.97
6.08
5.59
4.23
1.92
-1.27
-5.15
-9.54
-14.25
-19.07
-23.72
-27.88
-31.14
-33.11
-33.56
-32.40
-29.82
-26.18
-21.90
-17.37
-12.83
-8.42
-4.27
-0.53
2.62
5.02
6.65
7.65
8.27
8.79
9.47
10.50
11.92
13.76
15.90
18.16
20.29
22.04
23.21
23.74
23.70
23.19
22.32
21.15
19.73
18.13
16.46
14.82
13.20
11.51
9.57
7.27
4.67
1.98
-0.42
-2.22
-3.31
-3.86
-4.23
-4.82
-5.96
-7.74
-10.06
-12.63
-15.04
-16.76
-17.22
-15.95
-12.75
-7.79
-1.65
4.86
10.97
16.07
19.93
22.53
24.01
24.47
24.00
22.70
20.77
18.56
16.50
14.96
14.14
13.97
14.19
14.45
14.46
14.08
13.38
12.58
11.86
11.32
10.89
10.42
9.78
8.92
7.93
6.97
6.14
5.43
4.72
3.81
2.62
1.15
-0.51
-2.23
-3.96
-5.75
-7.68
-9.80
-12.12
-14.59
-17.12
-19.63
-21.95
-23.80
-24.77
-24.38
-22.33
-18.60
-13.55
-7.79
-2.03
3.21
7.59
11.00
13.48
15.06
15.86
16.02
15.70
15.06
14.24
13.32
12.44
11.82
11.71
12.26
13.42
14.83
16.01
16.57
16.39
15.68
14.85
14.25
13.94
13.70
13.14
11.90
9.82
6.94
3.40
-0.57
-4.70
-8.59
-11.76
-13.69
-14.05
-12.93
-10.83
-8.57
-6.99
-6.67
-7.80
-10.20
-13.55
-17.43
-21.39
-24.95
-27.54
-28.52
-27.40
-23.99
-18.57
-11.88
-4.94
1.13
5.45
7.61
7.89
7.03
6.00
5.54
5.88
6.93
8.24
9.41
10.31
11.09
11.98
13.13
14.38
15.42
16.30
17.08
17.84
18.72
19.92
21.52
23.44
25.33
26.68
27.62
28.10
28.03
27.53
27.16
27.70
29.57
32.56
35.72
38.74
41.05
42.11
42.08
42.01
43.20
46.38
51.27
56.74
62.59
68.12
72.22
73.75
72.18
67.85
62.04
57.14
48.23
35.79
23.56
14.37
6.93
-2.55
-16.79
-35.59
-56.33
-75.70
-90.24
-99.18
-104.17
-107.43
-109.55
-108.91
-102.77
-89.54
-70.47
-49.08
-31.12
-21.85
-23.27
-32.89
-45.39
-55.51
-60.49
-60.53
-56.82
-50.61
-42.18
-31.06
-17.05
-1.21
13.97
25.76
32.36
33.92
31.76
27.64
22.95
18.49
14.66
11.52
9.10
7.31
6.06
5.15
4.21
2.91
1.01
-1.45
-4.32
-7.22
-9.79
-11.73
-12.97
-13.68
-14.20
-14.86
-15.77
-16.86
-17.95
-18.88
-19.63
-20.20
-20.53
-20.38
-19.56
-17.81
-15.15
-11.73
-7.81
-3.63
0.81
5.48
10.40
15.17
19.20
21.83
22.60
21.60
19.36
16.81
14.71
13.51
13.05
12.84
12.37
11.35
9.94
8.55
7.65
7.43
8.11
9.45
10.79
11.45
10.84
8.79
5.43
1.19
-3.50
-8.26
-12.81
-16.91
-20.17
-22.32
-23.21
-22.91
-21.76
-20.03
-17.92
-15.34
-12.02
-7.58
-1.95
4.58
11.36
17.55
22.49
25.78
27.52
28.23
28.71
29.58
30.98
32.57
33.58
33.35
31.47
28.13
24.04
20.09
16.85
14.26
11.78
8.56
3.87
-3.08
-12.52
-23.75
-35.24
-45.03
-51.34
-52.99
-49.94
-43.40
-36.06
-30.49
-27.61
-26.68
-26.15
-24.72
-21.77
-17.59
-13.07
-10.18
-10.37
-13.21
-17.00
-19.96
-21.07
-20.02
-17.18
-13.52
-11.54
-13.35
-19.04
-27.21
-36.48
-46.11
-55.81
-64.94
-64.24
-48.00
-20.28
9.04
32.98
49.50
59.48
64.86
67.49
68.12
64.94
55.57
39.54
19.13
-1.47
-17.25
-23.98
-20.01
-7.48
7.31
17.28
18.55
12.22
2.90
-3.42
-2.24
7.51
23.25
39.61
51.25
55.33
52.14
43.95
33.74
23.87
15.12
6.62
-3.66
-16.80
-31.45
-43.84
-49.78
-46.98
-36.82
-23.94
-13.99
-10.88
-14.80
-22.62
-30.00
-34.04
-34.37
-32.71
-31.12
-30.47
-30.41
-29.72
-27.37
-23.23
-18.08
-12.74
-7.97
-4.05
-0.71
2.54
6.13
10.17
14.31
18.01
20.75
22.28
22.85
23.06
23.57
24.80
26.72
28.85
30.56
31.34
31.00
29.73
27.93
25.94
23.94
21.91
19.74
17.44
15.10
12.83
10.73
8.78
7.01
5.51
4.44
3.91
3.85
4.01
4.01
3.55
2.52
1.01
-0.78
-2.66
-4.47
-6.05
-7.20
-7.71
-7.40
-6.28
-4.59
-2.77
-1.34
-0.69
-0.94
-1.89
-3.16
-4.34
-5.20
-5.72
-6.20
-7.17
-9.17
-12.54
-17.12
-22.31
-27.08
-30.37
-31.28
-29.43
-24.98
-18.59
-11.25
-4.03
2.11
6.47
8.72
8.89
7.29
4.37
0.66
-3.35
-7.21
-10.50
-12.78
-13.67
-12.96
-10.66
-7.15
-3.06
0.93
4.21
6.50
7.75
8.13
7.84
7.09
6.02
4.78
3.54
2.48
1.73
1.29
1.05
0.81
0.40
-0.27
-1.16
-2.14
-3.10
-3.98
-4.87
-5.99
-7.62
-10.02
-13.30
-17.24
-21.23
-24.38
-25.67
-24.33
-20.08
-13.21
-4.51
5.07
14.65
23.57
31.32
37.43
41.38
42.70
41.25
37.40
32.10
26.63
22.15
19.35
18.19
18.07
18.16
17.82
16.75
15.03
12.89
10.48
7.78
4.65
1.05
-2.88
-6.79
-10.23
-12.95
-15.02
-16.87
-19.07
-22.08
-26.01
-30.54
-35.05
-38.93
-41.79
-43.63
-44.75
-45.63
-46.69
-48.15
-50.07
-52.29
-54.43
-55.87
-55.78
-53.36
-48.00
-39.68
-28.99
-17.04
-5.03
6.09
15.82
24.08
30.93
36.39
40.31
42.50
42.95
41.97
40.15
38.15
36.46
35.23
34.32
33.43
32.30
30.83
29.07
27.18
25.29
23.49
21.78
20.14
18.52
16.86
15.09
13.24
11.33
9.36
7.28
5.04
2.55
-0.16
-3.02
-5.95
-8.77
-11.40
-13.94
-16.65
-19.83
-23.68
-28.04
-32.45
-36.14
-38.06
-37.36
-33.82
-28.02
-21.28
-15.17
-11.10
-9.87
-11.33
-13.90
-15.51
-14.56
-10.69
-4.79
1.57
6.73
9.53
9.68
9.02
9.81
13.40
19.31
25.60
29.96
30.55
26.44
17.57
6.47
-4.10
-12.41
-17.93
-20.15
-17.44
-7.67
10.40
35.76
67.69
104.41
143.60
182.94
221.11
257.95
292.76
323.22
330.31
299.97
231.80
142.68
56.09
-11.49
-55.53
-81.38
-98.13
-113.29
-127.17
-135.58
-133.93
-121.19
-101.03
-79.75
-64.50
-60.50
-69.62
-88.14
-109.99
-129.47
-143.23
-149.88
-145.33
-127.89
-99.14
-64.14
-28.81
1.02
21.49
31.89
35.00
35.42
36.44
39.32
41.62
41.37
38.03
32.86
27.98
25.14
24.39
23.60
19.98
11.71
-0.56
-14.46
-26.45
-33.86
-36.13
-35.26
-34.41
-35.84
-39.94
-45.10
-48.69
-48.51
-45.24
-38.93
-30.96
-23.19
-17.11
-13.22
-11.00
-9.46
-7.75
-5.64
-3.33
-1.73
-0.99
-1.34
-2.62
-4.31
-5.79
-6.62
-6.66
-5.95
-4.86
-3.77
-2.94
-2.40
-1.93
-1.29
-0.29
1.10
2.84
4.75
6.64
8.34
9.75
10.83
11.44
11.41
10.63
9.15
7.17
5.06
3.16
1.69
0.64
-0.23
-1.22
-2.60
-4.46
-6.75
-9.25
-11.69
-13.64
-14.64
-14.22
-12.12
-8.43
-3.63
1.52
6.22
9.93
12.48
14.06
14.97
15.52
15.91
16.18
16.36
16.44
16.39
16.14
15.63
14.79
13.67
12.39
11.14
10.11
9.35
8.80
8.25
7.49
6.33
4.73
2.76
0.62
-1.47
-3.35
-4.98
-6.45
-7.94
-9.60
-11.44
-13.33
-15.03
-16.34
-17.18
-17.66
-17.99
-18.40
-19.02
-19.87
-20.89
-21.96
-22.92
-23.48
-23.26
-21.84
-18.93
-14.57
-9.12
-3.21
2.51
7.54
11.66
14.92
17.44
19.36
20.73
21.53
21.77
21.46
20.71
19.69
18.61
17.71
17.13
16.93
16.98
17.05
16.89
16.34
15.34
13.98
12.39
10.66
8.85
6.97
5.00
3.03
1.17
-0.42
-1.63
-2.49
-3.13
-3.75
-4.49
-5.33
-6.18
-6.91
-7.50
-8.05
-8.77
-9.83
-11.24
-12.77
-14.00
-14.48
-13.80
-11.88
-8.88
-5.33
-1.83
1.02
2.83
3.53
3.32
2.62
1.86
1.37
1.36
1.83
2.68
3.77
4.99
6.23
7.44
8.53
9.33
9.57
9.01
7.47
4.91
1.46
-2.63
-7.07
-11.55
-15.75
-19.36
-22.15
-24.01
-25.06
-25.49
-25.56
-25.38
-24.85
-23.80
-22.01
-19.49
-16.45
-13.31
-10.53
-8.44
-7.12
-6.35
-5.64
-4.35
-1.98
1.78
6.82
12.69
18.68
24.10
28.47
31.65
33.78
35.07
35.69
35.66
34.89
33.33
31.05
28.25
25.17
21.96
18.70
15.36
11.85
8.13
4.20
0.17
-3.78
-7.41
-10.51
-12.94
-14.72
-16.04
-17.13
-18.19
-19.34
-20.55
-21.78
-22.96
-24.04
-24.88
-25.30
-25.02
-23.87
-21.86
-19.25
-16.57
-14.36
-13.07
-12.87
-13.55
-14.63
-15.47
-15.45
-14.17
-11.62
-8.11
-4.28
-0.80
1.77
3.14
3.33
2.58
1.28
-0.23
-1.66
-2.82
-3.56
-3.83
-3.58
-2.82
-1.63
-0.10
1.67
3.58
5.57
7.58
9.59
11.57
13.41
14.98
16.04
16.32
15.60
13.81
11.04
7.51
3.55
-0.57
-4.66
-8.61
-12.40
-15.98
-19.31
-22.34
-25.05
-27.46
-29.61
-31.52
-33.18
-34.58
-35.63
-36.25
-36.24
-35.33
-33.14
-29.35
-23.82
-16.71
-8.51
0.10
8.34
15.60
21.46
25.72
28.34
29.38
29.03
27.55
25.30
22.68
20.06
17.67
15.57
13.71
11.97
10.30
8.72
7.34
6.25
5.47
4.94
4.56
4.19
3.75
3.19
2.57
1.88
1.14
0.33
-0.58
-1.61
-2.72
-3.90
-5.16
-6.57
-8.26
-10.39
-13.12
-16.47
-20.33
-24.45
-28.37
-31.58
-33.50
-33.71
-31.99
-28.44
-23.45
-17.60
-11.50
-5.65
-0.40
4.02
7.54
10.10
11.72
12.53
12.76
12.71
12.71
13.01
13.70
14.69
15.75
16.60
16.98
16.78
16.01
14.78
13.22
11.47
9.59
7.59
5.41
2.97
0.24
-2.78
-5.96
-9.07
-11.82
-14.06
-15.83
-17.42
-19.25
-21.69
-24.84
-28.43
-31.82
-34.17
-34.63
-32.69
-28.24
-21.71
-13.96
-5.99
1.26
7.19
11.61
14.67
16.65
17.84
18.37
18.30
17.74
16.85
15.87
15.05
14.53
14.31
14.32
14.39
14.40
14.24
13.85
13.23
12.46
11.66
10.95
10.37
9.86
9.23
8.32
6.98
5.20
3.07
0.72
-1.75
-4.30
-6.94
-9.76
-12.79
-16.11
-19.67
-23.27
-26.50
-28.76
-29.37
-27.75
-23.71
-17.49
-9.80
-1.59
6.20
12.86
18.03
21.65
23.86
24.86
24.87
24.09
22.74
21.07
19.33
17.72
16.35
15.23
14.34
13.67
13.25
13.15
13.41
14.01
14.85
15.68
16.18
16.06
15.12
13.34
10.95
8.30
5.72
3.40
1.38
-0.42
-2.07
-3.55
-4.84
-5.97
-7.13
-8.62
-10.67
-13.31
-16.24
-18.86
-20.47
-20.48
-18.62
-15.00
-10.08
-4.60
0.65
4.97
7.89
9.27
9.24
8.10
6.21
3.90
1.52
-0.58
-2.06
-2.65
-2.27
-1.11
0.44
1.88
2.81
3.05
2.74
2.15
1.61
1.29
1.11
0.85
0.21
-0.97
-2.67
-4.62
-6.47
-7.91
-8.83
-9.36
-9.81
-10.52
-11.67
-13.29
-15.17
-16.97
-18.28
-18.71
-17.89
-15.52
-11.45
-5.73
1.38
9.37
17.61
25.44
32.31
37.80
41.69
43.86
44.38
43.39
41.20
38.19
34.81
31.53
28.71
26.59
25.22
24.53
24.36
24.60
25.19
26.10
27.18
28.14
28.55
27.95
26.01
22.65
18.06
12.65
6.96
1.55
-3.11
-6.74
-9.27
-10.95
-12.26
-13.77
-16.04
-19.29
-23.37
-27.71
-31.50
-33.86
-34.08
-31.77
-26.98
-20.22
-12.32
-4.24
3.17
9.41
14.30
17.96
20.63
22.45
23.41
23.34
22.14
19.89
16.95
13.95
11.55
10.33
10.56
12.20
14.81
17.73
20.07
21.01
19.92
16.55
11.16
4.45
-2.67
-9.30
-14.80
-18.90
-21.64
-23.24
-24.01
-24.24
-24.25
-24.43
-25.17
-26.81
-29.49
-33.10
-37.32
-41.63
-45.45
-48.22
-49.41
-48.55
-45.35
-39.84
-32.42
-23.95
-15.52
-8.15
-2.45
1.54
4.33
6.66
9.17
12.13
15.44
18.77
21.80
24.37
26.53
28.49
30.55
32.99
35.96
39.47
43.25
46.75
49.29
50.21
49.17
46.30
42.19
37.69
33.66
30.74
29.13
28.71
29.01
29.39
29.18
27.90
25.34
21.70
17.41
13.00
8.88
5.14
1.63
-1.95
-5.88
-10.23
-14.79
-19.15
-22.80
-25.22
-26.11
-25.43
-23.45
-20.70
-17.84
-15.49
-14.02
-13.58
-14.03
-15.08
-16.37
-17.56
-18.38
-18.63
-18.19
-17.03
-15.23
-12.99
-10.58
-8.29
-6.28
-4.49
-2.72
-0.70
1.80
4.77
8.01
11.18
13.86
15.77
16.72
16.66
15.59
13.57
10.68
7.11
3.14
-0.88
-4.62
-7.84
-10.50
-12.67
-14.54
-16.27
-18.01
-19.77
-21.46
-22.85
-23.54
-23.03
-20.84
-16.72
-10.76
-3.51
4.19
11.41
17.37
21.59
23.91
24.43
23.35
20.99
17.73
14.03
10.36
7.18
4.85
3.58
3.50
4.60
6.80
9.89
13.59
17.52
21.29
24.48
26.74
27.78
27.45
25.71
22.68
18.56
13.68
8.36
2.94
-2.25
-6.91
-10.80
-13.84
-16.05
-17.64
-18.83
-19.79
-20.59
-21.14
-21.31
-20.92
-19.77
-17.76
-14.90
-11.34
-7.41
-3.48
0.10
3.17
5.73
7.85
9.60
10.88
11.50
11.26
10.12
8.32
6.34
4.71
3.79
3.62
3.90
4.14
3.89
2.98
1.49
-0.28
-2.01
-3.53
-4.85
-6.10
-7.41
-8.82
-10.25
-11.59
-12.70
-13.50
-13.99
-14.17
-14.08
-13.74
-13.24
-12.72
-12.32
-12.04
-11.71
-10.93
-9.28
-6.45
-2.51
2.05
6.47
9.98
12.09
12.69
12.01
10.50
8.60
6.62
4.78
3.18
1.97
1.27
1.20
1.75
2.75
3.89
4.81
5.27
5.21
4.76
4.13
3.46
2.73
1.79
0.39
-1.60
-4.11
-6.86
-9.48
-11.58
-12.98
-13.70
-13.99
-14.18
-14.56
-15.27
-16.23
-17.15
-17.62
-17.22
-15.64
-12.75
-8.67
-3.73
1.55
6.59
10.85
13.90
15.53
15.76
14.82
13.11
11.13
9.29
7.85
6.88
6.27
5.93
5.74
5.68
5.79
6.07
6.50
7.04
7.67
8.39
9.16
9.86
10.23
9.96
8.79
6.64
3.73
0.51
-2.48
-4.79
-6.25
-6.95
-7.18
-7.24
-7.29
-7.32
-7.18
-6.68
-5.74
-4.35
-2.59
-0.57
1.61
3.84
5.98
7.81
9.15
9.89
10.06
9.84
9.45
9.06
8.68
8.18
7.39
6.13
4.40
2.30
0.03
-2.25
-4.42
-6.40
-8.10
-9.34
-9.85
-9.39
-7.84
-5.35
-2.34
0.57
2.76
3.78
3.50
2.08
-0.11
-2.67
-5.19
-7.32
-8.71
-8.99
-7.85
-5.21
-1.35
3.02
6.91
9.27
9.42
7.26
3.33
-1.39
-5.88
-9.33
-11.39
-12.06
-11.62
-10.43
-8.83
-7.12
-5.60
-4.58
-4.29
-4.85
-6.18
-8.01
-9.95
-11.57
-12.52
-12.61
-11.84
-10.38
-8.53
-6.57
-4.61
-2.64
-0.46
2.10
5.09
8.27
11.22
13.37
14.22
13.52
11.30
7.89
3.78
-0.44
-4.30
-7.45
-9.79
-11.43
-12.65
-13.83
-15.26
-17.08
-19.14
-21.09
-22.45
-22.78
-21.85
-19.69
-16.57
-12.92
-9.14
-5.59
-2.46
0.17
2.32
4.09
5.66
7.21
8.90
10.76
12.72
14.61
16.26
17.60
18.68
19.65
20.66
21.74
22.80
23.65
24.08
23.91
23.06
21.52
19.32
16.49
13.10
9.28
5.18
1.01
-3.04
-6.88
-10.42
-13.60
-16.27
-18.18
-19.19
-19.34
-18.96
-18.64
-18.99
-20.42
-22.91
-26.01
-28.99
-31.03
-31.50
-30.08
-26.85
-22.18
-16.70
-11.04
-5.74
-1.04
3.07
6.78
10.31
13.75
17.04
20.06
22.72
25.04
27.12
29.04
30.75
32.15
33.12
33.73
34.25
35.06
36.42
38.23
39.90
40.55
39.30
35.70
29.92
22.73
15.19
8.36
2.91
-0.90
-3.22
-4.50
-5.25
-6.04
-7.31
-9.36
-12.23
-15.76
-19.56
-23.16
-26.16
-28.36
-29.85
-30.94
-32.04
-33.48
-35.35
-37.44
-39.32
-40.42
-40.25
-38.63
-35.69
-31.89
-27.83
-24.00
-20.68
-17.83
-15.24
-12.69
-10.11
-7.56
-5.21
-3.14
-1.37
0.19
1.61
2.90
4.01
4.89
5.61
6.32
7.28
8.72
10.81
13.65
17.22
21.49
26.30
31.40
36.37
40.63
43.55
44.58
43.41
40.03
34.71
28.00
20.53
12.96
5.89
-0.13
-4.64
-7.34
-8.13
-7.22
-5.18
-2.80
-0.88
0.02
-0.24
-1.35
-2.84
-4.24
-5.30
-6.04
-6.56
-6.96
-7.22
-7.27
-7.11
-6.91
-6.94
-7.50
-8.77
-10.74
-13.25
-16.03
-18.85
-21.54
-24.00
-26.18
-28.07
-29.61
-30.79
-31.60
-32.03
-32.10
-31.83
-31.24
-30.39
-29.35
-28.25
-27.23
-26.44
-25.93
-25.68
-25.56
-25.39
-25.00
-24.31
-23.36
-22.27
-21.15
-20.00
-18.69
-16.96
-14.52
-11.20
-6.97
-1.98
3.47
9.04
14.40
19.29
23.52
26.98
29.61
31.38
32.33
32.50
31.95
30.77
29.13
27.23
25.30
23.50
21.87
20.33
18.70
16.84
14.73
12.49
10.33
8.44
6.85
5.49
4.15
2.63
0.80
-1.33
-3.59
-5.74
-7.53
-8.83
-9.65
-10.16
-10.64
-11.36
-12.45
-13.81
-15.16
-16.02
-15.98
-14.75
-12.29
-8.80
-4.66
-0.28
3.97
7.80
11.00
13.41
14.93
15.55
15.41
14.74
13.86
13.05
12.44
12.03
11.65
11.12
10.33
9.27
8.01
6.69
5.46
4.38
3.48
2.64
1.76
0.70
-0.58
-2.01
-3.49
-4.91
-6.21
-7.39
-8.55
-9.76
-11.08
-12.48
-13.89
-15.24
-16.42
-17.35
-17.89
-17.89
-17.21
-15.71
-13.35
-10.22
-6.55
-2.74
0.81
3.77
5.96
7.46
8.44
9.16
9.78
10.36
10.81
11.06
11.05
10.85
10.54
10.18
9.77
9.22
8.53
7.75
7.01
6.44
6.11
5.94
5.79
5.50
4.90
3.92
2.52
0.76
-1.24
-3.27
-5.13
-6.66
-7.82
-8.73
-9.54
-10.41
-11.43
-12.56
-13.69
-14.67
-15.28
-15.23
-14.23
-12.05
-8.69
-4.39
0.36
4.97
8.98
12.15
14.50
16.18
17.38
18.18
18.55
18.35
17.49
15.98
13.94
11.63
9.33
7.29
5.69
4.61
4.04
3.96
4.26
4.81
5.42
5.87
5.93
5.50
4.58
3.32
1.95
0.65
-0.48
-1.45
-2.30
-3.08
-3.76
-4.26
-4.52
-4.57
-4.56
-4.71
-5.26
-6.36
-8.00
-9.97
-11.83
-13.06
-13.16
-11.84
-9.21
-5.71
-1.99
1.35
3.96
5.87
7.27
8.41
9.41
10.23
10.80
11.11
11.30
11.57
12.08
12.80
13.59
14.25
14.60
14.59
14.31
13.92
13.57
13.34
13.16
12.91
12.42
11.65
10.62
9.45
8.26
7.11
5.97
4.75
3.41
1.93
0.35
-1.20
-2.64
-3.93
-5.09
-6.21
-7.41
-8.79
-10.43
-12.23
-14.02
-15.53
-16.47
-16.67
-16.06
-14.72
-12.79
-10.47
-7.97
-5.49
-3.28
-1.52
-0.36
0.18
0.24
0.03
-0.22
-0.38
-0.42
-0.43
-0.50
-0.62
-0.72
-0.68
-0.46
-0.11
0.22
0.44
0.50
0.44
0.34
0.22
0.04
-0.25
-0.67
-1.14
-1.54
-1.80
-1.92
-2.02
-2.32
-2.96
-4.03
-5.42
-6.94
-8.39
-9.64
-10.65
-11.48
-12.23
-12.95
-13.63
-14.16
-14.34
-13.92
-12.58
-10.12
-6.48
-1.83
3.44
8.79
13.66
17.57
20.18
21.30
20.94
19.26
16.63
13.50
10.35
7.55
5.32
3.69
2.58
1.86
1.44
1.20
1.04
0.80
0.35
-0.44
-1.63
-3.23
-5.18
-7.36
-9.65
-11.84
-13.73
-15.15
-16.04
-16.49
-16.71
-16.91
-17.26
-17.74
-18.15
-18.21
-17.60
-16.13
-13.77
-10.57
-6.69
-2.26
2.59
7.74
13.02
18.21
23.07
27.36
30.93
33.75
35.91
37.57
38.90
39.97
40.77
41.15
40.89
39.79
37.74
34.82
31.28
27.54
23.98
20.85
18.19
15.79
13.35
10.58
7.35
3.75
-0.02
-3.75
-7.36
-11.00
-15.08
-20.16
-26.79
-35.24
-45.25
-55.81
-65.22
-71.53
-73.25
-69.99
-62.78
-53.77
-45.63
-40.69
-40.24
-44.24
-51.49
-60.01
-67.54
-72.00
-71.88
-66.57
-56.63
-43.65
-29.82
-17.29
-7.51
-1.02
2.66
4.63
6.14
8.16
11.20
15.39
20.62
26.57
32.41
37.13
39.74
39.53
36.35
30.80
24.18
18.07
13.73
11.27
10.07
9.19
7.79
5.47
2.27
-1.35
-4.84
-7.86
-10.74
-13.75
-16.67
-18.90
-19.74
-18.74
-15.80
-11.23
-3.02
8.70
21.76
33.22
41.21
45.53
47.02
46.89
46.32
46.29
46.97
48.32
50.36
52.98
55.85
58.42
60.24
61.14
61.12
60.03
57.58
54.11
50.19
46.43
43.37
41.46
40.92
41.55
42.50
42.68
41.12
37.16
30.58
21.66
11.07
-0.25
-11.38
-21.63
-30.49
-37.52
-42.53
-45.56
-46.91
-47.16
-46.94
-46.77
-46.91
-47.13
-46.85
-45.32
-42.08
-37.12
-30.95
-24.38
-18.21
-12.92
-8.54
-4.84
-1.51
1.57
4.32
6.58
8.28
9.56
10.70
11.92
13.22
14.43
15.34
15.90
16.26
16.71
17.47
18.49
19.56
20.34
20.63
20.45
20.01
19.57
19.31
19.30
19.48
19.78
20.06
20.15
19.73
18.41
15.77
11.51
5.57
-1.79
-10.02
-18.41
-26.30
-33.17
-38.78
-43.09
-46.20
-48.27
-49.43
-49.83
-49.67
-49.16
-48.55
-48.01
-47.62
-47.34
-47.08
-46.76
-46.34
-45.80
-45.05
-43.95
-42.28
-39.85
-36.60
-32.62
-28.16
-23.53
-19.01
-14.83
-11.07
-7.71
-4.61
-1.60
1.44
4.52
7.52
10.19
12.24
13.41
13.54
12.67
10.98
8.76
6.31
3.86
1.50
-0.82
-3.19
-5.74
-8.50
-11.44
-14.40
-17.15
-19.40
-20.80
-20.99
-19.78
-17.20
-13.57
-9.38
-5.19
-1.46
1.60
3.97
5.83
7.35
8.69
9.90
10.97
11.84
12.50
13.01
13.52
14.23
15.32
16.91
19.01
21.55
24.41
27.44
30.51
33.44
36.02
38.04
39.35
39.92
39.82
39.14
37.98
36.38
34.25
31.45
27.75
23.00
17.12
10.31
2.95
-4.51
-11.67
-18.43
-24.91
-31.39
-38.03
-44.77
-51.33
-57.36
-62.59
-66.86
-70.00
-71.80
-71.96
-70.27
-66.77
-61.85
-56.09
-50.11
-44.36
-39.00
-33.97
-29.11
-24.24
-19.20
-13.86
-8.14
-2.06
4.15
10.13
15.49
19.95
23.44
26.03
27.89
29.13
29.77
29.81
29.26
28.23
26.89
25.42
23.95
22.51
21.10
19.73
18.42
17.26
16.36
15.80
15.59
15.62
15.66
15.39
14.58
13.11
11.03
8.52
5.73
2.77
-0.32
-3.37
-6.02
-7.69
-7.77
-5.91
-2.18
2.86
8.33
13.37
17.32
19.87
20.98
20.80
19.59
17.71
15.58
13.70
12.44
11.97
12.06
12.30
12.22
11.56
10.45
9.21
8.25
7.81
7.85
8.19
8.62
9.07
9.61
10.35
11.36
12.59
13.88
15.01
15.70
15.75
15.05
13.57
11.44
8.82
5.85
2.57
-1.05
-5.07
-9.53
-14.37
-19.47
-24.64
-29.52
-33.58
-36.12
-36.54
-34.58
-30.62
-25.59
-20.73
-17.06
-15.03
-14.50
-14.91
-15.72
-16.65
-17.70
-18.93
-20.26
-21.39
-21.96
-21.76
-20.88
-19.66
-18.51
-17.70
-17.24
-16.90
-16.44
-15.74
-14.90
-14.21
-13.99
-14.43
-15.50
-16.98
-18.54
-19.86
-20.72
-21.04
-20.86
-20.28
-19.40
-18.30
-16.99
-15.43
-13.62
-11.65
-9.70
-8.02
-6.70
-5.58
-4.24
-2.11
1.29
6.12
12.10
18.64
25.06
30.84
35.65
39.36
41.89
43.17
43.13
41.82
39.46
36.48
33.33
30.38
27.82
25.67
23.87
22.40
21.28
20.55
20.17
19.98
19.74
19.25
18.38
17.22
15.95
14.80
13.88
13.19
12.54
11.74
10.55
8.91
6.91
4.79
2.89
1.46
0.56
-0.01
-0.65
-1.74
-3.46
-5.63
-7.77
-9.24
-9.50
-8.24
-5.47
-1.52
3.06
7.53
11.10
13.05
13.03
11.11
7.87
4.13
0.71
-1.84
-3.35
-3.96
-4.01
-3.85
-3.83
-4.22
-5.21
-6.81
-8.84
-10.95
-12.64
-13.55
-13.50
-12.68
-11.61
-10.90
-11.04
-12.21
-14.17
-16.38
-18.28
-19.55
-20.27
-20.78
-21.51
-22.74
-24.41
-26.13
-27.32
-27.37
-25.87
-22.68
-17.96
-12.11
-5.65
0.90
7.09
12.69
17.60
21.79
25.29
28.20
30.72
33.05
35.43
38.00
41.03
44.58
48.42
52.20
55.72
59.02
62.34
65.88
69.66
73.81
78.11
82.11
85.51
88.60
92.21
97.10
103.36
110.13
116.32
120.14
119.42
112.38
98.56
79.14
56.57
33.82
13.56
-1.47
-10.02
-12.50
-10.57
-6.24
-1.69
0.57
-2.15
-15.64
-40.28
-69.73
-94.35
-108.04
-111.14
-108.15
-103.71
-99.79
-96.18
-89.27
-76.94
-60.21
-42.69
-28.16
-18.64
-13.88
-12.25
-12.33
-12.80
-13.68
-15.94
-20.43
-26.86
-33.77
-39.20
-41.86
-41.50
-38.49
-34.14
-30.09
-27.67
-27.22
-28.01
-28.70
-28.01
-25.22
-20.03
-12.89
-4.67
3.61
11.17
17.49
22.19
25.04
25.87
24.88
22.49
19.35
16.19
13.62
12.02
11.35
11.36
11.66
12.03
12.41
12.86
13.38
13.78
13.70
12.75
10.72
7.64
3.83
-0.34
-4.55
-8.64
-12.62
-16.51
-20.34
-24.11
-27.83
-31.55
-35.34
-39.21
-42.96
-46.24
-48.55
-49.46
-48.79
-46.75
-43.86
-40.78
-38.09
-36.10
-34.89
-34.33
-34.18
-34.15
-33.96
-33.39
-32.27
-30.42
-27.70
-24.03
-19.47
-14.07
-8.00
-1.62
4.56
9.97
14.11
16.73
17.80
17.46
16.28
14.88
13.60
12.36
10.83
8.64
5.79
2.35
-1.47
-5.02
-7.66
-9.23
-10.19
-11.05
-11.95
-12.21
-11.03
-7.85
-1.87
7.15
18.28
29.44
38.45
43.88
46.00
45.79
44.48
44.37
47.95
56.96
71.65
91.04
112.94
134.59
152.20
156.04
139.75
105.91
66.14
33.31
15.75
10.82
13.82
20.26
26.95
32.34
35.78
36.26
31.93
21.04
3.04
-20.33
-46.22
-71.52
-92.63
-106.75
-112.92
-112.33
-107.32
-100.39
-92.87
-85.47
-78.38
-70.98
-62.53
-52.94
-43.07
-34.19
-27.42
-22.92
-20.33
-19.03
-18.12
-16.86
-14.97
-12.75
-10.71
-9.24
-8.32
-7.77
-7.36
-6.92
-6.35
-5.78
-5.48
-5.70
-6.51
-7.69
-8.90
-9.86
-10.47
-10.84
-11.26
-12.06
-13.44
-15.41
-17.72
-19.95
-21.60
-22.21
-21.45
-19.12
-15.28
-10.14
-4.06
2.50
9.08
15.25
20.65
25.00
28.07
29.69
29.79
28.47
26.10
23.29
20.79
19.25
19.01
19.98
21.62
23.25
24.22
24.19
23.13
21.24
18.80
16.10
13.38
10.86
8.73
7.12
5.97
5.08
4.11
2.69
0.54
-2.42
-6.07
-10.13
-14.21
-17.89
-20.85
-22.85
-23.86
-23.95
-23.25
-21.85
-19.76
-16.95
-13.41
-9.26
-4.72
-0.10
4.27
8.10
11.19
13.41
14.72
15.20
15.01
14.44
13.81
13.43
13.53
14.21
15.41
16.93
18.47
19.78
20.67
21.04
20.92
20.37
19.42
18.07
16.36
14.40
12.38
10.49
8.85
7.47
6.20
4.91
3.51
1.99
0.37
-1.32
-3.12
-5.10
-7.33
-9.79
-12.34
-14.71
-16.52
-17.39
-17.04
-15.37
-12.50
-8.77
-4.58
-0.33
3.64
7.11
9.91
11.91
13.06
13.38
13.01
12.16
11.07
9.97
9.02
8.33
7.98
7.97
8.24
8.64
9.01
9.19
9.10
8.73
8.12
7.26
6.12
4.62
2.71
0.47
-1.97
-4.40
-6.63
-8.60
-10.35
-11.97
-13.61
-15.37
-17.28
-19.31
-21.37
-23.32
-24.92
-25.88
-25.85
-24.58
-21.99
-18.26
-13.77
-9.07
-4.65
-0.87
2.15
4.48
6.28
7.66
8.66
9.28
9.48
9.35
9.01
8.65
8.34
8.07
7.69
7.07
6.13
4.97
3.79
2.80
2.13
1.69
1.28
0.64
-0.41
-1.93
-3.81
-5.81
-7.70
-9.27
-10.49
-11.43
-12.32
-13.44
-14.99
-17.01
-19.27
-21.33
-22.64
-22.72
-21.33
-18.53
-14.61
-9.99
-5.03
-0.07
4.64
8.85
12.33
14.88
16.47
17.19
17.29
17.01
16.56
16.02
15.38
14.63
13.79
12.97
12.29
11.89
11.82
12.02
12.29
12.38
12.05
11.12
9.57
7.49
5.04
2.44
-0.15
-2.57
-4.73
-6.58
-8.14
-9.54
-10.99
-12.67
-14.59
-16.51
-17.91
-18.17
-16.78
-13.56
-8.80
-3.16
2.57
7.68
11.79
14.80
16.88
18.26
19.16
19.70
19.90
19.79
19.38
18.71
17.83
16.77
15.55
14.21
12.88
11.79
11.28
11.68
13.26
15.98
19.51
23.21
26.22
27.69
27.08
24.25
19.58
13.75
7.53
1.51
-3.94
-8.71
-12.81
-16.32
-19.32
-22.01
-24.59
-27.27
-30.00
-32.40
-33.82
-33.54
-31.12
-26.65
-20.73
-14.32
-8.31
-3.33
0.40
2.97
4.60
5.50
5.75
5.40
4.52
3.26
1.93
0.85
0.31
0.45
1.17
2.22
3.27
4.04
4.44
4.51
4.38
4.14
3.80
3.25
2.39
1.20
-0.25
-1.83
-3.38
-4.74
-5.82
-6.59
-7.07
-7.39
-7.71
-8.21
-8.99
-9.98
-10.98
-11.70
-11.83
-11.12
-9.43
-6.72
-3.11
1.12
5.54
9.70
13.20
15.77
17.38
18.16
18.32
18.11
17.72
17.29
16.90
16.58
16.29
15.89
15.24
14.27
13.02
11.68
10.47
9.64
9.33
9.54
10.13
10.89
11.56
11.86
11.52
10.35
8.23
5.19
1.35
-3.02
-7.58
-11.95
-15.79
-18.89
-21.17
-22.71
-23.70
-24.37
-24.88
-25.37
-25.82
-26.12
-26.04
-25.19
-23.24
-19.95
-15.40
-10.05
-4.57
0.30
4.10
6.70
8.32
9.35
10.12
10.77
11.23
11.36
10.98
10.05
8.64
6.96
5.26
3.79
2.75
2.28
2.45
3.26
4.62
6.36
8.18
9.71
10.58
10.54
9.58
7.96
6.08
4.37
3.14
2.55
2.67
3.55
5.25
7.75
10.88
14.20
17.14
19.14
19.84
19.21
17.52
15.31
13.22
11.83
11.59
12.68
14.93
17.83
20.65
22.66
23.33
22.39
19.89
16.04
11.14
5.54
-0.35
-6.04
-10.99
-14.69
-16.74
-16.99
-15.51
-12.67
-9.07
-5.47
-2.55
-0.82
-0.48
-1.37
-3.15
-5.36
-7.61
-9.60
-11.13
-12.11
-12.48
-12.34
-11.89
-11.38
-11.11
-11.27
-11.93
-13.02
-14.39
-15.88
-17.34
-18.67
-19.80
-20.62
-21.02
-20.75
-19.56
-17.20
-13.58
-8.85
-3.44
1.95
6.55
9.67
10.94
10.43
8.62
6.29
4.20
2.87
2.46
2.76
3.39
3.99
4.39
4.70
5.11
5.72
6.45
7.07
7.33
7.18
6.80
6.54
6.72
7.44
8.61
9.95
11.16
11.99
12.24
11.71
10.22
7.68
4.19
0.14
-3.93
-7.40
-9.81
-10.91
-10.66
-9.18
-6.66
-3.32
0.71
5.36
10.64
16.61
23.17
29.97
36.37
41.52
44.64
45.32
43.62
40.08
35.50
30.63
26.05
22.02
18.64
15.84
13.55
11.62
9.86
8.08
6.07
3.72
1.02
-1.87
-4.69
-7.15
-9.06
-10.42
-11.37
-12.20
-13.15
-14.36
-15.87
-17.65
-19.60
-21.67
-23.78
-25.85
-27.87
-29.91
-32.16
-34.84
-38.07
-41.73
-45.48
-48.84
-51.42
-52.97
-53.37
-52.55
-50.46
-47.11
-42.69
-37.67
-32.66
-28.22
-24.60
-21.67
-19.02
-16.33
-13.54
-10.92
-8.91
-7.82
-7.68
-8.16
-8.81
-9.21
-9.16
-8.65
-7.81
-6.86
-5.96
-5.24
-4.79
-4.67
-4.87
-5.32
-5.89
-6.46
-6.92
-7.24
-7.42
-7.52
-7.61
-7.76
-8.05
-8.53
-9.19
-9.94
-10.68
-11.33
-11.89
-12.48
-13.26
-14.29
-15.48
-16.51
-16.95
-16.39
-14.65
-11.84
-8.33
-4.60
-1.11
1.92
4.45
6.62
8.57
10.39
12.01
13.38
14.44
15.29
16.06
16.92
17.96
19.09
20.19
21.12
21.78
22.20
22.47
22.65
22.72
22.59
22.10
21.21
19.93
18.38
16.63
14.71
12.54
10.04
7.24
4.31
1.51
-0.94
-2.97
-4.72
-6.46
-8.45
-10.86
-13.61
-16.49
-19.17
-21.27
-22.44
-22.40
-20.96
-18.04
-13.74
-8.38
-2.48
3.32
8.39
12.36
15.20
17.20
18.82
20.47
22.29
24.16
25.77
26.90
27.50
27.69
27.72
27.72
27.69
27.49
26.92
25.87
24.33
22.43
20.33
18.14
15.92
13.60
11.11
8.37
5.32
2.01
-1.47
-4.96
-8.29
-11.31
-13.89
-16.01
-17.73
-19.16
-20.47
-21.81
-23.33
-25.10
-27.13
-29.25
-31.11
-32.24
-32.18
-30.54
-27.20
-22.33
-16.32
-9.74
-3.17
2.84
7.96
11.98
14.91
16.85
17.94
18.37
18.35
18.09
17.79
17.60
17.51
17.45
17.30
17.02
16.70
16.54
16.74
17.37
18.33
19.32
19.97
19.92
18.83
16.53
12.96
8.27
2.82
-2.81
-8.00
-12.19
-15.08
-16.68
-17.26
-17.23
-17.01
-16.89
-17.04
-17.53
-18.39
-19.64
-21.31
-23.36
-25.69
-28.17
-30.64
-32.91
-34.75
-35.78
-35.54
-33.54
-29.45
-23.32
-15.63
-7.22
0.93
7.95
13.25
16.60
18.07
17.92
16.56
14.47
12.22
10.30
9.13
8.88
9.45
10.54
11.71
12.59
13.00
13.02
12.94
13.07
13.63
14.57
15.63
16.41
16.60
16.10
15.05
13.73
12.40
11.17
10.02
8.80
7.38
5.69
3.75
1.65
-0.52
-2.65
-4.65
-6.44
-8.01
-9.45
-10.89
-12.57
-14.69
-17.37
-20.54
-23.87
-26.78
-28.57
-28.62
-26.57
-22.50
-16.92
-10.59
-4.33
1.26
5.92
9.69
12.79
15.46
17.80
19.76
21.23
22.09
22.33
22.09
21.60
21.10
20.74
20.53
20.37
20.14
19.75
19.18
18.50
17.78
17.06
16.32
15.44
14.27
12.67
10.62
8.22
5.68
3.27
1.21
-0.39
-1.57
-2.48
-3.29
-4.17
-5.21
-6.46
-7.93
-9.65
-11.62
-13.85
-16.31
-18.97
-21.77
-24.60
-27.20
-29.21
-30.15
-29.50
-26.92
-22.37
-16.20
-9.08
-1.77
5.06
10.89
15.47
18.78
20.97
22.28
23.04
23.48
23.82
24.13
24.27
24.04
23.38
22.58
22.17
22.83
24.87
28.30
32.64
36.73
39.29
39.53
37.47
33.95
30.34
27.74
27.05
28.54
31.17
33.41
33.95
32.27
28.89
25.34
23.34
25.09
32.19
43.55
55.75
63.58
61.39
44.84
12.74
-32.50
-83.80
-131.25
-166.05
-182.25
-178.10
-156.41
-123.54
-84.13
-47.64
-23.71
-12.32
-10.87
-16.29
-25.51
-36.00
-45.75
-53.19
-57.66
-58.31
-54.61
-47.87
-40.05
-32.88
-27.26
-23.05
-19.33
-15.36
-10.20
-3.26
4.55
11.79
17.28
20.41
21.25
20.53
19.02
17.85
18.13
20.03
23.18
26.88
30.36
32.91
34.14
33.90
32.55
30.71
28.67
26.43
23.78
20.48
16.40
11.66
6.54
1.40
-3.47
-7.99
-12.14
-15.74
-18.34
-19.46
-18.70
-16.08
-12.06
-7.46
-3.12
0.35
2.76
4.28
5.27
6.17
7.26
8.77
10.74
13.17
15.98
19.00
22.02
24.84
27.30
29.31
30.87
32.09
33.11
34.06
35.03
36.02
36.88
37.39
37.29
36.43
34.84
32.73
30.34
27.83
25.24
22.52
19.61
16.57
13.62
11.02
8.99
7.53
6.48
5.55
4.43
2.96
1.11
-0.98
-3.14
-5.21
-7.10
-8.76
-10.15
-11.11
-11.30
-10.22
-7.25
-1.84
6.39
17.51
31.14
46.27
61.28
74.08
82.65
85.61
82.76
75.26
65.14
54.57
44.97
36.72
29.31
21.95
14.19
6.28
-1.15
-7.39
-12.16
-15.79
-19.06
-22.90
-27.94
-34.29
-41.43
-48.45
-54.33
-58.31
-60.14
-60.18
-59.30
-58.67
-59.46
-62.59
-68.42
-76.62
-86.18
-95.59
-103.26
-107.94
-109.04
-106.68
-101.45
-94.10
-85.26
-75.40
-64.93
-54.25
-43.77
-33.79
-24.40
-15.53
-6.98
1.29
9.10
16.06
21.69
25.68
28.00
28.94
28.95
28.52
28.06
27.82
27.91
28.32
28.95
29.63
30.19
30.54
30.67
30.69
30.68
30.68
30.56
30.07
28.98
27.17
24.77
22.14
19.65
17.60
15.98
14.47
12.57
9.75
5.79
0.86
-4.48
-9.55
-13.77
-16.84
-18.72
-19.49
-19.08
-17.23
-13.65
-8.25
-1.49
5.74
12.29
17.15
19.72
20.06
18.80
16.83
15.05
13.84
13.17
12.67
11.73
9.87
6.95
3.13
-1.23
-5.50
-9.24
-11.51
-11.06
-7.07
0.01
7.90
13.08
12.20
4.31
-8.79
-22.40
-30.91
-30.54
-20.94
-5.21
11.61
24.39
30.91
29.24
19.58
4.65
-11.29
-23.91
-29.66
-26.53
-17.01
-2.76
13.08
26.75
34.96
35.96
30.05
19.11
6.57
-4.25
-10.79
-12.73
-11.02
-7.28
-3.16
0.05
1.51
0.90
-1.83
-6.18
-11.73
-17.64
-22.77
-26.06
-26.85
-25.07
-21.33
-16.76
-12.45
-9.42
-8.06
-8.09
-8.91
-9.95
-10.98
-12.02
-13.25
-14.65
-16.00
-16.88
-16.85
-15.77
-13.80
-11.47
-9.39
-8.12
-7.97
-8.91
-10.64
-12.65
-14.41
-15.61
-16.25
-16.62
-17.21
-18.41
-20.30
-22.55
-24.46
-25.25
-24.20
-20.99
-15.75
-9.03
-1.65
5.57
11.98
17.24
21.28
24.19
26.12
27.17
27.44
27.01
26.11
25.05
24.17
23.76
23.93
24.55
25.30
25.84
25.88
25.34
24.32
22.99
21.50
19.89
18.08
16.02
13.75
11.44
9.29
7.50
6.07
4.82
3.46
1.73
-0.49
-3.11
-5.89
-8.51
-10.72
-12.43
-13.73
-14.83
-16.04
-17.58
-19.54
-21.76
-23.83
-25.18
-25.17
-23.38
-19.69
-14.35
-7.94
-1.17
5.27
10.91
15.47
18.89
21.20
22.51
22.94
22.71
22.06
21.24
20.42
19.67
18.94
18.13
17.23
16.26
15.33
14.56
13.92
13.32
12.52
11.34
9.65
7.51
5.09
2.62
0.32
-1.68
-3.34
-4.72
-5.90
-7.02
-8.18
-9.45
-10.85
-12.32
-13.79
-15.18
-16.46
-17.72
-19.09
-20.74
-22.77
-25.10
-27.42
-29.23
-29.98
-29.27
-26.95
-23.24
-18.57
-13.48
-8.44
-3.77
0.34
3.79
6.48
8.35
9.43
9.80
9.65
9.17
8.58
8.04
7.66
7.53
7.67
8.03
8.49
8.88
9.06
8.90
8.37
7.48
6.28
4.82
3.15
1.33
-0.56
-2.45
-4.27
-6.02
-7.70
-9.34
-10.99
-12.65
-14.38
-16.16
-18.00
-19.82
-21.44
-22.61
-23.01
-22.35
-20.48
-17.40
-13.33
-8.65
-3.78
0.88
5.00
8.41
11.06
12.99
14.26
14.94
15.12
14.93
14.53
14.12
13.82
13.71
13.73
13.79
13.79
13.70
13.54
13.29
12.88
12.20
11.15
9.73
8.07
6.35
4.75
3.33
2.02
0.68
-0.81
-2.45
-4.19
-5.91
-7.55
-9.10
-10.62
-12.23
-14.07
-16.25
-18.78
-21.52
-24.06
-25.82
-26.18
-24.74
-21.45
-16.65
-11.00
-5.24
0.03
4.43
7.83
10.27
11.89
12.91
13.54
13.98
14.34
14.68
15.03
15.41
15.82
16.22
16.57
16.75
16.73
16.53
16.26
16.00
15.78
15.47
14.88
13.85
12.36
10.57
8.74
7.11
5.75
4.59
3.46
2.17
0.64
-1.08
-2.90
-4.68
-6.30
-7.75
-9.09
-10.45
-11.97
-13.79
-15.95
-18.35
-20.74
-22.77
-23.96
-23.88
-22.21
-18.86
-14.05
-8.28
-2.26
3.32
7.90
11.26
13.46
14.76
15.40
15.56
15.25
14.46
13.24
11.77
10.36
9.29
8.72
8.59
8.72
8.95
9.25
9.75
10.62
11.88
13.34
14.62
15.34
15.30
14.56
13.41
12.14
10.92
9.73
8.40
6.82
4.92
2.78
0.55
-1.62
-3.62
-5.40
-6.96
-8.30
-9.49
-10.56
-11.62
-12.83
-14.35
-16.29
-18.67
-21.29
-23.74
-25.41
-25.66
-24.00
-20.34
-15.03
-8.80
-2.55
2.88
6.95
9.44
10.48
10.41
9.70
8.80
8.09
7.85
8.23
9.21
10.69
12.47
14.37
16.23
17.93
19.37
20.51
21.32
21.82
22.06
22.09
21.95
21.61
21.01
20.07
18.72
16.96
14.81
12.40
9.87
7.36
4.93
2.56
0.20
-2.22
-4.64
-6.93
-8.83
-10.15
-10.85
-11.10
-11.21
-11.53
-12.34
-13.70
-15.47
-17.28
-18.59
-18.82
-17.49
-14.40
-9.71
-3.95
2.12
7.70
12.26
15.62
17.95
19.55
20.74
21.65
22.35
22.89
23.42
24.16
25.34
27.04
29.10
31.14
32.66
33.20
32.51
30.56
27.58
23.95
20.10
16.38
12.99
9.96
7.25
4.82
2.69
0.94
-0.33
-1.13
-1.62
-2.07
-2.76
-3.85
-5.30
-6.81
-7.98
-8.49
-8.26
-7.61
-7.18
-7.66
-9.53
-12.69
-16.48
-19.78
-21.51
-21.02
-18.37
-14.34
-10.18
-7.20
-6.26
-7.48
-10.13
-12.88
-14.20
-13.00
-9.00
-2.85
4.10
10.42
15.13
18.04
19.75
21.37
24.17
29.19
37.08
47.67
59.78
71.18
79.10
81.18
76.47
65.90
51.99
37.79
25.58
16.24
9.26
3.54
-1.77
-6.77
-11.07
-14.23
-16.26
-17.68
-19.12
-20.97
-23.10
-24.91
-25.67
-24.98
-22.91
-20.10
-17.44
-15.61
-14.86
-14.85
-14.90
-14.42
-13.19
-11.63
-10.56
-10.81
-12.77
-16.13
-19.88
-22.76
-23.81
-22.77
-20.24
-17.34
-15.31
-15.03
-16.78
-20.36
-25.27
-30.92
-36.81
-42.48
-47.47
-51.31
-53.64
-54.37
-53.60
-51.62
-48.78
-45.45
-42.07
-38.87
-35.97
-33.48
-31.68
-30.96
-31.73
-34.23
-38.26
-43.30
-48.20
-51.65
-52.75
-51.33
-47.90
-43.28
-38.23
-33.28
-28.98
-25.39
-22.41
-20.14
-18.84
-18.66
-19.30
-20.03
-19.96
-18.83
-16.26
-12.07
-6.30
1.11
10.59
22.75
37.52
55.47
72.78
83.82
84.72
75.86
60.77
43.38
26.41
11.63
1.01
-4.54
-1.45
12.72
36.54
64.11
87.13
98.48
95.16
79.04
54.87
28.27
4.38
-14.13
-27.17
-35.79
-40.78
-42.16
-39.73
-34.10
-26.34
-18.03
-11.00
-6.49
-4.75
-5.13
-6.57
-8.16
-9.68
-11.22
-13.10
-15.58
-18.49
-21.12
-22.58
-22.21
-20.02
-16.68
-13.05
-9.84
-7.48
-5.94
-4.98
-4.26
-3.59
-2.92
-2.29
-1.72
-1.17
-0.59
0.12
1.07
2.43
4.34
6.89
10.05
13.59
17.15
20.18
22.26
23.16
23.01
22.37
21.99
22.60
24.60
27.93
32.07
36.30
39.89
42.35
43.47
43.29
41.96
39.71
36.80
33.49
30.06
26.73
23.68
21.06
18.95
17.48
16.76
16.92
17.93
19.62
21.61
23.34
24.22
23.68
21.34
17.10
11.15
4.00
-3.64
-11.07
-17.71
-23.22
-27.55
-30.83
-33.31
-35.30
-37.09
-39.00
-41.31
-44.20
-47.68
-51.53
-55.24
-58.12
-59.44
-58.62
-55.41
-49.94
-42.77
-34.69
-26.49
-18.77
-11.78
-5.56
-0.03
4.78
8.68
11.35
12.52
12.14
10.51
8.14
5.65
3.53
2.04
1.18
0.85
0.90
1.27
2.03
3.29
5.15
7.54
10.19
12.62
14.31
14.88
14.30
12.95
11.51
10.62
10.52
10.91
11.02
9.96
7.22
2.88
-2.43
-7.80
-12.44
-15.96
-18.30
-19.76
-20.89
-22.76
-26.90
-34.88
-47.54
-63.95
-81.27
-95.43
-102.89
-102.25
-95.01
-84.81
-75.56
-69.67
-67.16
-66.09
-63.93
-59.07
-51.39
-41.87
-31.56
-20.90
-9.60
2.71
16.08
29.92
43.14
54.63
63.70
70.24
74.66
77.39
78.44
77.72
75.22
71.17
66.07
60.67
55.65
51.73
49.06
46.83
44.17
40.50
35.33
28.36
19.53
9.11
-1.63
-11.30
-19.59
-25.66
-28.31
-26.88
-21.45
-12.78
-2.08
10.31
23.75
35.75
44.81
50.76
53.83
54.62
54.11
53.38
54.73
59.44
65.46
71.10
75.96
79.75
82.48
84.24
76.85
56.71
36.19
19.00
1.64
-16.54
-35.08
-52.90
-68.81
-81.99
-90.15
-92.21
-90.68
-87.88
-84.73
-81.54
-77.91
-72.86
-65.31
-52.57
-33.48
-10.98
10.89
28.86
40.84
46.50
47.24
45.52
46.09
52.71
65.75
83.70
104.54
125.84
144.91
158.74
155.67
129.40
83.28
28.89
-21.04
-58.49
-81.46
-92.33
-95.59
-96.02
-95.61
-94.85
-93.84
-92.48
-89.86
-84.34
-74.24
-58.83
-39.13
-16.69
5.89
25.64
40.09
48.44
51.53
50.98
48.27
43.82
38.00
30.84
22.43
13.89
6.66
3.06
5.26
14.11
27.77
42.28
52.40
53.54
43.00
23.55
1.37
-18.44
-32.45
-40.62
-45.46
-50.09
-56.02
-62.22
-64.63
-61.20
-52.01
-39.59
-28.05
-20.77
-18.56
-19.53
-20.37
-18.41
-13.23
-6.41
-0.37
2.75
2.15
-1.28
-5.52
-8.39
-8.51
-6.04
-2.27
1.12
2.67
1.61
-2.06
-7.99
-15.81
-24.43
-32.24
-36.83
-35.64
-27.24
-12.46
5.53
22.18
33.51
37.74
35.74
30.31
24.58
20.76
19.61
21.06
24.73
30.40
37.71
45.64
52.38
55.77
54.38
48.27
39.63
31.92
28.71
32.16
41.92
55.46
69.30
80.68
88.71
94.51
100.00
106.58
114.52
123.12
131.57
139.53
146.88
152.66
155.06
151.79
141.14
123.23
100.61
78.01
60.81
53.07
56.17
68.44
86.36
106.05
124.12
138.04
146.30
148.41
144.84
136.92
125.69
112.74
100.09
89.33
80.85
74.03
67.76
61.00
53.22
42.30
27.88
11.59
-4.94
-21.92
-41.00
-63.95
-91.60
-123.40
-162.08
-206.90
-253.21
-296.43
-335.92
-374.78
-417.59
-467.93
-526.14
-595.07
-668.34
-730.49
-765.69
-766.52
-735.04
-679.31
-608.86
-531.80
-463.37
-411.31
-373.81
-345.92
-325.23
-310.66
-300.52
-293.51
-232.77
-113.51
19.33
120.32
182.03
222.81
262.22
308.27
357.15
399.60
419.40
412.86
390.81
367.74
351.00
339.69
329.33
316.49
301.15
279.35
252.83
228.77
213.09
205.40
200.94
194.83
184.97
172.41
155.60
136.09
119.06
109.24
107.17
109.37
110.17
103.61
85.52
53.18
9.46
-37.27
-76.98
-102.70
-112.46
-108.87
-97.11
-82.27
-67.30
-54.73
-43.91
-33.42
-22.93
-13.10
-5.01
0.70
3.98
5.35
5.38
4.63
2.99
-0.11
-4.87
-10.37
-14.08
-12.35
-2.20
16.61
41.24
66.22
85.79
96.85
99.96
98.85
97.70
98.23
98.20
92.93
78.22
52.45
20.59
-9.96
-32.31
-43.04
-43.22
-37.28
-30.24
-25.31
-23.14
-22.39
-21.58
-20.07
-18.17
-16.66
-16.05
-16.21
-16.62
-16.63
-16.03
-15.74
-17.42
-22.57
-31.21
-41.10
-47.92
-46.93
-35.43
-14.48
10.85
33.87
49.25
55.25
53.87
48.92
43.49
38.39
32.40
23.63
11.47
-2.87
-16.91
-28.30
-35.84
-39.63
-40.52
-39.50
-37.32
-34.37
-30.87
-26.89
-22.34
-16.93
-10.38
-2.78
5.28
12.63
18.10
21.09
21.83
21.15
19.71
17.46
13.62
7.42
-1.20
-10.83
-18.92
-22.98
-21.86
-16.64
-10.18
-5.69
-5.19
-8.76
-14.11
-17.97
-17.45
-10.92
1.48
17.95
35.24
49.08
54.14
45.98
23.26
-10.26
-45.60
-71.10
-77.04
-60.08
-24.76
17.86
55.72
80.87
91.83
92.43
88.16
82.73
74.37
63.40
49.12
32.51
16.46
4.48
-1.55
-2.26
-0.25
1.71
2.28
1.22
-0.74
-2.97
-5.55
-9.29
-14.87
-22.26
-30.50
-37.74
-42.58
-43.95
-41.22
-34.36
-24.06
-11.71
0.69
11.04
18.06
21.44
22.14
21.69
21.04
19.93
17.11
11.29
2.17
-9.13
-20.83
-31.00
-38.50
-43.21
-45.80
-47.00
-47.12
-46.17
-43.49
-38.89
-32.73
-25.92
-19.53
-14.41
-10.92
-8.79
-7.29
-5.44
-2.57
1.38
5.82
9.75
12.18
12.61
11.28
9.02
6.90
5.74
5.78
6.71
7.92
8.84
9.06
8.42
6.94
4.77
2.00
-1.25
-4.76
-8.07
-10.47
-11.06
-9.19
-4.67
2.15
10.11
17.39
22.01
22.51
18.46
10.64
0.49
-10.52
-20.86
-29.79
-37.14
-42.97
-47.14
-49.20
-48.46
-44.63
-38.15
-29.25
-18.50
-6.57
6.15
18.92
31.15
42.78
53.61
63.29
72.58
82.26
92.77
104.03
115.38
125.50
133.29
137.77
132.82
116.65
91.92
63.69
35.88
12.09
-9.98
-31.78
-53.29
-73.79
-90.54
-101.43
-106.07
-105.50
-101.39
-95.58
-88.88
-81.82
-74.88
-67.68
-60.11
-52.53
-45.51
-39.44
-34.59
-30.43
-26.44
-22.29
-17.36
-11.43
-4.75
1.75
7.19
11.10
14.14
17.23
21.06
25.96
31.75
38.03
44.57
51.38
58.02
63.13
63.98
57.59
42.74
21.77
0.69
-13.09
-14.26
-1.97
20.64
47.24
70.50
84.44
86.00
75.38
54.54
26.04
-7.12
-41.11
-71.80
-93.77
-103.31
-100.47
-88.63
-73.89
-62.86
-59.15
-61.98
-63.95
-56.69
-34.40
3.45
51.89
101.00
138.99
156.95
152.13
127.74
90.02
45.21
-4.16
-52.42
-90.11
-110.69
-113.79
-103.54
-85.38
-64.45
-44.84
-29.55
-19.40
-14.07
-13.11
-15.52
-19.44
-22.66
-23.19
-19.06
-8.92
7.51
27.59
46.62
59.73
64.78
62.98
57.51
52.17
49.51
50.31
53.72
57.11
58.44
59.16
61.57
65.92
71.06
73.42
70.01
60.07
43.18
21.57
-0.37
-18.77
-32.43
-42.23
-50.64
-60.96
-71.98
-85.51
-102.18
-120.75
-132.03
-131.12
-120.13
-105.26
-97.56
-93.03
-87.94
-80.85
-68.61
-54.37
-44.67
-44.74
-55.23
-71.51
-85.13
-90.37
-84.79
-69.59
-49.26
-29.06
-12.01
1.92
14.71
28.57
42.16
52.86
58.84
59.97
58.19
56.88
59.15
66.78
79.40
93.22
103.62
107.37
103.15
91.59
74.82
55.73
38.17
25.35
17.71
13.43
10.13
5.87
-0.08
-7.30
-14.64
-19.58
-19.68
-14.08
-3.19
12.46
32.23
54.93
78.48
92.63
89.83
72.53
51.13
34.06
23.27
16.12
8.95
-0.36
-11.40
-20.64
-24.48
-22.08
-15.80
-9.60
-6.67
-8.14
-13.28
-20.05
-25.04
-25.69
-21.46
-13.43
-3.15
7.74
17.87
25.28
27.16
21.37
7.22
-14.73
-39.50
-61.43
-76.29
-82.83
-82.76
-79.01
-73.23
-65.10
-53.34
-37.04
-17.09
4.36
25.16
44.31
61.75
77.97
93.38
107.81
120.03
127.28
126.02
113.00
86.70
48.85
5.13
-36.00
-66.19
-79.43
-76.34
-63.71
-50.09
-41.35
-38.47
-38.23
-36.32
-30.49
-21.79
-13.87
-10.14
-11.60
-16.48
-21.48
-23.33
-20.39
-12.76
-1.68
10.92
23.30
34.06
41.84
45.25
43.43
36.63
26.02
13.87
2.48
-6.49
-12.59
-16.55
-19.33
-21.52
-22.81
-22.43
-19.82
-15.32
-10.24
-6.39
-5.23
-7.13
-11.07
-15.08
-16.98
-15.34
-9.66
-0.38
11.56
25.13
39.32
53.01
64.81
73.32
77.40
76.95
73.29
68.61
65.22
64.79
67.76
73.32
79.83
84.74
85.65
80.46
67.65
46.74
18.99
-12.28
-42.55
-67.49
-85.39
-96.39
-102.04
-104.29
-104.66
-103.71
-101.42
-98.04
-94.73
-94.68
-99.83
-109.61
-121.53
-132.51
-140.10
-143.24
-142.35
-138.68
-135.18
-132.62
-129.27
-122.77
-112.24
-99.04
-86.25
-77.17
-62.46
-39.90
-12.77
15.37
43.20
69.49
91.37
105.62
110.58
107.53
97.95
85.13
73.00
63.95
58.34
55.66
55.58
57.86
61.91
63.98
60.68
51.06
36.88
22.42
13.21
13.75
25.28
45.00
66.31
80.88
84.74
79.05
68.08
56.34
46.41
38.62
32.01
25.24
18.28
12.47
9.09
8.64
10.39
12.93
14.94
15.88
15.76
15.23
15.13
15.37
14.63
11.00
2.92
-9.69
-25.22
-40.89
-53.63
-60.98
-61.96
-57.14
-48.28
-37.68
-27.74
-19.63
-13.87
-10.06
-7.10
-3.73
0.85
6.74
13.33
19.63
24.61
27.18
26.40
21.68
13.05
1.17
-11.79
-23.23
-31.04
-34.29
-33.73
-31.49
-30.03
-30.53
-31.65
-29.73
-20.76
-2.97
21.40
46.25
64.23
70.18
63.49
48.19
30.57
15.84
5.99
-0.02
-4.52
-8.97
-13.01
-15.19
-14.35
-10.72
-5.97
-2.09
-0.35
-1.03
-3.27
-5.63
-6.89
-6.51
-4.69
-2.21
0.01
1.40
1.83
1.59
1.18
0.89
0.92
1.23
1.83
2.79
4.19
5.91
7.69
9.06
9.55
8.87
6.94
3.71
-0.94
-7.11
-14.40
-21.63
-27.15
-29.63
-28.89
-26.27
-23.84
-23.03
-23.54
-23.30
-19.73
-11.53
0.19
12.32
21.40
25.31
24.16
19.77
14.21
8.68
3.16
-3.19
-10.85
-19.50
-27.99
-34.94
-38.92
-39.97
-38.67
-36.03
-33.12
-30.83
-29.55
-28.99
-28.30
-26.41
-22.33
-15.50
-6.31
4.82
17.14
30.13
43.06
54.67
63.17
66.69
64.18
56.03
44.18
31.43
20.24
12.71
9.71
11.47
17.96
28.61
41.55
53.41
60.02
58.15
47.14
29.28
9.10
-8.65
-20.75
-26.28
-26.11
-22.19
-16.53
-10.80
-6.65
-5.30
-7.96
-15.37
-27.46
-42.86
-58.69
-70.86
-74.80
-68.13
-51.28
-28.01
-4.08
15.03
26.38
30.75
31.93
34.39
40.39
48.49
54.49
53.39
42.49
23.10
0.22
-19.64
-31.20
-33.01
-27.22
-18.11
-9.50
-3.16
1.23
4.85
8.47
11.61
13.03
11.85
8.30
3.48
-1.27
-5.04
-7.71
-9.66
-11.31
-12.76
-13.71
-13.41
-10.93
-5.44
3.44
14.98
27.32
37.45
42.04
38.84
27.87
11.48
-6.50
-22.56
-35.21
-44.99
-53.75
-62.88
-72.18
-79.41
-81.34
-75.43
-60.52
-39.75
-17.89
-0.62
8.55
8.23
0.18
-11.37
-21.43
-26.30
-25.00
-19.01
-11.26
-4.30
0.74
4.59
8.94
15.13
23.26
32.15
40.35
46.49
49.83
50.09
47.35
41.80
33.45
22.30
8.39
-7.65
-24.59
-40.42
-52.90
-59.98
-60.76
-56.01
-47.96
-39.53
-33.07
-29.68
-28.87
-29.90
-31.60
-32.88
-33.08
-31.95
-29.52
-25.83
-21.02
-15.33
-9.18
-2.93
3.21
9.25
15.43
22.11
29.67
38.23
47.45
56.48
64.11
68.91
69.55
65.58
58.33
51.43
49.96
58.50
78.80
108.22
139.65
163.50
170.87
156.36
119.89
66.21
3.34
-59.21
-112.14
-147.99
-162.91
-157.92
-139.38
-116.95
-101.60
-102.12
-121.72
-156.27
-195.94
-229.05
-246.13
-242.84
-218.84
-178.05
-127.34
-74.03
-23.55
20.95
58.05
87.90
112.42
137.47
168.37
206.22
246.93
283.35
307.84
314.66
301.59
270.42
229.24
186.92
149.77
121.55
105.33
103.40
115.83
139.38
148.71
127.75
81.00
26.94
-19.67
-53.62
-76.50
-92.57
-105.85
-118.36
-126.72
-127.41
-119.99
-107.08
-91.28
-74.54
-57.89
-42.49
-30.51
-22.81
-20.68
-25.32
-36.09
-49.54
-61.30
-68.70
-72.02
-73.33
-72.82
-69.73
-62.11
-47.58
-24.75
3.68
30.04
45.22
45.08
33.41
17.93
5.61
-0.39
-0.95
0.52
0.61
-2.34
-7.54
-12.62
-15.29
-14.37
-10.11
-4.08
1.46
4.60
4.52
1.90
-1.68
-4.56
-5.57
-4.20
-0.44
5.61
14.07
24.30
34.84
42.75
44.21
36.29
18.70
-5.41
-30.50
-49.69
-59.08
-58.60
-51.30
-41.33
-31.92
-24.49
-19.08
-15.28
-12.89
-12.07
-12.65
-13.96
-15.14
-15.53
-14.90
-13.58
-12.09
-10.83
-10.12
-10.22
-11.30
-13.19
-14.91
-14.71
-10.67
-1.77
11.08
25.05
36.71
43.54
45.07
42.86
39.10
34.99
29.99
22.59
11.96
-0.48
-11.15
-15.92
-12.74
-3.16
7.95
14.64
13.13
4.18
-7.02
-13.40
-9.67
4.71
25.41
45.30
57.70
59.66
52.73
41.42
30.43
22.55
17.84
14.65
11.28
6.80
1.69
-2.77
-5.51
-6.18
-5.17
-3.25
-1.10
0.85
1.90
1.65
-0.25
-3.99
-9.76
-17.81
-28.57
-42.77
-57.45
-70.30
-79.12
-82.38
-79.44
-70.98
-58.93
-45.96
-34.73
-26.72
-22.78
-22.62
-25.28
-29.47
-34.17
-38.60
-42.25
-44.69
-44.96
-43.18
-40.25
-37.30
-34.77
-32.15
-28.26
-22.05
-13.57
-3.14
7.05
14.48
18.05
19.30
21.73
28.45
39.83
52.59
63.63
70.06
70.36
64.91
55.89
46.10
37.79
33.38
32.97
38.80
51.58
69.83
89.86
106.89
116.06
113.93
99.84
67.00
21.84
-22.19
-53.12
-67.07
-67.64
-61.51
-54.08
-47.81
-42.92
-37.32
-31.17
-27.07
-28.60
-36.68
-49.63
-63.64
-74.01
-76.96
-69.76
-53.59
-33.04
-13.70
0.47
8.55
12.94
17.01
23.63
34.96
50.40
67.04
81.25
90.01
91.84
86.81
75.82
59.86
40.51
19.59
-0.81
-18.67
-33.02
-43.91
-51.66
-56.48
-58.16
-55.86
-48.85
-37.47
-23.74
-11.50
-4.67
-5.15
-12.38
-24.02
-36.73
-46.98
-51.81
-46.16
-28.79
-5.41
15.77
29.91
36.43
37.29
35.16
32.31
29.91
27.49
24.15
19.94
15.85
12.77
11.39
11.92
14.15
17.42
20.43
21.99
21.82
20.48
18.51
16.56
15.18
14.73
15.41
17.12
20.00
24.42
30.15
35.16
36.34
30.16
14.73
-8.69
-35.74
-60.22
-76.46
-80.56
-74.01
-61.07
-46.39
-33.07
-21.98
-12.67
-4.63
2.01
6.54
8.16
7.08
4.51
2.07
1.24
2.59
5.69
9.35
12.27
13.34
12.45
10.26
7.93
6.62
6.98
8.94
11.77
14.38
15.62
14.89
12.18
8.09
3.52
-0.76
-4.33
-7.25
-10.02
-13.31
-17.52
-22.72
-28.66
-34.97
-41.03
-46.01
-48.57
-47.16
-40.74
-29.38
-14.77
0.18
12.37
19.74
22.06
20.90
18.62
17.15
17.20
18.26
19.16
18.88
16.89
13.18
8.08
1.91
-4.97
-12.11
-18.93
-24.71
-28.72
-29.87
-28.10
-23.42
-16.23
-7.43
1.54
9.05
13.86
15.50
14.54
12.14
9.68
8.01
7.19
6.71
5.97
4.68
3.01
1.39
0.17
-0.54
-0.91
-1.26
-1.91
-2.96
-4.29
-5.69
-6.96
-8.06
-8.99
-9.87
-10.78
-11.73
-12.66
-13.52
-14.31
-15.14
-16.17
-17.47
-18.90
-20.14
-20.71
-20.12
-18.04
-14.35
-9.18
-2.72
4.85
13.54
23.38
34.35
46.11
57.91
68.62
77.01
82.05
83.21
80.59
74.80
66.84
57.90
49.35
42.52
38.29
36.48
35.59
33.06
26.15
13.25
-5.25
-26.82
-47.79
-64.48
-74.65
-77.94
-75.18
-67.47
-55.76
-41.12
-25.13
-10.11
1.40
7.55
8.02
4.23
-1.44
-6.62
-9.97
-11.44
-11.87
-12.39
-13.74
-16.04
-18.79
-21.04
-21.69
-19.83
-14.93
-7.03
3.05
13.87
23.56
30.36
33.00
31.17
25.52
17.58
9.12
1.68
-3.87
-7.25
-8.46
-7.48
-4.13
1.58
9.08
16.92
23.19
26.24
25.44
21.43
15.64
9.43
3.31
-3.03
-10.16
-18.16
-26.19
-32.82
-36.72
-37.35
-35.16
-31.25
-26.60
-21.62
-16.06
-9.49
-1.87
6.13
13.25
18.16
19.98
18.66
14.80
9.52
3.88
-1.18
-4.98
-7.07
-7.22
-5.49
-2.28
1.77
5.85
9.24
11.47
12.31
11.78
10.01
7.29
3.97
0.43
-2.99
-5.94
-8.19
-9.51
-9.81
-9.14
-7.81
-6.42
-5.75
-6.38
-8.23
-10.43
-11.52
-10.08
-5.43
2.01
10.87
19.29
25.62
28.64
27.54
21.67
10.59
-5.18
-23.53
-40.05
-50.00
-50.00
-40.00
-23.88
-7.70
3.04
6.10
3.26
-1.02
-2.93
-1.34
2.02
4.53
5.35
6.31
10.38
18.64
28.39
33.80
29.43
14.08
-7.76
-27.63
-37.41
-33.23
-17.15
4.52
24.66
38.24
44.37
44.95
42.48
38.33
32.76
25.83
18.02
10.67
5.74
4.99
9.01
16.68
24.82
28.95
24.83
10.28
-13.43
-41.45
-67.25
-84.79
-90.89
-86.24
-74.45
-59.83
-45.30
-31.38
-16.90
-0.70
16.92
33.67
46.05
50.81
46.26
32.88
13.31
-8.47
-28.19
-42.25
-48.49
-46.40
-36.92
-21.87
-3.51
15.85
33.95
48.52
57.57
59.69
54.69
43.83
29.69
15.33
3.32
-4.92
-9.38
-11.09
-11.43
-11.51
-11.88
-12.49
-13.02
-13.08
-12.42
-11.04
-9.11
-6.94
-4.76
-3.03
-2.05
-2.08
-3.17
-5.19
-7.79
-10.49
-12.81
-14.17
-14.27
-13.23
-11.58
-10.05
-9.20
-9.27
-10.18
-11.61
-12.82
-13.29
-13.01
-12.43
-11.92
-11.37
-10.16
-7.39
-2.32
5.81
16.91
29.63
41.75
51.14
56.57
57.96
56.14
52.51
49.41
49.00
52.52
60.05
70.53
81.99
91.45
95.45
86.69
62.16
26.11
-11.38
-40.74
-58.00
-64.70
-65.43
-64.56
-64.35
-63.74
-60.55
-53.83
-44.56
-35.46
-29.07
-26.80
-28.25
-32.12
-36.25
-39.07
-39.72
-37.28
-30.97
-19.28
-1.72
20.70
44.85
67.18
84.71
94.62
98.03
96.93
92.05
81.51
63.61
36.09
0.63
-37.55
-71.45
-94.93
-105.46
-102.05
-89.80
-74.69
-60.83
-49.29
-39.12
-29.18
-19.09
-10.03
-3.66
-1.47
-3.15
-7.10
-10.99
-13.07
-12.65
-10.14
-6.85
-4.12
-3.20
-4.23
-6.82
-10.19
-13.44
-15.57
-15.42
-12.11
-5.44
3.64
13.78
23.25
30.71
35.59
38.01
38.48
37.45
35.13
31.58
27.30
23.04
19.38
16.91
15.20
13.23
10.16
5.93
1.35
-2.17
-3.56
-2.79
-0.81
0.79
0.68
-1.60
-5.49
-9.76
-13.06
-14.66
-14.55
-13.41
-12.19
-11.72
-12.44
-14.36
-17.12
-20.25
-23.32
-25.88
-27.55
-28.09
-27.46
-25.84
-23.60
-21.00
-18.17
-15.19
-12.17
-9.48
-7.69
-7.35
-8.56
-10.79
-12.84
-13.46
-12.00
-8.59
-3.98
0.82
5.08
8.64
10.36
9.98
7.74
4.36
1.06
-0.79
-0.17
3.19
8.56
14.44
19.40
22.30
22.67
20.64
16.72
11.50
5.49
-0.93
-7.49
-13.81
-19.56
-24.53
-28.56
-31.71
-34.16
-36.29
-38.48
-41.11
-44.22
-47.50
-50.30
-51.66
-50.58
-46.25
-38.35
-27.16
-13.62
0.99
15.22
27.86
38.11
45.64
50.42
52.62
52.43
50.19
46.46
42.05
37.91
34.88
33.31
33.02
33.31
33.32
32.35
30.15
26.92
23.19
19.58
16.53
14.19
12.34
10.56
8.35
5.44
1.86
-1.99
-5.54
-8.33
-10.23
-11.55
-12.93
-15.08
-18.49
-23.27
-29.19
-35.73
-42.14
-47.51
-50.79
-50.97
-47.35
-39.82
-28.95
-15.93
-2.20
10.90
22.29
31.08
36.42
37.55
34.01
26.12
15.34
4.10
-4.81
-9.29
-8.75
-4.44
1.11
5.15
5.84
2.97
-2.19
-7.38
-10.37
-9.59
-4.55
4.17
15.18
26.62
36.58
43.52
46.52
45.45
40.91
33.96
25.73
17.21
9.07
1.58
-5.31
-11.83
-18.26
-24.57
-30.13
-33.83
-34.22
-30.23
-21.65
-9.42
4.64
18.36
30.05
38.79
44.44
47.28
47.64
45.77
41.97
36.84
31.41
26.85
24.12
23.51
24.52
26.12
27.21
27.13
25.73
23.39
20.63
17.83
15.11
12.30
9.10
5.20
0.47
-5.01
-10.88
-16.54
-21.32
-24.65
-26.34
-26.69
-26.45
-26.65
-28.33
-32.12
-37.99
-45.13
-52.00
-56.73
-57.59
-53.55
-44.60
-31.78
-16.85
-1.77
11.85
22.93
30.97
35.86
37.71
36.84
33.80
29.50
25.07
21.65
19.97
20.09
21.38
22.77
23.16
21.96
19.26
15.75
12.46
10.17
9.18
9.09
9.13
8.50
6.73
3.86
0.28
-3.56
-7.39
-11.19
-15.11
-19.26
-23.53
-27.73
-31.65
-35.19
-38.29
-40.85
-42.45
-42.54
-40.49
-35.99
-29.18
-20.71
-11.52
-2.54
5.55
12.45
18.14
22.70
26.10
28.22
28.93
28.28
26.57
24.44
22.59
21.61
21.70
22.65
23.95
25.11
25.81
25.98
25.76
25.21
24.24
22.54
19.74
15.69
10.56
4.87
-0.75
-5.85
-10.34
-14.54
-18.92
-23.89
-29.67
-36.23
-43.38
-50.80
-57.84
-63.44
-66.16
-64.51
-57.65
-45.79
-30.42
-13.81
1.68
14.47
23.98
30.54
34.82
37.34
38.31
37.74
35.75
32.73
29.37
26.34
24.05
22.52
21.36
20.07
18.33
16.16
13.93
12.11
10.97
10.37
9.76
8.46
5.96
2.19
-2.44
-7.29
-11.71
-15.40
-18.32
-20.68
-22.73
-24.74
-26.97
-29.72
-33.19
-37.26
-41.33
-44.31
-44.87
-41.83
-34.68
-23.80
-10.43
3.63
16.62
27.29
35.07
40.01
42.45
42.71
40.99
37.52
32.73
27.40
22.45
18.67
16.36
15.32
15.11
15.27
15.60
16.06
16.59
16.85
16.34
14.60
11.55
7.55
3.31
-0.50
-3.49
-5.68
-7.44
-9.25
-11.57
-14.68
-18.78
-23.92
-30.00
-36.77
-43.87
-50.91
-57.39
-62.59
-65.53
-65.16
-60.67
-51.85
-39.37
-24.80
-10.22
2.42
12.00
18.39
22.26
24.49
25.69
26.27
26.28
25.69
24.59
23.46
22.94
23.54
25.25
27.55
30.15
32.60
34.28
34.69
33.92
32.58
31.38
30.65
30.15
30.41
31.52
32.83
33.28
32.50
30.90
29.31
28.31
28.01
29.98
34.83
41.19
46.06
46.67
41.65
31.37
17.94
4.78
-1.74
3.23
20.35
46.24
76.16
106.26
134.50
160.60
169.24
152.39
114.86
70.06
28.45
-6.29
-34.23
-56.30
-73.31
-86.13
-93.23
-93.85
-89.37
-82.80
-76.80
-72.76
-71.01
-71.41
-73.64
-75.31
-74.65
-71.67
-67.77
-64.23
-61.41
-58.99
-56.47
-53.58
-49.20
-42.97
-35.88
-29.72
-25.85
-24.60
-25.45
-27.51
-29.96
-31.62
-31.08
-27.84
-22.11
-14.35
-5.23
4.35
13.34
20.75
26.16
29.56
31.02
30.65
28.53
24.75
19.49
13.06
5.98
-1.06
-7.35
-12.41
-16.06
-18.42
-19.84
-20.70
-21.25
-21.48
-21.25
-20.40
-19.06
-17.59
-16.57
-16.47
-17.49
-19.43
-21.79
-23.91
-25.28
-25.75
-25.59
-25.31
-25.49
-26.54
-28.50
-31.05
-33.59
-35.36
-35.62
-33.80
-29.61
-23.17
-15.07
-6.27
2.16
9.25
14.47
17.74
19.26
19.36
18.25
16.06
13.00
9.50
6.23
3.88
2.93
3.41
4.94
6.86
8.59
9.79
10.51
10.99
11.48
12.05
12.48
12.42
11.55
9.75
7.20
4.27
1.40
-1.09
-3.07
-4.63
-5.96
-7.34
-9.01
-11.24
-14.24
-18.10
-22.57
-26.96
-30.20
-31.09
-28.71
-22.84
-14.16
-4.02
5.96
14.44
20.75
24.90
27.35
28.61
28.99
28.60
27.46
25.72
23.71
21.85
20.42
19.47
18.77
17.97
16.76
15.06
13.02
10.91
9.04
7.55
6.39
5.30
3.93
2.02
-0.56
-3.71
-7.22
-10.83
-14.34
-17.64
-20.66
-23.34
-25.56
-27.23
-28.39
-29.33
-30.52
-32.33
-34.77
-37.25
-38.73
-37.94
-33.82
-26.01
-14.94
-1.75
12.18
25.52
37.32
46.95
54.09
58.79
61.37
62.31
62.18
61.64
61.16
60.88
60.51
59.53
57.68
54.79
50.70
45.36
38.99
32.13
25.40
19.26
13.83
9.70
6.97
5.04
2.84
-0.47
-5.01
-10.31
-15.66
-20.41
-23.01
-22.72
-20.10
-16.65
-13.50
-10.58
-6.74
-0.49
9.37
24.79
46.25
71.99
98.54
122.36
140.92
152.73
157.01
144.17
110.52
61.72
10.20
-33.35
-64.56
-83.98
-94.26
-98.26
-98.33
-94.75
-87.97
-79.60
-72.10
-67.31
-65.36
-64.97
-64.44
-62.55
-58.18
-51.66
-44.93
-40.44
-39.41
-41.04
-43.08
-43.35
-40.69
-34.97
-27.56
-20.89
-17.30
-17.98
-22.74
-30.12
-37.97
-43.33
-42.87
-34.15
-17.09
5.69
29.57
49.39
61.56
65.87
65.05
62.77
61.22
59.77
55.58
45.79
29.64
9.60
-9.13
-20.95
-21.42
-9.31
12.34
36.51
54.61
59.44
48.39
24.55
-4.53
-30.18
-45.58
-49.52
-45.45
-38.59
-32.77
-28.66
-24.54
-18.42
-9.91
-0.83
5.86
7.99
5.33
-0.51
-7.00
-11.95
-14.47
-15.35
-16.31
-19.06
-24.29
-31.52
-39.79
-47.62
-53.51
-56.14
-54.39
-47.34
-34.53
-16.28
6.09
29.93
52.76
72.37
86.68
93.74
92.22
82.10
65.32
45.58
26.33
11.23
1.92
-2.65
-5.54
-9.76
-16.66
-25.63
-35.35
-46.42
-59.44
-74.79
-91.77
-107.44
-116.78
-114.29
-96.86
-58.49
-8.40
39.01
72.20
87.12
86.87
78.50
68.83
61.59
57.40
54.24
52.05
52.36
55.94
61.74
65.43
61.71
46.64
20.08
-14.53
-49.60
-75.07
-84.76
-79.26
-64.01
-45.67
-29.10
-16.17
-7.15
-0.97
3.22
5.55
6.03
5.13
3.66
2.30
1.49
1.02
1.05
1.85
3.60
5.47
6.43
4.97
0.11
-8.05
-18.42
-29.51
-40.74
-52.18
-64.24
-76.18
-85.16
-86.74
-76.86
-54.32
-20.78
14.82
43.74
60.23
63.27
56.11
44.23
32.74
24.73
20.99
20.36
21.49
22.67
22.58
20.39
16.20
11.09
6.63
4.59
6.16
12.46
23.02
35.92
47.78
54.46
52.41
40.19
19.78
-4.48
-25.32
-37.72
-40.78
-38.05
-35.38
-37.58
-45.47
-54.88
-58.72
-49.76
-25.29
10.87
49.03
77.18
85.60
70.65
36.22
-8.19
-50.71
-81.41
-94.71
-89.75
-69.39
-38.76
-3.86
29.34
54.72
68.72
71.06
63.65
49.77
33.03
16.66
3.27
-5.21
-8.04
-5.66
-0.13
5.50
8.52
7.70
3.47
-2.13
-6.67
-8.42
-6.81
-2.79
1.70
4.72
5.12
2.94
-0.67
-4.08
-5.88
-5.38
-2.92
0.32
2.91
3.79
2.70
0.28
-2.29
-3.75
-3.37
-1.25
1.69
4.18
5.19
4.32
2.01
-0.75
-2.79
-3.27
-1.75
1.68
6.56
11.94
16.34
18.00
15.47
8.55
-1.35
-11.46
-18.74
-21.29
-19.19
-14.37
-9.54
-6.78
-6.56
-7.81
-8.78
-8.12
-5.49
-1.61
2.42
5.69
7.76
8.73
8.96
8.65
7.76
5.99
3.05
-1.21
-6.49
-12.17
-17.23
-20.58
-21.38
-19.28
-14.69
-8.74
-2.97
1.24
3.17
2.95
1.30
-1.08
-3.82
-6.98
-10.76
-14.95
-18.74
-20.92
-20.47
-17.14
-12.01
-6.84
-3.49
-3.11
-5.68
-10.00
-14.21
-17.07
-17.08
-13.46
-7.00
0.63
7.68
12.87
15.91
17.60
19.57
23.88
30.32
38.44
46.82
53.22
55.32
51.52
41.62
26.89
9.72
-7.24
-21.59
-31.85
-37.68
-39.67
-38.99
-37.06
-35.21
-34.49
-35.60
-38.61
-43.12
-48.27
-53.05
-56.54
-58.14
-57.69
-55.34
-51.47
-46.34
-40.20
-33.37
-26.33
-19.70
-14.06
-9.57
-5.73
-1.55
4.14
11.99
21.66
31.69
39.84
44.06
43.28
38.03
30.18
22.37
16.98
15.54
18.31
24.37
32.11
39.78
45.95
49.66
50.48
48.56
44.71
39.75
34.22
28.33
22.11
15.81
9.94
5.23
2.46
2.68
6.18
12.21
19.43
26.80
34.13
42.05
51.41
62.62
75.97
90.30
102.93
110.81
112.05
106.88
97.34
86.36
76.87
72.13
73.75
81.02
91.30
101.14
107.11
106.16
96.05
69.54
26.59
-24.45
-71.08
-104.43
-122.69
-128.94
-127.73
-122.74
-116.08
-107.52
-97.01
-85.70
-75.67
-68.53
-64.53
-62.74
-61.69
-60.08
-56.41
-50.37
-43.05
-36.32
-31.57
-29.10
-28.24
-27.97
-27.37
-25.42
-21.90
-17.50
-13.38
-10.46
-8.94
-8.43
-8.32
-8.08
-7.14
-5.44
-3.32
-1.39
-0.10
0.51
0.68
0.74
0.97
1.54
2.41
3.32
4.00
4.29
4.31
4.30
4.51
5.06
5.82
6.54
6.89
6.74
6.14
5.44
5.07
5.35
6.38
7.84
9.26
10.06
9.92
8.90
7.42
6.03
5.09
4.55
3.89
2.39
-0.72
-5.86
-13.13
-22.15
-32.08
-41.55
-48.69
-51.55
-48.76
-40.36
-27.98
-14.55
-3.22
4.01
6.81
6.50
4.96
3.58
2.60
1.33
-1.06
-4.74
-8.87
-11.99
-12.66
-10.13
-4.43
3.70
13.12
22.43
30.07
34.56
34.87
30.85
23.28
13.81
4.23
-4.02
-10.34
-14.78
-17.66
-19.23
-19.72
-19.58
-19.62
-20.68
-22.93
-25.66
-27.29
-26.00
-20.62
-11.18
1.06
13.97
24.89
32.36
36.03
36.30
33.91
29.73
24.64
19.47
14.84
11.12
8.44
6.66
5.54
4.88
4.47
4.17
3.84
3.38
2.76
2.11
1.59
1.28
1.21
1.32
1.48
1.56
1.42
1.05
0.55
0.11
-0.10
0.05
0.53
1.19
1.79
2.09
1.94
1.41
0.79
0.40
0.55
1.31
2.50
3.71
4.48
4.52
3.86
2.92
2.25
2.38
3.47
5.26
7.11
8.33
8.57
7.80
6.50
5.29
4.73
5.09
6.49
8.90
12.03
15.09
16.68
15.11
9.10
-1.26
-14.35
-27.24
-36.89
-41.47
-40.98
-36.97
-31.39
-25.59
-19.76
-13.39
-6.09
1.76
8.97
14.21
16.74
16.89
15.79
14.76
14.74
15.84
17.40
18.33
17.63
14.83
10.17
4.50
-0.99
-5.26
-7.69
-8.31
-7.63
-6.38
-5.19
-4.41
-4.06
-3.99
-4.08
-4.28
-4.70
-5.55
-6.95
-8.89
-11.10
-13.15
-14.45
-14.45
-12.77
-9.41
-4.78
0.38
5.26
9.17
11.72
12.81
12.73
11.93
10.74
9.24
7.30
4.83
1.83
-1.55
-5.08
-8.43
-11.18
-13.25
-14.97
-16.97
-19.87
-24.08
-29.73
-36.57
-43.73
-49.94
-54.04
-55.31
-53.69
-49.73
-44.69
-39.65
-36.75
-37.88
-42.74
-48.41
-50.12
-43.51
-25.88
3.19
40.38
79.40
113.20
136.40
146.66
144.74
133.26
115.17
92.55
66.53
38.13
9.44
-16.28
-35.71
-46.79
-49.65
-46.26
-39.39
-31.46
-23.58
-15.61
-6.86
2.83
12.56
20.55
25.17
25.39
21.05
12.79
1.84
-10.34
-22.35
-33.05
-41.46
-46.36
-46.87
-42.88
-35.32
-25.79
-16.05
-7.27
-0.02
5.91
11.73
18.47
26.30
34.28
41.04
45.48
47.50
47.35
45.67
44.00
43.68
45.27
48.47
52.53
56.73
60.85
63.83
60.92
49.64
30.80
8.46
-12.87
-30.57
-43.93
-52.77
-58.96
-64.78
-70.80
-76.20
-78.44
-73.68
-58.26
-31.42
5.99
47.55
84.78
111.70
125.99
128.81
122.83
110.14
87.48
56.71
21.16
-18.29
-57.54
-91.41
-116.32
-132.17
-142.13
-150.63
-153.54
-149.76
-139.24
-122.76
-102.91
-83.19
-66.61
-54.30
-44.66
-34.53
-22.45
-8.06
8.11
24.19
37.88
47.59
53.36
58.65
66.08
76.47
89.37
103.21
115.44
123.58
126.13
119.57
106.56
90.49
73.64
57.22
41.70
27.05
13.22
0.34
-11.11
-19.77
-25.05
-27.11
-26.86
-25.80
-25.73
-28.00
-32.90
-39.55
-45.87
-50.48
-52.87
-53.36
-52.67
-51.59
-50.47
-49.22
-47.57
-45.05
-41.90
-38.54
-35.77
-33.43
-31.24
-28.74
-25.51
-21.34
-16.25
-10.73
-5.32
-0.33
4.31
8.78
13.28
17.76
22.00
25.66
28.43
30.17
30.79
30.18
28.07
24.21
18.65
11.94
5.01
-1.16
-6.01
-9.64
-12.61
-15.50
-18.39
-20.76
-21.68
-20.58
-17.73
-14.21
-11.54
-10.91
-12.80
-16.96
-22.43
-27.61
-30.74
-30.38
-25.91
-17.88
-7.99
1.26
7.38
9.16
7.82
6.21
7.52
13.60
24.20
37.33
50.38
61.12
68.62
73.58
77.02
79.81
82.47
85.75
90.89
99.12
110.13
117.49
113.97
95.05
62.55
23.54
-13.59
-42.64
-61.13
-71.75
-77.87
-81.14
-81.83
-79.52
-74.21
-66.86
-59.35
-52.62
-48.19
-46.61
-46.92
-47.31
-45.91
-41.61
-34.55
-25.91
-17.50
-11.32
-8.27
-7.83
-8.55
-8.90
-7.99
-6.00
-3.78
-2.55
-3.41
-6.30
-10.00
-12.97
-14.11
-13.31
-11.25
-8.72
-6.29
-4.36
-2.68
-0.78
1.43
3.64
5.61
7.69
10.92
16.00
22.08
27.17
28.57
23.72
11.40
-7.31
-29.61
-49.06
-58.41
-54.64
-40.28
-21.11
-2.63
12.15
22.81
30.32
35.65
40.27
42.36
40.12
33.36
23.51
13.05
4.47
-0.56
-1.38
1.83
7.76
14.19
19.90
24.50
28.24
31.73
35.54
39.98
45.32
50.99
56.18
60.36
63.40
65.41
66.52
66.56
61.63
50.21
33.78
15.80
-0.69
-14.49
-25.78
-35.18
-43.09
-49.98
-55.42
-59.19
-61.55
-63.10
-64.34
-65.41
-66.08
-66.12
-64.38
-59.97
-52.75
-43.34
-32.88
-22.56
-13.57
-6.66
-2.18
0.03
1.09
2.51
5.46
10.40
16.89
23.50
28.59
30.71
27.77
19.36
6.93
-7.16
-20.60
-31.09
-36.29
-33.37
-20.44
1.92
30.02
57.82
78.71
88.20
87.57
79.21
67.28
55.93
47.83
43.74
43.09
44.48
46.71
49.11
51.12
52.46
52.65
51.00
46.14
38.10
27.79
16.79
6.81
-1.18
-6.77
-10.48
-13.47
-17.04
-22.13
-29.14
-37.91
-47.69
-57.61
-66.59
-73.76
-78.70
-81.43
-82.28
-81.89
-80.95
-80.05
-79.60
-79.63
-79.69
-78.94
-76.26
-70.53
-61.16
-48.43
-33.52
-18.25
-4.47
6.47
14.03
18.43
20.40
20.79
20.33
19.57
18.98
18.94
19.65
21.04
22.67
23.84
23.82
22.18
19.00
14.80
10.34
6.32
3.16
1.04
-0.09
-0.42
-0.26
-0.07
-0.47
-2.18
-5.78
-11.43
-18.59
-26.07
-32.39
-36.11
-36.25
-32.44
-25.05
-15.11
-4.10
6.62
15.94
23.26
28.44
31.76
33.74
34.73
34.90
34.30
33.39
33.07
34.29
37.59
42.79
49.12
55.53
61.10
63.73
61.73
54.45
42.54
27.44
10.95
-4.98
-18.36
-27.75
-32.76
-33.94
-32.55
-29.95
-27.15
-24.63
-22.43
-20.51
-18.87
-17.65
-16.83
-16.22
-15.65
-15.05
-14.42
-13.74
-12.96
-12.05
-11.02
-9.96
-9.05
-8.56
-8.71
-9.52
-10.68
-11.61
-11.78
-10.94
-9.34
-7.66
-6.76
-7.30
-9.36
-12.30
-14.99
-16.45
-16.12
-14.26
-11.72
-9.54
-8.63
-9.72
-13.32
-19.53
-27.44
-34.63
-37.72
-33.16
-19.29
2.40
27.22
49.03
62.74
65.96
60.54
50.49
39.79
30.70
23.42
17.12
11.21
6.06
2.72
2.07
3.88
6.89
9.45
10.15
8.60
5.58
2.41
0.50
0.67
2.73
5.65
8.08
8.99
8.11
6.02
3.83
2.67
3.18
5.18
7.80
9.98
10.93
10.58
9.46
8.45
8.26
9.05
10.44
11.97
13.45
15.05
16.87
18.31
17.85
13.61
4.38
-9.33
-25.20
-40.00
-50.96
-56.90
-58.23
-56.00
-50.75
-42.11
-29.43
-13.55
3.06
16.80
24.61
25.68
21.89
16.85
13.96
14.62
17.69
20.39
19.89
14.67
5.31
-6.02
-16.59
-24.44
-29.08
-31.67
-33.94
-36.89
-39.86
-40.81
-37.34
-28.21
-14.08
2.80
19.72
34.78
47.32
57.57
65.76
71.49
73.93
72.15
67.04
60.13
52.99
46.32
39.53
31.30
20.71
8.15
-4.92
-16.41
-24.82
-29.86
-32.35
-33.61
-34.63
-35.69
-36.45
-36.52
-35.79
-34.74
-33.96
-33.76
-33.85
-33.57
-32.34
-30.04
-27.24
-24.85
-23.77
-24.31
-26.06
-27.96
-28.84
-27.91
-24.94
-20.24
-14.35
-7.91
-1.39
4.78
10.25
14.67
17.74
19.39
19.80
19.34
18.40
17.25
15.92
14.29
12.27
10.01
8.03
7.03
7.52
9.46
12.11
14.22
14.51
12.73
9.63
6.79
5.73
7.16
10.56
14.48
17.34
18.22
17.35
15.41
13.38
11.90
11.07
10.52
9.79
8.34
6.08
2.99
-0.81
-4.93
-8.60
-10.77
-10.58
-7.46
-1.55
6.19
14.22
20.86
24.92
25.91
24.09
20.14
14.89
9.01
2.95
-3.02
-8.63
-13.53
-17.26
-19.51
-20.22
-19.69
-18.44
-17.08
-15.99
-15.26
-14.71
-14.06
-13.17
-12.17
-11.30
-10.75
-10.55
-10.55
-10.58
-10.56
-10.60
-10.95
-11.89
-13.50
-15.64
-18.03
-20.40
-22.67
-24.97
-27.65
-30.54
-33.60
-36.54
-38.74
-39.30
-37.33
-32.31
-24.37
-14.25
-3.12
7.76
17.52
25.78
32.61
38.23
42.80
46.34
48.76
49.96
49.91
48.75
46.74
44.19
41.36
38.45
35.55
32.69
29.79
26.70
23.20
19.04
14.01
8.11
1.57
-5.11
-11.38
-16.75
-20.96
-23.98
-26.05
-27.56
-28.90
-30.44
-32.41
-34.94
-37.98
-41.13
-43.83
-45.56
-45.96
-44.74
-41.74
-36.88
-30.31
-22.41
-13.45
-3.89
5.56
14.07
21.16
26.80
31.28
34.90
37.79
40.26
42.32
43.55
43.34
41.57
38.70
35.45
32.42
29.93
28.97
30.60
35.59
43.80
54.26
65.07
73.62
77.31
70.74
52.55
27.02
1.58
-18.44
-31.99
-41.26
-49.16
-56.97
-64.61
-70.79
-74.62
-75.36
-73.84
-71.11
-67.60
-63.00
-56.66
-48.25
-37.64
-25.59
-13.78
-4.40
1.06
2.42
0.56
-3.17
-7.60
-11.64
-14.64
-16.58
-18.01
-19.50
-21.01
-22.21
-22.79
-22.70
-21.87
-20.35
-18.38
-16.44
-15.02
-13.78
-12.25
-10.24
-8.08
-6.27
-5.06
-4.44
-4.28
-4.39
-3.55
-0.89
3.59
8.84
13.59
17.21
20.10
23.39
28.53
38.05
53.71
75.43
101.20
128.06
153.30
175.08
192.45
196.64
182.13
149.75
107.11
63.46
24.89
-6.48
-31.10
-50.62
-66.98
-80.26
-89.63
-93.90
-92.19
-84.37
-71.44
-55.91
-41.48
-31.82
-27.85
-28.06
-29.47
-29.28
-25.98
-19.61
-11.48
-3.43
3.03
7.78
11.20
13.47
14.24
13.17
10.53
7.47
5.49
5.74
8.72
13.69
18.88
22.11
21.70
17.07
8.85
-1.48
-12.02
-20.91
-26.76
-29.05
-28.12
-24.94
-20.77
-16.76
-13.67
-11.86
-11.27
-11.53
-12.08
-12.27
-11.61
-9.90
-7.49
-5.06
-3.38
-3.02
-3.84
-5.22
-6.27
-6.19
-4.74
-2.49
-0.60
-0.34
-2.53
-7.09
-13.09
-19.15
-24.11
-27.52
-29.81
-32.01
-35.15
-40.07
-47.10
-56.25
-66.78
-76.76
-83.05
-81.98
-70.73
-49.06
-20.08
10.61
36.76
53.89
60.96
60.32
55.87
51.04
47.53
45.26
43.28
40.79
37.71
34.60
32.08
30.45
29.62
29.25
28.85
28.27
27.57
27.04
26.96
27.39
27.92
27.99
27.14
25.39
23.32
21.95
22.37
25.17
29.76
34.15
35.27
30.36
18.40
1.06
-17.81
-33.74
-43.80
-47.88
-48.42
-48.58
-50.22
-53.02
-54.72
-53.19
-47.91
-40.52
-33.61
-29.03
-26.50
-23.77
-18.12
-8.30
4.41
16.22
22.79
21.54
12.83
-0.51
-14.66
-26.59
-34.45
-36.94
-32.33
-18.63
5.21
36.87
69.83
94.93
103.85
93.14
65.66
30.52
-2.20
-25.35
-36.99
-39.29
-36.12
-30.69
-24.46
-17.83
-11.23
-5.98
-3.87
-6.39
-13.41
-22.60
-29.76
-30.06
-20.46
-1.83
20.51
38.57
45.32
38.35
21.34
2.21
-10.88
-13.86
-8.42
-0.26
4.84
4.68
1.50
0.12
4.63
16.19
32.58
49.78
63.44
70.14
67.87
56.13
35.95
10.15
-16.52
-38.12
-49.22
-46.85
-32.14
-9.84
13.21
30.71
38.87
37.30
28.33
15.60
2.80
-7.45
-13.03
-12.50
-5.36
7.14
21.67
33.60
38.59
34.66
22.53
5.85
-10.82
-23.83
-31.72
-35.06
-35.39
-34.03
-31.63
-29.08
-26.83
-25.21
-24.33
-24.08
-24.36
-25.45
-28.07
-29.72
-31.22
-33.97
-38.97
-46.31
-55.13
-64.12
-71.91
-76.72
-77.53
-75.40
-72.28
-70.09
-70.09
-72.67
-77.46
-83.40
-87.78
-87.75
-82.31
-71.82
-57.19
-39.65
-20.91
-3.03
12.06
24.95
37.43
50.81
66.04
84.21
106.31
132.34
160.91
179.75
179.01
159.69
131.19
102.11
76.84
56.93
42.30
31.71
23.25
16.57
11.86
8.64
6.06
3.86
2.27
1.74
2.40
4.40
8.82
15.56
22.49
25.21
19.92
5.64
-14.95
-36.62
-53.44
-59.75
-54.46
-41.55
-27.36
-16.64
-10.34
-5.81
0.49
10.59
23.95
37.23
46.22
48.65
44.50
35.78
26.83
20.52
17.15
15.10
12.00
6.86
0.68
-4.18
-5.53
-2.74
2.62
7.89
10.73
9.97
5.94
0.44
-4.63
-8.03
-9.56
-9.91
-10.18
-11.19
-13.48
-16.81
-20.40
-23.61
-26.12
-28.10
-29.62
-30.43
-30.15
-29.07
-27.67
-26.36
-25.32
-24.41
-23.61
-22.84
-22.33
-22.90
-26.15
-32.45
-40.37
-47.29
-50.74
-50.07
-46.04
-40.45
-35.38
-33.24
-34.94
-40.01
-47.85
-54.70
-59.50
-61.52
-59.93
-48.30
-26.12
1.27
26.77
45.87
57.37
61.83
61.17
57.62
53.01
47.48
41.21
34.94
29.64
26.08
24.10
23.42
23.55
23.93
23.31
21.14
17.86
14.41
11.69
9.97
9.34
9.61
10.40
10.71
9.91
8.02
5.50
3.04
1.13
0.17
0.31
1.39
2.58
3.10
2.55
0.96
-1.21
-3.28
-4.57
-4.64
-3.48
-1.79
-0.43
0.05
-0.53
-1.82
-3.19
-3.93
-3.21
0.12
7.14
18.63
33.89
49.86
61.58
63.75
53.42
31.35
3.51
-22.79
-41.83
-51.39
-52.45
-47.15
-36.94
-22.30
-4.06
15.33
31.52
40.13
39.05
29.63
15.90
2.27
-8.47
-15.69
-20.31
-23.53
-25.84
-27.17
-27.46
-27.05
-26.61
-26.73
-27.60
-29.07
-30.66
-31.60
-30.88
-27.48
-20.90
-11.65
-1.25
8.27
15.24
19.08
20.50
21.00
22.13
24.85
29.29
35.07
41.64
48.39
54.58
59.30
61.49
60.39
55.68
47.42
36.25
23.29
10.21
-1.07
-9.04
-13.31
-14.63
-14.54
-14.46
-14.78
-14.96
-14.43
-13.54
-14.06
-18.73
-29.66
-46.83
-67.16
-85.14
-94.70
-91.73
-75.78
-50.12
-21.61
3.07
19.47
26.64
26.81
23.59
19.97
17.19
14.76
11.73
7.97
4.41
2.51
3.12
5.90
9.40
11.96
12.29
10.26
6.88
3.65
1.86
1.99
3.69
5.96
7.67
8.08
7.06
5.16
3.16
1.80
1.40
1.92
2.98
4.11
4.89
5.10
4.74
3.94
2.96
2.10
1.66
1.87
2.79
4.19
5.62
6.54
6.53
5.57
4.07
2.74
2.29
3.12
5.09
7.65
10.13
12.01
12.96
12.73
11.10
7.98
3.66
-1.07
-5.13
-7.68
-8.67
-9.11
-10.66
-14.69
-21.18
-28.42
-33.47
-33.52
-27.28
-15.71
-1.76
10.79
18.80
20.81
17.65
11.69
5.67
1.29
-0.68
-0.29
2.07
5.98
11.08
16.82
22.13
25.47
25.41
21.38
13.96
5.49
-1.38
-4.65
-3.99
-1.00
1.57
1.04
-3.83
-12.29
-21.99
-30.07
-34.27
-33.73
-29.12
-22.13
-14.80
-8.71
-4.73
-2.99
-3.16
-4.59
-6.54
-8.25
-9.11
-8.76
-7.23
-4.93
-2.50
-0.54
0.73
1.57
2.58
4.33
7.07
10.55
14.10
16.94
18.43
18.26
16.40
12.98
8.31
2.99
-1.92
-5.01
-5.05
-1.65
4.30
10.55
14.40
13.94
9.17
2.16
-4.01
-6.70
-4.98
0.22
6.72
12.32
15.63
16.31
14.99
12.36
8.77
4.24
-1.18
-6.91
-11.81
-14.67
-14.67
-11.47
-5.64
1.79
9.68
17.06
23.12
26.97
27.38
22.15
11.05
-4.34
-20.88
-34.87
-43.96
-47.51
-46.36
-42.68
-39.00
-37.08
-37.66
-40.40
-44.28
-48.21
-51.46
-53.05
-52.87
-51.29
-48.78
-45.96
-43.46
-41.73
-40.84
-40.27
-38.99
-36.05
-30.78
-23.07
-13.56
-3.36
6.45
15.17
22.68
29.29
35.22
40.50
44.96
48.16
49.57
48.73
45.38
39.83
33.06
26.73
22.83
23.05
27.93
36.38
45.90
53.30
55.98
52.76
44.28
32.43
19.51
7.29
-3.48
-12.87
-21.20
-28.44
-33.95
-36.73
-35.82
-30.91
-22.53
-11.92
-0.58
10.19
19.60
27.34
33.37
37.62
39.87
39.87
37.53
33.13
27.17
20.13
12.10
2.66
-8.89
-23.10
-39.82
-57.88
-75.27
-89.71
-99.34
-103.21
-101.44
-95.01
-85.53
-74.91
-65.06
-57.76
-54.10
-54.20
-56.87
-59.88
-60.55
-56.70
-47.30
-32.86
-15.21
3.26
20.43
34.92
46.16
54.12
58.95
60.82
59.88
56.40
51.04
44.83
39.07
34.96
33.32
34.31
37.53
41.86
45.57
46.84
44.40
38.12
29.22
19.94
12.81
10.27
13.31
21.19
31.77
42.43
50.91
55.78
56.44
53.24
48.22
43.64
41.36
42.37
46.93
54.63
64.44
74.68
83.75
91.94
99.73
107.16
113.66
118.52
121.25
121.69
119.72
115.70
112.16
111.23
113.71
119.08
126.54
135.62
146.22
157.71
155.55
130.47
82.55
21.57
-40.22
-94.05
-135.93
-164.43
-183.74
-197.11
-204.76
-206.46
-202.64
-194.85
-183.60
-169.95
-154.96
-139.91
-125.52
-110.86
-95.23
-78.85
-62.97
-49.12
-38.48
-31.46
-28.00
-27.34
-27.66
-27.53
-26.31
-24.16
-21.51
-18.76
-16.07
-13.61
-11.38
-9.01
-6.34
-3.53
-1.00
0.74
1.28
0.40
-1.95
-5.47
-9.51
-13.29
-16.11
-17.58
-17.67
-16.75
-15.36
-13.96
-12.68
-11.26
-9.20
-5.94
-1.17
5.03
12.25
19.80
26.97
33.07
37.55
40.05
40.45
38.93
35.99
32.38
28.88
26.14
24.50
23.92
24.13
24.67
25.15
25.21
24.60
23.17
20.88
17.79
14.05
9.91
5.68
1.68
-1.84
-4.80
-7.31
-9.70
-12.39
-15.68
-19.51
-23.27
-25.97
-26.55
-24.33
-19.39
-12.55
-5.20
1.35
6.19
9.18
10.81
11.96
13.51
16.03
19.60
23.69
27.25
29.01
27.82
23.23
15.88
7.51
0.52
-2.90
-1.77
3.27
10.10
16.00
18.70
17.11
11.46
2.92
-6.94
-16.68
-25.05
-31.11
-34.27
-34.45
-32.25
-28.84
-25.56
-23.30
-22.13
-21.26
-19.45
-15.61
-9.35
-1.14
7.92
16.42
23.11
27.16
28.27
26.62
22.78
17.48
11.54
5.74
0.74
-2.96
-5.07
-5.50
-4.44
-2.32
0.24
2.54
3.94
4.00
2.61
-0.04
-3.50
-7.19
-10.49
-12.90
-14.09
-14.06
-13.19
-12.18
-11.87
-12.98
-15.73
-19.70
-23.87
-26.96
-27.87
-25.96
-21.31
-14.50
-6.46
1.87
9.75
16.72
22.59
27.29
30.76
32.78
33.02
31.17
27.21
21.68
15.60
10.22
6.57
5.09
5.52
7.09
8.92
10.27
10.67
9.85
7.63
3.95
-1.04
-6.87
-12.81
-18.09
-22.20
-24.99
-26.78
-28.04
-29.16
-30.23
-30.91
-30.62
-28.73
-24.90
-19.22
-12.25
-4.88
1.93
7.47
11.36
13.64
14.58
14.58
14.04
13.33
12.70
12.32
12.16
12.06
11.78
11.14
10.08
8.74
7.31
5.96
4.69
3.36
1.84
0.03
-1.99
-4.05
-5.96
-7.65
-9.10
-10.43
-11.77
-13.27
-15.10
-17.34
-20.01
-22.88
-25.46
-27.04
-26.88
-24.53
-20.04
-14.02
-7.42
-1.27
3.77
7.46
9.97
11.64
12.74
13.40
13.56
13.25
12.56
11.77
11.16
10.91
11.01
11.21
11.24
10.84
9.93
8.59
7.06
5.60
4.36
3.32
2.31
1.10
-0.49
-2.49
-4.72
-6.92
-8.85
-10.43
-11.77
-13.15
-14.84
-17.02
-19.65
-22.45
-24.94
-26.52
-26.65
-24.98
-21.47
-16.47
-10.63
-4.68
0.76
5.31
8.89
11.58
13.49
14.69
15.15
14.94
14.18
13.16
12.18
11.44
10.97
10.64
10.28
9.76
9.05
8.22
7.34
6.47
5.60
4.71
3.78
2.76
1.60
0.25
-1.30
-3.01
-4.72
-6.30
-7.70
-8.98
-10.34
-12.01
-14.17
-16.88
-20.02
-23.30
-26.30
-28.44
-29.14
-27.94
-24.68
-19.66
-13.45
-6.88
-0.64
4.78
9.17
12.56
14.98
16.50
17.11
16.90
16.07
14.94
13.83
13.00
12.51
12.24
11.97
11.53
10.86
10.05
9.26
8.60
8.08
7.56
6.82
5.68
4.03
1.95
-0.37
-2.68
-4.74
-6.48
-7.97
-9.39
-10.97
-12.88
-15.19
-17.88
-20.79
-23.65
-26.02
-27.26
-26.76
-24.03
-19.02
-12.20
-4.46
3.15
9.80
15.08
18.99
21.80
23.77
25.00
25.43
24.99
23.75
22.02
20.19
18.66
17.59
16.88
16.25
15.40
14.15
12.55
10.83
9.27
8.03
7.04
6.05
4.72
2.81
0.30
-2.53
-5.30
-7.65
-9.46
-10.83
-12.10
-13.64
-15.74
-18.51
-21.85
-25.46
-28.87
-31.42
-32.40
-31.16
-27.34
-21.06
-12.99
-4.18
4.23
11.36
16.78
20.57
23.06
24.64
25.51
25.71
25.18
23.98
22.32
20.53
18.91
17.64
16.73
16.06
15.50
14.93
14.29
13.54
12.63
11.57
10.35
8.98
7.50
5.91
4.17
2.25
0.17
-1.97
-4.04
-5.93
-7.59
-9.09
-10.55
-12.18
-14.15
-16.61
-19.58
-22.87
-26.04
-28.37
-29.06
-27.42
-23.21
-16.70
-8.67
-0.20
7.69
14.27
19.21
22.50
24.28
24.76
24.17
22.80
21.04
19.33
17.98
17.08
16.47
15.87
15.08
14.06
12.94
11.94
11.17
10.57
9.98
9.21
8.22
7.06
5.89
4.79
3.72
2.55
1.11
-0.64
-2.59
-4.54
-6.28
-7.80
-9.19
-10.70
-12.48
-14.63
-17.10
-19.83
-22.74
-25.67
-28.26
-29.88
-29.80
-27.38
-22.45
-15.45
-7.36
0.64
7.54
12.77
16.28
18.30
19.22
19.33
18.80
17.77
16.41
14.97
13.72
12.86
12.44
12.33
12.31
12.15
11.73
11.03
10.14
9.12
8.04
6.91
5.77
4.66
3.60
2.56
1.41
0.05
-1.59
-3.45
-5.38
-7.20
-8.80
-10.24
-11.58
-12.94
-14.39
-15.99
-17.81
-19.90
-22.20
-24.37
-25.84
-25.89
-23.96
-19.88
-14.07
-7.36
-0.73
5.04
9.58
12.89
15.20
16.69
17.49
17.59
17.02
15.93
14.55
13.15
11.99
11.16
10.66
10.39
10.23
10.01
9.66
9.15
8.47
7.70
6.89
6.09
5.24
4.24
2.95
1.29
-0.71
-2.94
-5.18
-7.27
-9.10
-10.67
-12.04
-13.36
-14.76
-16.39
-18.35
-20.66
-23.19
-25.65
-27.52
-28.19
-27.09
-23.94
-18.86
-12.43
-5.52
0.95
6.32
10.28
12.88
14.37
15.05
15.12
14.73
13.99
13.08
12.24
11.64
11.33
11.22
11.15
10.97
10.62
10.13
9.56
8.94
8.24
7.40
6.44
5.43
4.52
3.77
3.19
2.65
1.95
0.93
-0.46
-2.14
-3.94
-5.66
-7.21
-8.56
-9.79
-10.99
-12.25
-13.70
-15.44
-17.51
-19.80
-21.95
-23.42
-23.58
-21.95
-18.41
-13.29
-7.30
-1.28
4.00
8.11
10.96
12.71
13.67
14.06
14.02
13.59
12.79
11.71
10.55
9.50
8.73
8.27
8.04
7.91
7.79
7.63
7.44
7.20
6.85
6.28
5.45
4.37
3.15
1.96
0.92
0.09
-0.62
-1.38
-2.38
-3.71
-5.38
-7.26
-9.17
-10.93
-12.43
-13.67
-14.78
-15.92
-17.33
-19.16
-21.44
-23.98
-26.33
-27.88
-27.99
-26.23
-22.52
-17.22
-11.05
-4.83
0.72
5.13
8.30
10.35
11.49
11.90
11.69
10.93
9.74
8.36
7.12
6.30
6.05
6.28
6.75
7.18
7.40
7.35
7.11
6.77
6.35
5.84
5.20
4.40
3.46
2.39
1.20
-0.11
-1.51
-2.98
-4.49
-5.99
-7.50
-9.06
-10.73
-12.58
-14.67
-17.06
-19.68
-22.31
-24.48
-25.60
-25.05
-22.50
-17.99
-12.01
-5.30
1.37
7.36
12.31
16.06
18.58
19.89
20.03
19.13
17.43
15.29
13.12
11.25
9.89
9.05
8.54
8.10
7.51
6.68
5.75
4.92
4.39
4.18
4.11
3.85
3.12
1.78
-0.13
-2.36
-4.65
-6.75
-8.56
-10.12
-11.53
-12.98
-14.66
-16.75
-19.37
-22.47
-25.73
-28.54
-30.05
-29.45
-26.21
-20.30
-12.29
-3.18
5.87
13.93
20.38
25.09
28.19
29.99
30.80
30.85
30.31
29.34
28.13
26.91
25.89
25.23
24.98
25.05
25.28
25.45
25.41
25.08
24.50
23.73
22.84
21.80
20.47
18.70
16.32
13.29
9.70
5.73
1.62
-2.46
-6.38
-10.07
-13.55
-16.88
-20.23
-23.84
-27.92
-32.49
-37.22
-41.39
-44.07
-44.35
-41.73
-36.36
-28.98
-20.72
-12.78
-6.06
-1.03
2.28
4.14
4.95
5.07
4.75
4.15
3.42
2.72
2.25
2.20
2.64
3.55
4.73
5.92
6.87
7.47
7.74
7.76
7.63
7.39
6.98
6.38
5.58
4.64
3.56
2.31
0.76
-1.15
-3.38
-5.77
-8.05
-10.00
-11.57
-12.98
-14.54
-16.61
-19.36
-22.69
-26.12
-28.87
-30.02
-28.79
-24.83
-18.35
-10.09
-1.15
7.38
14.70
20.40
24.44
26.97
28.21
28.33
27.51
25.95
23.95
21.83
19.86
18.24
17.01
16.08
15.33
14.58
13.73
12.75
11.68
10.58
9.49
8.36
7.13
5.67
3.92
1.86
-0.41
-2.74
-4.96
-6.93
-8.60
-10.01
-11.27
-12.55
-13.98
-15.69
-17.80
-20.32
-23.14
-25.94
-28.18
-29.15
-28.18
-24.87
-19.27
-11.88
-3.59
4.63
12.01
18.05
22.60
25.68
27.39
27.82
27.05
25.26
22.77
20.04
17.53
15.63
14.47
13.93
13.68
13.36
12.68
11.55
10.07
8.47
6.96
5.69
4.61
3.55
2.24
0.43
-1.95
-4.78
-7.78
-10.55
-12.78
-14.34
-15.35
-16.10
-17.01
-18.42
-20.55
-23.35
-26.46
-29.26
-30.95
-30.66
-27.79
-22.20
-14.35
-5.23
3.90
11.90
18.02
22.05
24.24
25.08
25.05
24.47
23.48
22.16
20.59
18.88
17.19
15.67
14.43
13.50
12.86
12.45
12.16
11.89
11.53
11.02
10.33
9.44
8.34
7.04
5.57
4.03
2.55
1.17
-0.15
-1.56
-3.25
-5.29
-7.59
-9.83
-11.69
-12.97
-13.76
-14.39
-15.33
-16.95
-19.33
-22.20
-24.95
-26.82
-26.99
-24.93
-20.49
-14.02
-6.34
1.47
8.32
13.40
16.36
17.26
16.51
14.63
12.15
9.51
7.09
5.15
3.86
3.27
3.25
3.54
3.82
3.87
3.63
3.21
2.83
2.69
2.85
3.22
3.56
3.63
3.28
2.50
1.46
0.36
-0.62
-1.44
-2.20
-3.08
-4.26
-5.77
-7.52
-9.27
-10.81
-12.03
-13.02
-13.96
-15.12
-16.66
-18.63
-21.04
-23.80
-26.73
-29.45
-31.35
-31.68
-29.82
-25.53
-19.23
-11.86
-4.49
1.98
7.16
11.04
13.77
15.38
15.73
14.66
12.22
8.80
5.02
1.50
-1.38
-3.52
-5.02
-5.94
-6.19
-5.59
-3.96
-1.32
2.14
6.05
10.06
13.88
17.34
20.38
22.94
24.95
26.29
26.82
26.37
24.81
22.09
18.33
13.84
9.06
4.51
0.62
-2.41
-4.67
-6.43
-8.10
-10.02
-12.37
-15.15
-18.15
-21.00
-23.19
-24.16
-23.40
-20.61
-15.83
-9.54
-2.52
4.31
10.13
14.42
16.99
17.99
17.77
16.74
15.27
13.72
12.34
11.33
10.77
10.64
10.79
11.03
11.11
10.88
10.27
9.30
8.06
6.68
5.25
3.82
2.39
0.95
-0.49
-1.90
-3.22
-4.44
-5.58
-6.75
-8.08
-9.61
-11.30
-12.98
-14.43
-15.54
-16.35
-17.06
-17.97
-19.36
-21.33
-23.71
-26.09
-27.82
-28.24
-26.82
-23.38
-18.15
-11.77
-5.05
1.24
6.60
10.84
14.04
16.33
17.77
18.38
18.21
17.46
16.42
15.39
14.52
13.75
12.93
11.95
10.83
9.77
8.98
8.52
8.29
8.03
7.55
6.75
5.74
4.65
3.63
2.71
1.82
0.89
-0.12
-1.17
-2.17
-3.05
-3.79
-4.42
-5.06
-5.92
-7.25
-9.31
-12.31
-16.16
-20.43
-24.32
-26.82
-27.05
-24.55
-19.45
-12.42
-4.43
3.57
10.90
17.18
22.28
26.18
28.92
30.56
31.27
31.26
30.72
29.74
28.25
26.04
22.92
18.80
13.83
8.33
2.75
-2.44
-6.79
-9.98
-11.82
-12.35
-11.86
-10.88
-10.01
-9.71
-10.17
-11.30
-12.79
-14.33
-15.71
-16.86
-17.79
-18.58
-19.31
-20.18
-21.38
-23.03
-24.95
-26.68
-27.50
-26.70
-23.90
-19.21
-13.23
-6.80
-0.74
4.38
8.34
11.19
13.10
14.27
14.80
14.76
14.15
13.06
11.64
10.15
8.90
8.17
8.04
8.41
8.98
9.43
9.51
9.12
8.34
7.35
6.34
5.43
4.65
3.91
3.07
2.01
0.68
-0.88
-2.57
-4.27
-5.90
-7.44
-8.91
-10.37
-11.85
-13.41
-15.14
-17.14
-19.38
-21.60
-23.24
-23.60
-22.08
-18.46
-13.04
-6.62
-0.19
5.37
9.50
12.07
13.30
13.59
13.29
12.71
12.00
11.20
10.36
9.52
8.77
8.25
8.03
8.08
8.23
8.29
8.10
7.59
6.83
5.92
4.97
4.08
3.27
2.54
1.82
1.02
0.01
-1.30
-2.91
-4.69
-6.44
-7.97
-9.19
-10.13
-10.93
-11.76
-12.78
-14.11
-15.80
-17.77
-19.75
-21.26
-21.69
-20.51
-17.52
-13.01
-7.63
-2.17
2.73
6.76
9.93
12.37
14.15
15.20
15.39
14.67
13.22
11.44
9.75
8.51
7.84
7.62
7.63
7.61
7.39
6.90
6.18
5.33
4.47
3.67
2.93
2.19
1.30
0.18
-1.23
-2.86
-4.58
-6.23
-7.68
-8.87
-9.86
-10.79
-11.82
-13.16
-14.93
-17.19
-19.77
-22.34
-24.36
-25.19
-24.27
-21.35
-16.59
-10.55
-4.04
2.11
7.31
11.23
13.90
15.46
16.09
15.97
15.26
14.15
12.88
11.73
10.88
10.43
10.30
10.34
10.29
9.92
9.10
7.84
6.37
4.98
3.96
3.37
3.07
2.72
2.02
0.77
-0.98
-3.02
-5.09
-6.97
-8.60
-10.02
-11.34
-12.73
-14.34
-16.32
-18.75
-21.51
-24.23
-26.29
-26.94
-25.53
-21.83
-16.08
-9.04
-1.70
5.01
10.45
14.39
16.94
18.37
18.96
18.93
18.47
17.70
16.79
15.88
15.09
14.50
14.12
13.88
13.70
13.46
13.02
12.33
11.39
10.25
9.03
7.80
6.61
5.42
4.21
2.89
1.41
-0.22
-1.99
-3.84
-5.69
-7.47
-9.12
-10.61
-12.00
-13.38
-14.96
-16.91
-19.34
-22.09
-24.72
-26.56
-26.84
-24.97
-20.74
-14.43
-6.79
1.21
8.57
14.59
18.92
21.64
23.05
23.55
23.40
22.78
21.77
20.47
19.03
17.61
16.31
15.11
13.95
12.77
11.60
10.53
9.66
8.95
8.24
7.30
6.02
4.40
2.63
0.95
-0.48
-1.61
-2.51
-3.32
-4.20
-5.28
-6.64
-8.23
-9.92
-11.53
-12.90
-14.01
-15.02
-16.21
-17.84
-19.95
-22.22
-23.98
-24.40
-22.74
-18.71
-12.57
-5.07
2.74
9.90
15.71
19.88
22.45
23.61
23.60
22.66
21.03
19.02
17.00
15.31
14.13
13.45
13.06
12.72
12.24
11.57
10.80
10.07
9.45
8.89
8.29
7.48
6.34
4.89
3.25
1.61
0.12
-1.18
-2.36
-3.59
-5.02
-6.68
-8.49
-10.24
-11.76
-12.95
-13.90
-14.79
-15.91
-17.50
-19.65
-22.21
-24.74
-26.57
-26.91
-25.11
-20.88
-14.41
-6.40
2.14
10.12
16.69
21.36
24.10
25.17
24.99
23.94
22.31
20.28
18.00
15.67
13.51
11.81
10.73
10.24
10.11
9.96
9.44
8.33
6.69
4.77
2.91
1.39
0.31
-0.44
-1.16
-2.10
-3.43
-5.14
-7.08
-9.02
-10.79
-12.31
-13.58
-14.68
-15.68
-16.62
-17.62
-18.84
-20.47
-22.57
-24.89
-26.82
-27.53
-26.21
-22.45
-16.42
-8.85
-0.75
6.84
13.18
17.87
20.85
22.27
22.38
21.47
19.88
17.94
15.95
14.15
12.72
11.71
11.08
10.72
10.44
10.08
9.55
8.81
7.88
6.79
5.54
4.14
2.62
1.05
-0.48
-1.91
-3.27
-4.63
-6.02
-7.45
-8.85
-10.18
-11.42
-12.64
-13.95
-15.51
-17.42
-19.76
-22.52
-25.47
-28.19
-29.97
-29.99
-27.60
-22.57
-15.25
-6.56
2.26
10.07
16.10
20.09
22.23
22.95
22.75
21.98
20.88
19.60
18.30
17.08
16.04
15.16
14.34
13.44
12.32
10.97
9.44
7.91
6.53
5.44
4.66
4.10
3.60
2.96
2.04
0.75
-0.84
-2.66
-4.60
-6.57
-8.53
-10.39
-12.05
-13.45
-14.60
-15.66
-16.88
-18.56
-20.84
-23.57
-26.33
-28.42
-29.06
-27.61
-23.80
-17.80
-10.27
-2.10
5.73
12.47
17.70
21.36
23.59
24.69
24.91
24.48
23.54
22.20
20.56
18.75
16.90
15.13
13.58
12.30
11.29
10.48
9.73
8.91
7.89
6.65
5.24
3.76
2.25
0.75
-0.78
-2.39
-4.08
-5.78
-7.40
-8.84
-10.07
-11.09
-11.94
-12.71
-13.48
-14.37
-15.53
-17.10
-19.18
-21.68
-24.26
-26.35
-27.22
-26.19
-22.88
-17.37
-10.25
-2.42
5.14
11.64
16.66
20.10
22.12
22.90
22.62
21.42
19.53
17.30
15.14
13.46
12.49
12.19
12.28
12.37
12.14
11.48
10.51
9.43
8.43
7.57
6.76
5.88
4.87
3.75
2.65
1.69
0.95
0.44
0.13
-0.04
-0.19
-0.53
-1.31
-2.83
-5.24
-8.54
-12.58
-17.11
-21.87
-26.57
-30.83
-34.11
-35.78
-35.27
-32.28
-27.06
-20.31
-13.04
-6.23
-0.59
3.56
6.21
7.60
8.00
7.69
6.95
6.06
5.30
4.90
5.02
5.68
6.77
8.05
9.23
10.01
10.17
9.65
8.60
7.27
5.96
4.84
3.91
3.04
2.01
0.67
-0.96
-2.79
-4.65
-6.43
-8.07
-9.58
-11.03
-12.50
-14.11
-15.94
-18.00
-20.15
-22.04
-23.12
-22.82
-20.73
-16.72
-11.07
-4.33
2.74
9.44
15.17
19.57
22.50
24.01
24.24
23.44
21.85
19.77
17.50
15.35
13.60
12.41
11.76
11.47
11.28
10.91
10.21
9.16
7.89
6.50
5.07
3.56
1.86
-0.09
-2.30
-4.62
-6.85
-8.81
-10.42
-11.70
-12.81
-13.95
-15.30
-17.01
-19.12
-21.62
-24.35
-26.99
-29.03
-29.82
-28.71
-25.30
-19.67
-12.39
-4.42
3.20
9.65
14.51
17.81
19.79
20.73
20.82
20.18
18.96
17.40
15.82
14.49
13.56
12.95
12.43
11.78
10.87
9.74
8.56
7.49
6.62
5.94
5.31
4.59
3.62
2.32
0.69
-1.21
-3.23
-5.20
-6.98
-8.52
-9.85
-11.09
-12.40
-13.96
-15.86
-18.18
-20.84
-23.66
-26.26
-28.03
-28.29
-26.45
-22.31
-16.16
-8.75
-1.11
5.82
11.41
15.43
17.98
19.34
19.81
19.61
18.94
17.98
16.90
15.88
15.06
14.50
14.18
14.01
13.86
13.61
13.18
12.52
11.60
10.39
8.86
7.03
5.05
3.13
1.51
0.30
-0.61
-1.48
-2.65
-4.29
-6.37
-8.59
-10.64
-12.27
-13.53
-14.70
-16.23
-18.54
-21.86
-26.01
-30.47
-34.37
-36.69
-36.60
-33.65
-28.01
-20.50
-12.49
-5.48
-0.68
1.52
1.80
1.60
2.57
5.74
11.02
17.16
22.38
25.21
25.11
22.64
19.05
15.63
13.32
12.55
13.43
15.97
19.97
24.88
29.63
32.87
33.44
30.92
25.90
19.80
14.30
10.62
9.13
9.40
10.58
11.95
13.10
14.01
14.76
15.39
15.81
15.86
15.51
14.79
13.86
12.81
11.71
10.68
9.92
9.83
10.91
13.55
17.92
23.81
30.72
38.05
45.20
51.71
57.28
61.66
64.68
66.28
66.50
65.52
63.55
60.70
56.89
51.84
45.21
36.75
26.44
14.55
1.53
-12.05
-25.60
-38.56
-50.45
-60.89
-69.62
-76.56
-81.79
-85.51
-87.94
-89.31
-89.76
-89.43
-88.48
-87.11
-85.53
-83.93
-82.39
-80.89
-79.38
-77.88
-76.53
-75.52
-74.95
-74.70
-74.32
-73.11
-70.36
-65.51
-58.40
-49.29
-38.78
-27.67
-16.75
-6.66
2.25
9.90
16.48
22.31
27.78
33.17
38.65
44.23
49.79
55.10
59.81
63.50
65.71
66.03
64.24
60.39
54.88
48.34
41.43
34.65
28.23
22.14
16.22
10.37
4.66
-0.72
-5.54
-9.59
-12.86
-15.38
-17.29
-18.67
-19.63
-20.29
-20.84
-21.51
-22.53
-23.96
-25.64
-27.14
-27.88
-27.30
-25.02
-21.05
-15.79
-9.92
-4.15
0.93
5.02
8.08
10.25
11.68
12.49
12.73
12.48
11.90
11.24
10.77
10.68
11.00
11.55
12.04
12.21
11.93
11.25
10.34
9.36
8.40
7.45
6.43
5.34
4.26
3.33
2.66
2.25
1.91
1.39
0.44
-0.97
-2.73
-4.54
-6.13
-7.37
-8.30
-9.15
-10.20
-11.68
-13.63
-15.89
-18.03
-19.52
-19.77
-18.40
-15.28
-10.66
-5.09
0.76
6.26
10.92
14.47
16.89
18.26
18.75
18.59
17.99
17.18
16.33
15.51
14.75
14.06
13.45
12.99
12.73
12.67
12.74
12.78
12.64
12.26
11.62
10.80
9.83
8.70
7.36
5.77
4.00
2.19
0.55
-0.75
-1.62
-2.11
-2.42
-2.78
-3.42
-4.53
-6.22
-8.52
-11.33
-14.41
-17.32
-19.49
-20.32
-19.29
-16.21
-11.27
-5.05
1.61
7.84
12.95
16.63
18.84
19.81
19.82
19.14
17.91
16.30
14.51
12.80
11.43
10.51
9.98
9.55
8.93
7.97
6.81
5.76
5.09
4.87
4.87
4.65
3.85
2.32
0.23
-2.05
-4.16
-5.91
-7.36
-8.70
-10.17
-11.90
-13.94
-16.24
-18.77
-21.42
-24.05
-26.28
-27.59
-27.38
-25.18
-20.84
-14.72
-7.57
-0.36
6.10
11.30
15.17
17.85
19.58
20.49
20.64
20.14
19.18
18.06
17.10
16.47
16.11
15.78
15.24
14.33
13.10
11.76
10.51
9.50
8.69
7.92
7.01
5.79
4.21
2.32
0.27
-1.79
-3.71
-5.41
-6.92
-8.34
-9.85
-11.63
-13.84
-16.52
-19.58
-22.73
-25.52
-27.35
-27.64
-25.96
-22.17
-16.55
-9.76
-2.67
3.90
9.34
13.41
16.17
17.84
18.62
18.64
17.90
16.46
14.48
12.28
10.23
8.64
7.66
7.22
7.16
7.21
7.19
6.96
6.46
5.71
4.76
3.66
2.48
1.21
-0.17
-1.69
-3.38
-5.18
-7.00
-8.70
-10.17
-11.37
-12.35
-13.25
-14.24
-15.50
-17.16
-19.25
-21.63
-23.94
-25.54
-25.73
-23.91
-19.84
-13.82
-6.62
0.72
7.20
12.18
15.46
17.26
18.05
18.28
18.27
18.13
17.82
17.24
16.29
14.98
13.39
11.70
10.06
8.51
7.03
5.55
4.03
2.55
1.30
0.42
-0.03
-0.15
-0.19
-0.45
-1.13
-2.26
-3.73
-5.31
-6.80
-8.06
-9.08
-9.93
-10.71
-11.52
-12.51
-13.83
-15.63
-17.98
-20.71
-23.31
-25.06
-25.17
-23.17
-19.09
-13.48
-7.19
-1.04
4.40
8.96
12.65
15.48
17.36
18.07
17.46
15.64
12.98
10.09
7.64
6.11
5.70
6.30
7.61
9.23
10.78
11.99
12.63
12.59
11.80
10.27
8.13
5.51
2.63
-0.28
-2.93
-5.04
-6.36
-6.79
-6.38
-5.50
-4.67
-4.50
-5.52
-8.01
-11.88
-16.70
-21.69
-25.91
-28.42
-28.56
-26.08
-21.26
-14.80
-7.66
-0.78
5.12
9.63
12.67
14.39
15.09
15.04
14.49
13.68
12.76
11.95
11.43
11.31
11.60
12.17
12.76
13.12
13.11
12.72
12.08
11.33
10.55
9.71
8.64
7.11
5.01
2.46
-0.29
-2.89
-5.09
-6.81
-8.14
-9.33
-10.66
-12.24
-14.04
-15.99
-17.96
-19.82
-21.30
-21.89
-20.97
-18.07
-12.92
-5.74
2.68
11.01
17.87
22.35
24.34
24.42
23.51
22.82
23.35
25.39
28.27
30.88
32.22
31.94
30.27
27.72
25.46
24.76
26.24
29.19
31.88
32.16
28.04
18.03
1.54
-19.60
-41.30
-58.48
-66.98
-64.78
-52.63
-34.00
-11.32
9.46
22.28
24.89
19.10
8.94
-2.69
-14.52
-24.74
-32.46
-38.07
-42.50
-47.36
-52.01
-56.78
-61.44
-64.58
-64.29
-59.51
-50.96
-40.26
-29.24
-19.26
-11.34
-5.67
-1.79
0.87
2.51
2.92
2.20
0.78
-0.68
-1.89
-2.67
-2.90
-2.69
-2.40
-2.59
-3.46
-4.77
-6.02
-7.20
-8.78
-11.46
-15.38
-19.37
-20.77
-16.37
-4.18
14.78
36.25
54.55
65.02
66.11
59.56
49.12
38.83
31.62
29.23
32.13
40.76
54.93
73.11
91.60
104.74
106.63
93.31
64.63
24.77
-18.64
-57.13
-84.11
-96.15
-95.03
-85.62
-73.41
-62.34
-54.17
-48.87
-45.90
-44.60
-44.20
-43.23
-39.42
-30.55
-15.76
3.32
23.56
41.07
53.19
59.44
61.15
60.57
58.82
56.79
53.95
49.74
44.31
38.65
34.03
31.30
30.63
31.57
33.30
34.56
34.22
31.31
25.47
17.11
7.35
-2.36
-10.90
-17.77
-23.17
-27.39
-30.35
-31.54
-30.41
-26.89
-21.78
-16.33
-11.81
-9.04
-8.05
-8.29
-9.17
-10.24
-11.50
-13.13
-15.21
-17.62
-19.99
-21.87
-22.88
-22.96
-22.37
-21.59
-21.14
-21.35
-22.26
-23.62
-25.02
-26.08
-26.66
-26.80
-26.68
-26.36
-25.68
-24.33
-22.02
-18.73
-14.53
-9.86
-5.24
-1.07
2.50
5.53
8.18
10.50
12.47
14.06
15.20
16.00
16.58
17.09
17.55
17.92
18.10
17.98
17.57
16.98
16.44
16.14
16.08
16.07
15.83
15.14
14.01
12.69
11.51
10.69
10.04
9.03
7.17
4.37
1.11
-1.69
-3.09
-2.64
-0.52
2.26
4.31
4.44
2.15
-2.11
-6.99
-10.83
-12.10
-9.86
-4.28
3.41
11.33
17.33
19.65
17.23
9.74
-2.71
-18.06
-33.43
-46.14
-54.43
-57.84
-57.17
-53.92
-50.06
-46.65
-43.19
-37.96
-29.13
-15.78
1.26
19.66
37.20
52.35
64.78
75.28
84.41
91.52
94.56
90.99
77.69
56.36
30.68
5.21
-16.16
-31.66
-41.73
-48.01
-52.68
-55.98
-56.62
-53.20
-44.95
-32.46
-17.95
-4.51
4.96
8.90
7.73
3.69
-0.63
-3.24
-3.43
-1.93
-0.14
0.76
0.42
-0.50
-0.86
0.06
2.33
5.44
8.27
9.74
9.68
8.38
5.99
2.30
-2.85
-8.90
-14.38
-17.49
-16.92
-12.81
-6.61
-0.48
3.87
5.86
6.08
5.69
5.65
6.32
7.49
8.94
10.73
13.33
17.39
23.26
30.64
38.52
46.10
51.67
54.25
53.65
50.45
45.53
39.74
33.58
27.15
20.33
12.98
5.37
-1.86
-7.77
-11.73
-13.71
-14.38
-14.86
-16.17
-18.92
-22.68
-26.34
-28.24
-27.55
-24.60
-20.97
-18.94
-19.79
-24.17
-31.35
-39.57
-46.20
-49.56
-49.33
-46.40
-42.30
-38.73
-37.55
-40.76
-50.42
-65.06
-81.67
-94.76
-98.26
-88.78
-67.46
-39.49
-11.85
9.63
24.38
35.62
46.90
60.65
77.54
96.76
116.89
137.13
149.97
152.67
146.25
134.34
120.56
106.57
91.99
75.48
56.15
34.33
12.84
-5.59
-19.46
-28.79
-34.80
-39.09
-42.92
-46.93
-51.29
-55.14
-58.05
-60.14
-61.69
-62.75
-62.93
-61.73
-58.90
-54.75
-49.65
-44.41
-39.95
-36.91
-35.55
-35.82
-37.42
-40.31
-43.51
-45.61
-45.21
-41.22
-33.28
-21.82
-7.97
6.87
21.36
34.45
45.44
53.92
59.55
62.20
61.97
59.28
54.86
49.52
43.95
38.56
33.51
28.76
24.18
19.62
14.84
9.58
3.57
-3.30
-10.71
-17.83
-23.58
-27.03
-27.85
-26.51
-24.15
-21.61
-20.10
-20.48
-23.00
-27.33
-32.69
-38.10
-42.59
-45.35
-45.90
-44.29
-40.93
-36.48
-31.71
-27.29
-23.70
-21.17
-19.61
-18.58
-17.46
-15.38
-11.60
-5.79
1.78
10.24
18.48
25.49
30.76
34.28
36.56
38.25
39.87
41.58
43.11
43.91
43.47
41.51
38.18
33.99
29.64
25.76
22.68
20.44
18.87
17.74
16.85
16.01
15.09
13.94
12.52
10.89
9.15
7.44
5.82
4.23
2.58
0.79
-1.13
-3.12
-5.11
-7.11
-9.13
-11.22
-13.39
-15.67
-17.99
-20.30
-22.40
-24.01
-24.73
-24.20
-22.21
-18.83
-14.45
-9.61
-4.84
-0.58
2.96
5.77
8.08
10.12
11.98
13.65
15.10
16.33
17.37
18.24
18.89
19.33
19.42
18.86
17.42
15.21
12.54
9.80
7.19
4.72
2.50
0.48
-1.61
-3.86
-6.05
-7.76
-8.56
-8.20
-6.67
-3.86
-0.01
4.06
7.57
10.11
11.70
12.66
13.55
12.53
9.45
6.07
4.59
6.00
9.80
14.58
18.95
22.05
23.65
24.43
26.04
28.01
29.73
30.93
31.60
32.00
32.50
33.43
35.18
37.75
40.68
42.55
42.92
41.82
39.51
36.26
32.19
27.50
22.32
16.55
10.32
3.96
-2.31
-8.41
-14.38
-20.19
-25.61
-30.38
-34.43
-37.83
-40.65
-43.11
-45.33
-47.34
-49.04
-50.30
-51.18
-51.93
-52.84
-53.99
-55.21
-56.05
-55.92
-54.24
-50.64
-45.15
-38.11
-30.14
-21.95
-14.27
-7.71
-2.73
0.53
2.18
2.57
2.20
1.54
1.02
0.93
1.48
2.81
5.01
7.98
11.53
15.35
19.13
22.70
26.02
29.19
32.34
35.45
38.36
40.65
41.80
41.26
38.68
34.02
27.63
20.14
12.31
4.80
-2.03
-8.13
-13.79
-19.40
-25.27
-31.41
-37.39
-42.50
-45.82
-46.67
-44.74
-40.32
-34.13
-27.11
-20.11
-13.71
-8.20
-3.66
-0.07
2.56
4.30
5.25
5.65
5.85
6.15
6.81
7.90
9.33
10.84
12.18
13.20
13.92
14.47
15.02
15.62
16.16
16.40
16.09
15.04
13.23
10.71
7.57
3.87
-0.35
-5.06
-10.21
-15.70
-21.44
-27.38
-33.53
-39.96
-46.64
-53.40
-59.86
-65.41
-69.38
-71.14
-70.28
-66.69
-60.62
-52.59
-43.32
-33.57
-24.04
-15.25
-7.48
-0.80
4.85
9.60
13.54
16.71
19.12
20.84
22.01
22.84
23.58
24.35
25.17
25.96
26.60
26.95
26.98
26.61
25.84
24.65
23.08
21.23
19.24
17.14
14.89
12.32
9.30
5.79
1.94
-2.00
-5.77
-9.26
-12.56
-15.90
-19.51
-23.60
-28.23
-33.32
-38.59
-43.49
-47.24
-48.90
-47.75
-43.45
-36.30
-27.16
-17.17
-7.38
1.51
9.23
15.85
21.48
26.17
29.90
32.60
34.38
35.46
36.20
36.84
37.48
37.99
38.16
37.85
37.06
35.92
34.63
33.34
32.02
30.58
28.86
26.73
24.16
21.23
18.08
14.85
11.61
8.38
5.12
1.76
-1.72
-5.27
-8.87
-12.46
-15.99
-19.43
-22.75
-25.88
-28.85
-31.74
-34.70
-37.87
-41.17
-44.26
-46.55
-47.36
-46.14
-42.70
-37.18
-30.07
-22.00
-13.58
-5.39
2.13
8.65
13.98
18.11
21.14
23.30
24.84
25.99
26.89
27.66
28.36
29.00
29.52
29.83
29.84
29.50
28.89
28.13
27.39
26.72
26.05
25.17
23.88
22.06
19.74
17.07
14.34
11.79
9.58
7.71
6.01
4.26
2.24
-0.11
-2.72
-5.40
-7.98
-10.41
-12.76
-15.19
-17.82
-20.71
-23.83
-27.06
-30.23
-33.08
-35.21
-36.13
-35.45
-32.96
-28.74
-23.17
-16.75
-9.96
-3.17
3.34
9.35
14.58
18.76
21.73
23.49
24.25
24.33
24.13
23.96
24.04
24.42
24.97
25.50
25.76
25.59
24.97
24.00
22.83
21.56
20.16
18.49
16.38
13.72
10.64
7.36
4.23
1.52
-0.67
-2.45
-4.03
-5.66
-7.48
-9.49
-11.61
-13.71
-15.75
-17.72
-19.66
-21.60
-23.53
-25.54
-27.73
-30.24
-33.08
-35.97
-38.33
-39.41
-38.51
-35.25
-29.79
-22.71
-14.83
-7.00
0.20
6.53
11.99
16.71
20.82
24.30
27.05
28.96
30.02
30.30
29.92
29.01
27.57
25.60
23.10
20.20
17.13
14.18
11.60
9.44
7.62
5.95
4.25
2.45
0.52
-1.51
-3.61
-5.78
-8.02
-10.27
-12.42
-14.33
-15.94
-17.24
-18.32
-19.30
-20.28
-21.38
-22.70
-24.44
-26.76
-29.77
-33.37
-37.21
-40.70
-43.10
-43.81
-42.52
-39.33
-34.66
-29.09
-23.21
-17.51
-12.30
-7.75
-3.99
-1.08
0.90
2.07
2.65
2.92
3.11
3.35
3.68
4.00
4.21
4.29
4.42
4.83
5.71
7.11
8.95
11.13
13.58
16.29
18.84
20.66
21.56
21.81
21.74
21.70
21.96
22.81
24.32
26.51
29.19
31.99
34.41
35.98
36.42
35.61
34.23
31.84
28.39
24.14
19.58
15.35
11.93
9.50
7.85
6.48
4.85
2.93
1.13
0.15
0.59
2.57
5.80
9.79
13.94
17.74
21.22
24.74
28.76
33.57
39.23
45.52
52.16
58.75
64.88
70.21
74.43
77.23
78.34
77.50
74.42
68.90
60.90
50.73
39.10
26.94
15.11
4.09
-6.08
-15.67
-24.96
-33.99
-42.46
-49.91
-55.94
-60.50
-63.93
-66.77
-69.65
-72.98
-76.83
-80.90
-84.61
-87.20
-87.97
-86.44
-82.45
-76.25
-68.41
-59.71
-50.88
-42.50
-34.91
-28.23
-22.44
-17.48
-13.25
-9.62
-6.43
-3.51
-0.74
1.83
4.10
5.86
7.04
7.72
8.17
8.68
9.44
10.45
11.52
12.37
12.82
12.81
12.45
11.89
11.19
10.21
8.76
6.67
3.97
0.86
-2.49
-5.86
-9.15
-12.41
-15.92
-19.86
-24.25
-28.94
-33.63
-38.33
-42.95
-47.47
-51.98
-56.74
-61.69
-66.42
-70.09
-71.71
-70.91
-67.50
-61.67
-54.19
-46.30
-39.01
-32.93
-28.23
-24.59
-21.94
-19.61
-16.54
-12.05
-6.16
0.68
7.40
12.73
19.38
27.52
36.11
44.63
53.46
62.94
72.83
82.28
90.80
98.04
103.58
107.95
112.34
117.53
121.35
122.65
120.32
113.18
100.22
80.81
56.11
29.07
2.83
-19.69
-36.29
-46.46
-51.34
-53.12
-54.50
-57.66
-59.85
-59.85
-57.98
-55.31
-52.43
-49.04
-44.45
-38.29
-30.63
-21.95
-13.55
-6.71
-2.22
-0.32
-0.84
-3.14
-6.09
-7.99
-6.81
-2.03
6.87
18.88
31.78
42.90
50.27
53.45
53.67
53.10
53.25
54.68
56.39
56.56
53.59
46.80
36.77
24.88
12.56
0.27
-11.06
-20.91
-29.18
-36.05
-41.60
-45.78
-48.55
-49.78
-49.75
-48.75
-47.34
-46.00
-44.91
-44.10
-43.67
-43.80
-44.59
-45.91
-47.05
-46.99
-44.70
-39.42
-31.07
-20.31
-8.32
3.61
14.57
24.15
32.30
38.98
44.12
47.47
48.82
48.33
46.60
44.60
43.33
43.43
44.78
46.79
48.63
49.69
49.92
49.73
49.67
50.14
51.05
51.82
51.67
49.87
46.01
40.24
33.09
25.13
16.77
8.02
-1.39
-11.68
-22.75
-34.03
-44.69
-53.93
-61.24
-66.43
-69.54
-70.80
-70.49
-69.24
-67.89
-67.26
-67.85
-69.33
-70.59
-70.02
-66.17
-58.47
-47.63
-35.42
-24.06
-15.32
-9.89
-7.28
-6.22
-5.32
-3.63
-1.04
2.03
5.04
7.74
10.33
13.14
16.30
19.60
22.44
24.18
24.40
23.21
21.07
18.64
16.36
14.19
11.99
9.42
6.15
2.10
-2.38
-6.60
-9.84
-11.74
-12.51
-12.41
-11.77
-10.85
-9.71
-8.19
-6.03
-3.20
-0.11
2.65
5.01
7.35
10.22
14.03
19.00
25.15
32.27
40.22
46.50
49.46
49.61
49.04
49.19
49.83
49.86
48.22
44.55
39.28
33.68
29.05
26.07
24.78
25.19
27.47
31.54
36.36
39.51
37.89
28.66
10.70
-14.37
-42.03
-66.21
-81.60
-85.53
-78.58
-63.53
-43.97
-23.11
-3.40
13.23
24.99
30.03
27.19
16.79
1.12
-16.06
-30.77
-40.31
-44.11
-43.51
-41.03
-38.82
-37.89
-37.95
-37.95
-36.86
-34.17
-30.32
-25.39
-19.50
-12.57
-4.47
4.28
12.45
18.45
20.96
19.75
16.16
12.60
11.69
15.17
23.00
33.45
43.89
51.59
54.64
52.39
45.34
34.51
22.22
10.57
0.41
-7.75
-13.79
-17.67
-19.20
-18.13
-14.26
-7.80
0.15
7.75
12.97
14.06
10.13
1.85
-8.89
-19.52
-27.68
-32.15
-33.13
-31.92
-30.20
-29.37
-29.78
-30.81
-31.34
-30.63
-28.62
-26.06
-23.93
-22.78
-22.82
-23.99
-26.49
-30.53
-35.59
-39.51
-38.59
-28.85
-8.17
21.56
55.22
85.59
106.32
114.45
110.97
99.69
84.29
68.94
55.33
43.99
35.21
29.51
26.90
26.22
24.80
19.63
9.08
-6.48
-23.89
-38.98
-48.00
-49.42
-44.60
-37.23
-31.47
-29.90
-33.16
-39.35
-45.39
-48.66
-48.11
-44.36
-39.27
-34.99
-33.13
-34.36
-37.90
-41.47
-41.64
-34.92
-19.23
4.91
33.95
62.28
84.20
96.21
97.98
91.90
81.01
68.99
57.68
47.73
39.59
33.96
31.52
31.89
33.12
32.20
26.49
14.96
-0.78
-17.23
-30.45
-37.82
-39.08
-36.13
-31.86
-28.66
-27.80
-29.17
-31.86
-34.88
-37.60
-39.86
-41.66
-42.92
-43.34
-42.68
-40.43
-36.46
-31.02
-24.77
-18.46
-12.77
-7.98
-3.98
-0.53
2.62
5.52
8.06
10.05
11.36
11.99
12.08
11.92
11.81
11.97
12.42
12.95
13.18
12.75
11.50
9.60
7.46
5.52
4.05
2.95
1.89
0.58
-1.05
-2.74
-4.03
-4.43
-3.66
-1.73
1.12
4.42
7.66
10.37
12.21
13.10
13.15
12.68
11.96
11.14
10.16
8.92
7.38
5.67
4.05
2.80
2.01
1.61
1.41
1.21
0.93
0.62
0.35
0.08
-0.29
-0.98
-2.03
-3.38
-4.82
-6.13
-7.20
-8.08
-8.95
-9.99
-11.33
-13.00
-15.04
-17.50
-20.34
-23.43
-26.34
-28.45
-29.05
-27.64
-24.10
-18.85
-12.67
-6.42
-0.86
3.59
6.84
9.02
10.32
10.88
10.81
10.20
9.21
7.93
6.35
4.25
1.31
-2.51
-6.73
-10.14
-11.15
-8.46
-1.61
8.64
20.52
31.80
40.48
45.31
46.09
43.55
39.09
34.29
30.51
28.45
27.98
28.32
28.47
27.70
25.80
23.05
19.98
17.05
14.57
12.77
11.97
12.54
14.72
18.34
22.73
26.72
29.06
28.84
25.83
20.57
14.13
7.76
2.36
-1.68
-4.54
-6.66
-8.49
-10.28
-12.07
-13.84
-15.61
-17.54
-19.84
-22.69
-26.04
-29.60
-32.88
-35.36
-36.61
-36.58
-35.58
-34.31
-33.58
-34.00
-35.80
-38.79
-42.28
-45.32
-46.96
-46.68
-44.39
-40.50
-35.62
-30.25
-24.79
-19.23
-13.22
-6.50
0.77
7.92
13.85
17.47
18.13
15.54
10.28
3.68
-2.61
-7.26
-9.48
-9.44
-7.91
-6.01
-5.28
-6.76
-10.51
-15.74
-21.09
-25.10
-27.11
-27.26
-23.79
-16.92
-8.50
-0.64
5.76
10.04
13.50
16.76
19.83
22.63
25.19
27.68
30.42
33.20
34.92
33.62
27.53
16.53
2.18
-13.43
-28.27
-40.69
-51.09
-59.37
-65.35
-69.21
-71.26
-72.04
-72.52
-73.74
-75.31
-77.32
-79.48
-81.00
-80.74
-77.48
-70.47
-60.21
-48.41
-37.39
-29.43
-25.48
-25.11
-26.83
-28.82
-29.63
-28.83
-26.86
-24.62
-22.92
-21.80
-20.62
-18.30
-13.79
-6.36
3.99
16.58
30.36
44.37
58.06
71.17
83.53
94.78
104.87
113.53
120.25
124.43
125.81
124.73
121.94
118.33
114.54
111.81
110.75
110.89
110.88
109.37
105.73
100.08
93.04
85.44
79.58
76.95
77.34
78.80
79.07
76.83
71.84
64.86
57.20
52.19
52.31
57.84
67.05
77.87
89.22
100.73
112.10
109.92
85.76
41.17
-12.73
-64.11
-106.62
-139.12
-163.55
-182.06
-195.01
-198.23
-186.42
-156.72
-111.33
-57.38
-3.11
42.37
71.94
82.44
76.67
60.14
38.12
13.90
-10.53
-33.93
-55.61
-74.88
-91.15
-102.77
-108.75
-109.88
-108.43
-106.30
-104.77
-104.39
-104.67
-104.15
-100.63
-92.60
-80.12
-64.63
-47.20
-29.11
-11.71
4.36
19.57
35.18
52.15
70.36
88.63
106.46
122.70
135.65
143.87
146.97
145.30
139.48
130.03
109.97
79.18
44.26
13.65
-8.12
-21.22
-28.46
-33.20
-38.02
-44.22
-50.59
-55.91
-59.86
-62.79
-64.91
-66.30
-66.84
-66.57
-65.56
-63.24
-59.77
-56.16
-53.96
-53.15
-53.02
-52.36
-50.07
-45.34
-37.52
-27.09
-15.50
-4.49
4.78
11.75
16.53
19.52
21.40
23.08
25.15
27.85
31.23
35.42
40.50
46.62
52.44
57.24
60.68
62.76
63.78
64.25
64.83
65.90
67.39
68.64
68.69
66.28
60.27
50.14
36.19
19.70
2.46
-13.59
-27.04
-37.07
-43.83
-48.17
-51.33
-54.52
-58.61
-63.93
-70.07
-76.07
-80.43
-81.67
-78.74
-71.30
-59.79
-45.34
-29.42
-13.55
0.96
13.16
22.50
28.81
32.38
33.89
34.32
34.71
35.92
38.35
41.84
45.69
48.86
50.37
49.59
46.52
41.70
36.03
30.43
25.58
21.74
18.76
16.26
13.82
11.08
7.82
3.85
-0.94
-6.60
-13.00
-19.82
-26.53
-32.52
-37.21
-40.15
-41.12
-40.07
-37.25
-33.16
-28.50
-24.14
-20.85
-19.17
-19.24
-20.90
-23.75
-27.34
-31.26
-35.22
-38.97
-42.31
-45.01
-46.85
-47.67
-47.40
-46.19
-44.42
-42.58
-41.24
-40.78
-41.30
-42.53
-43.93
-44.81
-44.57
-42.79
-39.40
-34.61
-28.83
-22.52
-16.09
-9.82
-3.88
1.60
6.49
10.66
13.88
15.98
16.87
16.70
15.90
15.16
15.37
17.34
21.61
28.24
36.86
46.71
56.91
66.61
75.09
81.79
86.33
88.54
88.39
86.09
82.03
76.72
70.72
64.52
58.43
52.50
46.60
40.48
33.99
27.20
20.44
14.19
8.87
4.64
1.30
-1.54
-4.33
-7.32
-10.57
-13.91
-17.10
-19.95
-22.40
-24.47
-26.26
-27.94
-29.76
-32.01
-34.99
-38.77
-43.04
-47.12
-50.00
-50.65
-48.42
-43.21
-35.56
-26.42
-16.81
-7.57
0.81
8.10
14.27
19.32
23.23
25.98
27.57
28.10
27.75
26.73
25.29
23.66
21.97
20.24
18.39
16.32
14.02
11.58
9.06
6.61
4.32
2.16
-0.09
-2.72
-5.95
-9.77
-13.88
-18.05
-21.99
-25.51
-28.72
-31.94
-35.65
-40.17
-45.48
-51.19
-57.00
-62.36
-66.60
-69.08
-69.34
-67.32
-63.29
-57.77
-51.41
-45.17
-39.51
-34.22
-28.69
-22.35
-15.41
-8.75
-3.59
1.69
7.37
12.92
17.68
21.52
25.04
28.46
32.07
36.59
43.16
52.42
64.40
78.96
94.76
109.72
120.65
124.86
121.17
110.15
93.30
72.72
50.45
27.33
5.20
-15.28
-33.91
-50.71
-65.84
-80.01
-94.11
-108.64
-123.36
-131.38
-127.77
-112.13
-89.06
-64.64
-42.79
-24.16
-7.21
9.89
27.78
44.01
54.88
57.44
51.16
38.14
22.14
7.24
-4.12
-10.75
-13.60
-14.37
-14.29
-13.61
-11.80
-8.34
-3.22
2.88
8.99
13.65
15.93
15.89
14.52
13.00
12.17
12.32
13.14
14.19
14.82
14.67
13.74
12.32
10.79
9.43
8.37
7.57
6.88
6.02
4.84
3.34
1.71
0.35
-0.24
0.31
2.02
4.55
7.21
9.39
10.56
10.40
8.90
6.31
3.11
-0.17
-2.91
-4.55
-4.37
-2.04
2.13
7.19
11.94
15.41
17.40
18.73
19.57
20.66
22.39
24.00
23.45
18.64
8.83
-4.71
-19.11
-31.19
-38.41
-39.76
-35.66
-27.35
-16.28
-3.91
8.18
18.51
25.97
30.40
32.49
34.03
35.39
36.33
36.10
33.76
28.75
21.34
12.80
5.11
-0.08
-0.84
3.30
11.17
20.29
27.76
31.03
28.87
21.58
10.77
-1.34
-12.76
-22.23
-29.43
-34.64
-38.54
-41.62
-44.01
-45.64
-46.40
-46.35
-45.64
-44.84
-43.51
-41.23
-37.64
-32.61
-26.48
-19.98
-13.99
-9.13
-5.56
-2.84
-0.43
2.16
5.27
8.83
12.63
16.43
20.15
23.86
27.70
31.61
35.00
37.63
39.31
39.74
38.41
34.70
28.12
18.80
7.50
-4.34
-15.01
-23.29
-28.73
-31.54
-32.30
-31.54
-29.66
-27.18
-24.75
-23.22
-23.37
-25.45
-28.80
-32.15
-34.14
-33.89
-31.58
-28.12
-24.89
-23.37
-24.79
-29.63
-37.13
-44.76
-48.43
-43.70
-27.41
0.40
35.76
71.81
101.19
118.59
122.43
115.46
101.34
84.59
68.63
55.11
44.26
35.53
28.20
21.76
15.83
10.06
4.18
-1.74
-7.79
-13.66
-18.60
-21.56
-21.64
-18.68
-13.56
-7.74
-2.90
-0.27
0.00
-1.18
-2.38
-2.33
-0.63
1.92
3.89
3.82
0.92
-4.40
-10.78
-16.51
-20.31
-21.90
-21.95
-21.54
-21.55
-22.29
-23.46
-24.52
-25.18
-25.62
-26.38
-27.91
-30.14
-32.29
-33.16
-31.75
-27.79
-22.06
-15.80
-10.27
-6.18
-3.38
-1.10
1.41
4.45
7.67
10.35
11.88
12.10
11.46
10.68
10.40
10.76
11.44
11.89
11.64
10.63
9.16
7.74
6.75
6.29
6.14
5.95
5.40
4.40
3.10
1.78
0.69
-0.02
-0.42
-0.71
-1.06
-1.60
-2.34
-3.23
-4.17
-5.18
-6.29
-7.46
-8.53
-9.13
-8.82
-7.29
-4.52
-0.86
2.99
6.28
8.41
9.12
8.53
7.01
4.97
2.74
0.57
-1.44
-3.22
-4.65
-5.60
-5.95
-5.72
-5.01
-4.33
-3.98
-4.09
-4.59
-5.21
-5.70
-5.82
-5.51
-4.92
-4.35
-4.13
-4.62
-6.02
-8.35
-11.38
-14.73
-18.00
-20.97
-23.64
-26.19
-28.94
-32.15
-35.94
-40.23
-44.73
-48.95
-52.29
-54.08
-53.70
-50.82
-45.55
-38.49
-30.55
-22.74
-15.89
-10.41
-6.35
-3.46
-1.42
-0.01
0.96
1.63
2.20
2.97
4.25
6.27
9.14
12.81
17.07
21.64
26.18
30.37
33.87
36.43
37.91
38.27
37.63
36.17
34.08
31.49
28.44
24.96
21.04
16.74
12.21
7.64
3.21
-0.94
-4.79
-8.41
-11.93
-15.56
-19.38
-23.32
-27.08
-30.10
-31.71
-31.34
-28.68
-23.85
-17.36
-10.00
-2.60
4.22
10.08
14.88
18.70
21.60
23.68
24.95
25.51
25.49
25.08
24.48
23.78
23.03
22.25
21.42
20.65
20.00
19.55
19.25
19.02
18.70
18.17
17.39
16.35
15.11
13.69
12.06
10.21
8.15
5.93
3.63
1.33
-0.89
-3.04
-5.15
-7.27
-9.44
-11.72
-14.16
-16.82
-19.70
-22.66
-25.39
-27.38
-28.05
-26.90
-23.75
-18.76
-12.47
-5.62
1.01
6.81
11.47
14.95
17.40
19.07
20.19
20.93
21.40
21.67
21.78
21.79
21.72
21.57
21.27
20.77
20.05
19.13
18.11
17.09
16.11
15.16
14.13
12.92
11.50
9.92
8.31
6.79
5.37
3.97
2.44
0.61
-1.55
-3.96
-6.43
-8.76
-10.82
-12.64
-14.39
-16.29
-18.55
-21.24
-24.18
-27.00
-29.16
-30.08
-29.37
-26.88
-22.79
-17.53
-11.68
-5.83
-0.45
4.08
7.54
9.81
10.96
11.15
10.67
9.82
8.82
7.80
6.75
5.63
4.42
3.11
1.73
0.25
-1.37
-3.20
-5.25
-7.49
-9.77
-11.90
-13.69
-14.94
-15.55
-15.44
-14.66
-13.24
-11.26
-8.76
-5.78
-2.41
1.19
4.74
7.94
10.48
12.12
12.67
12.01
10.17
7.40
4.24
1.45
-0.21
-0.17
1.65
4.90
8.99
13.26
17.29
20.83
23.81
26.20
27.93
28.88
29.01
28.38
27.23
25.86
24.60
23.62
22.95
22.41
21.71
20.63
19.09
17.25
15.42
13.90
12.86
12.23
11.78
11.19
10.23
8.86
7.13
5.22
3.27
1.39
-0.39
-2.10
-3.77
-5.49
-7.34
-9.44
-11.83
-14.47
-17.15
-19.46
-20.88
-20.86
-19.08
-15.57
-10.73
-5.28
0.07
4.75
8.54
11.50
13.83
15.69
17.11
17.98
18.21
17.82
17.03
16.17
15.49
15.11
14.93
14.75
14.42
13.87
13.17
12.43
11.68
10.89
9.99
8.91
7.68
6.38
5.10
3.85
2.51
0.98
-0.80
-2.74
-4.67
-6.43
-7.96
-9.32
-10.72
-12.39
-14.49
-17.04
-19.83
-22.45
-24.29
-24.74
-23.35
-20.04
-15.18
-9.43
-3.63
1.56
5.79
9.05
11.55
13.54
15.15
16.38
17.16
17.42
17.19
16.56
15.69
14.75
13.85
13.07
12.44
11.97
11.61
11.34
11.03
10.60
9.97
9.11
8.04
6.84
5.58
4.29
3.02
1.78
0.59
-0.55
-1.71
-2.97
-4.41
-6.08
-7.93
-9.87
-11.85
-13.84
-15.89
-18.06
-20.28
-22.34
-23.88
-24.46
-23.71
-21.46
-17.84
-13.22
-8.16
-3.18
1.33
5.17
8.29
10.71
12.48
13.60
14.14
14.26
14.17
14.08
14.10
14.24
14.39
14.42
14.26
13.96
13.66
13.52
13.60
13.87
14.23
14.55
14.74
14.80
14.83
15.02
15.55
16.45
17.60
18.73
19.53
19.76
19.34
18.43
17.57
17.25
17.72
19.01
20.90
23.06
25.07
26.57
27.39
28.03
29.19
31.65
36.14
43.05
52.15
62.34
71.86
78.75
81.94
80.83
75.39
66.29
54.98
43.41
33.52
26.67
23.32
23.55
26.05
28.57
28.77
25.08
17.13
5.57
-8.37
-27.18
-49.75
-72.56
-91.90
-106.26
-116.23
-122.97
-127.14
-128.80
-127.86
-123.84
-117.14
-108.93
-100.61
-93.05
-86.46
-80.75
-75.77
-71.52
-67.59
-63.89
-60.49
-57.36
-54.00
-49.53
-43.11
-34.31
-23.21
-10.07
4.33
18.86
32.06
42.27
47.92
47.90
41.81
30.30
15.36
-0.48
-13.62
-21.35
-22.24
-16.40
-5.48
7.81
20.56
30.68
37.31
40.94
42.72
44.00
45.60
47.33
48.06
46.18
40.43
30.57
17.63
3.39
-10.23
-21.85
-31.10
-38.36
-44.39
-49.61
-53.87
-56.61
-57.45
-56.44
-54.08
-51.45
-48.68
-45.65
-41.79
-36.40
-29.08
-20.12
-10.51
-1.66
5.06
8.95
10.13
9.57
8.59
8.32
9.19
10.86
12.56
13.49
13.33
12.24
10.74
9.33
8.36
7.97
8.27
9.41
11.42
14.07
16.58
17.91
17.19
14.27
9.95
5.73
3.07
2.68
3.89
4.88
3.36
-2.43
-12.87
-26.69
-41.45
-54.45
-63.76
-68.81
-70.25
-69.35
-67.22
-64.31
-60.44
-55.12
-47.92
-38.44
-27.03
-14.32
-1.23
11.12
21.54
29.17
33.76
35.92
36.80
37.43
38.26
38.90
38.53
36.54
33.00
28.60
24.21
20.27
16.51
12.32
7.33
1.66
-4.03
-9.02
-12.91
-15.81
-18.01
-19.64
-20.41
-20.01
-18.59
-17.10
-17.05
-19.71
-25.12
-32.06
-38.42
-42.13
-41.90
-37.47
-29.40
-18.56
-5.73
8.61
23.57
37.55
48.42
54.23
54.11
48.67
39.77
29.93
22.17
18.46
19.12
22.92
27.91
32.33
35.16
36.33
36.66
38.41
43.51
52.48
64.20
76.63
87.70
95.84
100.26
100.88
99.47
97.79
96.74
96.15
95.41
93.96
91.23
86.60
71.64
43.10
5.03
-32.66
-60.67
-74.91
-76.55
-69.72
-59.36
-48.16
-37.07
-26.54
-17.44
-11.13
-8.71
-10.22
-14.55
-19.71
-25.16
-28.56
-28.33
-24.54
-18.84
-13.40
-9.87
-8.86
-10.07
-12.62
-14.79
-15.39
-14.16
-11.73
-9.03
-6.73
-5.08
-4.02
-3.26
-2.08
-0.00
2.95
6.28
9.20
11.02
11.42
10.64
9.48
9.33
11.47
16.56
24.34
33.59
42.45
48.92
51.43
49.18
42.44
32.24
20.01
7.23
-4.96
-15.94
-25.48
-33.59
-40.35
-45.66
-49.40
-51.50
-52.16
-51.93
-51.69
-52.45
-55.01
-59.69
-66.09
-73.08
-79.11
-82.59
-82.44
-78.47
-71.62
-63.77
-57.30
-54.30
-55.76
-60.97
-67.47
-71.69
-70.03
-60.20
-42.08
-17.89
8.52
32.82
51.44
62.43
65.67
62.57
55.50
47.10
39.78
35.30
34.58
37.67
43.80
51.62
59.44
65.52
68.43
67.30
62.06
53.52
43.13
32.61
23.38
16.18
10.94
7.03
3.71
0.57
-2.25
-4.21
-4.70
-3.31
-0.16
4.30
9.37
14.45
19.14
23.28
26.74
29.42
31.23
32.09
32.04
31.21
29.77
27.88
25.55
22.64
18.91
14.26
8.84
3.03
-2.72
-8.12
-13.12
-17.97
-23.19
-29.28
-36.44
-44.45
-52.76
-60.60
-67.20
-71.84
-73.91
-73.43
-70.83
-66.80
-62.31
-58.37
-55.53
-53.79
-52.00
-48.10
-40.82
-29.79
-15.91
-1.07
12.34
22.64
28.79
31.19
31.14
28.62
23.04
13.84
1.20
-13.87
-29.30
-43.78
-56.22
-65.94
-74.42
-83.33
-93.38
-103.97
-113.96
-121.98
-128.43
-133.99
-129.16
-108.15
-71.72
-27.50
15.09
45.67
65.93
78.67
86.66
92.46
96.98
99.99
101.22
100.76
98.82
96.22
92.61
87.99
82.74
76.09
67.43
57.01
46.24
36.99
31.20
28.92
29.23
30.79
31.58
30.29
26.98
22.88
19.47
17.84
17.47
17.17
15.99
13.42
9.85
6.16
3.10
0.60
-1.88
-5.07
-8.89
-12.25
-13.99
-13.73
-12.41
-11.78
-13.43
-17.58
-22.99
-27.65
-29.91
-29.41
-27.20
-24.93
-23.75
-23.50
-22.83
-20.04
-14.29
-6.02
3.43
12.72
21.42
30.12
39.98
51.79
65.26
78.71
90.15
98.38
103.39
105.92
106.56
105.25
101.52
95.17
86.19
75.99
67.15
62.22
62.22
65.89
70.41
72.75
70.78
61.96
45.45
22.64
-3.28
-28.86
-51.50
-69.61
-82.53
-90.67
-98.58
-110.99
-130.41
-156.09
-185.09
-213.62
-237.64
-253.36
-258.46
-256.82
-253.74
-253.39
-257.44
-266.37
-280.45
-299.42
-321.62
-321.65
-283.42
-208.89
-117.27
-29.10
44.33
100.12
139.85
166.97
187.57
201.35
207.19
205.71
199.87
193.02
187.46
181.97
176.07
169.65
159.68
144.09
123.23
99.87
77.31
57.80
42.27
31.05
23.71
17.28
9.45
-0.10
-9.47
-16.00
-17.85
-14.64
-7.11
2.99
12.45
18.67
20.63
18.97
15.24
10.98
7.42
5.44
5.43
6.68
8.15
8.94
8.65
7.42
5.64
3.72
1.98
0.41
-1.57
-4.65
-9.18
-14.99
-21.54
-28.46
-35.80
-43.83
-52.53
-61.77
-70.89
-78.45
-82.45
-80.97
-72.82
-57.80
-36.72
-11.01
16.28
41.33
60.79
72.93
78.16
78.61
77.45
77.76
81.82
88.86
95.73
98.19
92.60
76.87
50.96
17.04
-23.42
-62.11
-88.45
-95.88
-85.65
-63.94
-37.68
-12.22
8.99
24.20
35.22
41.35
41.72
36.34
26.81
15.72
5.59
-1.86
-5.98
-6.65
-7.00
-9.18
-14.38
-22.22
-31.19
-39.43
-45.52
-48.81
-49.32
-48.23
-46.50
-44.58
-42.01
-37.85
-31.37
-22.52
-11.98
-0.76
9.67
18.42
25.04
29.62
32.50
34.02
34.46
34.03
32.99
31.45
29.63
27.61
25.35
22.77
19.74
16.27
12.51
8.73
5.24
2.26
-0.17
-2.24
-4.22
-6.35
-8.67
-11.03
-13.17
-14.86
-15.98
-16.60
-16.95
-17.34
-18.03
-19.10
-20.39
-21.34
-21.16
-18.96
-14.11
-6.45
3.55
14.96
26.64
37.48
46.68
53.73
58.45
60.89
61.35
60.29
58.24
55.61
52.66
49.46
46.00
42.30
38.55
34.98
31.84
29.26
27.07
24.95
22.56
19.69
16.35
12.69
8.82
4.77
0.49
-4.13
-9.07
-14.02
-18.55
-22.37
-25.45
-28.02
-30.25
-32.03
-33.09
-33.06
-31.57
-28.62
-24.71
-20.64
-17.08
-14.18
-11.56
-9.00
-6.87
-5.85
-6.82
-10.26
-15.78
-21.99
-26.75
-27.89
-24.69
-18.22
-10.30
-2.77
3.44
8.35
12.71
17.79
25.18
35.43
44.16
46.89
41.39
28.83
11.65
-7.61
-25.73
-37.39
-38.93
-27.87
-3.81
30.88
71.74
113.33
147.45
162.01
150.50
116.17
70.38
25.42
-11.50
-38.65
-57.83
-71.16
-79.13
-80.49
-74.77
-63.52
-50.10
-39.50
-33.20
-31.21
-32.29
-34.15
-33.96
-30.06
-22.46
-12.71
-2.90
5.44
11.14
13.61
12.79
9.92
5.60
0.12
-6.57
-14.37
-22.66
-30.73
-37.82
-43.29
-46.65
-48.03
-48.12
-47.89
-48.24
-49.38
-51.06
-52.59
-53.08
-51.73
-48.20
-42.63
-35.62
-28.03
-20.61
-13.99
-8.47
-4.12
-0.84
1.46
2.85
3.42
3.26
2.59
1.68
0.78
0.10
-0.25
-0.30
-0.06
0.45
1.27
2.39
3.74
5.13
6.37
7.28
7.78
8.00
8.17
8.52
9.20
10.17
11.23
12.08
12.42
12.04
10.84
8.86
6.28
3.41
0.70
-1.35
-2.24
-1.67
0.39
3.60
7.30
10.70
13.10
14.09
13.64
12.03
9.68
6.97
4.16
1.37
-1.35
-4.00
-6.54
-9.01
-11.47
-13.98
-16.57
-19.09
-21.26
-22.76
-23.32
-22.94
-21.79
-20.19
-18.46
-16.78
-15.22
-13.78
-12.42
-11.09
-9.66
-7.92
-5.60
-2.51
1.33
5.59
9.76
13.24
15.63
16.91
17.41
17.76
18.66
20.58
23.61
27.37
31.15
34.22
36.09
36.69
36.32
35.43
34.34
33.08
31.49
29.29
26.41
22.95
19.25
15.70
12.57
9.97
7.86
6.19
4.89
3.99
3.48
3.33
3.45
3.71
3.95
4.07
3.98
3.63
2.97
1.98
0.66
-0.99
-2.95
-5.24
-7.89
-10.93
-14.36
-18.15
-22.31
-26.80
-31.56
-36.38
-40.86
-44.45
-46.56
-46.75
-44.87
-41.14
-36.03
-30.16
-24.15
-18.43
-13.25
-8.70
-4.73
-1.31
1.52
3.69
5.16
6.02
6.49
6.91
7.54
8.49
9.65
10.75
11.52
11.83
11.65
11.07
10.16
8.94
7.37
5.40
2.99
0.20
-2.87
-6.00
-9.05
-11.91
-14.58
-17.13
-19.67
-22.26
-24.89
-27.53
-30.13
-32.77
-35.58
-38.73
-42.33
-46.27
-50.23
-53.71
-56.08
-56.70
-55.12
-51.08
-44.63
-36.14
-26.16
-15.32
-4.18
6.86
17.62
28.05
38.12
47.72
56.61
64.45
70.97
76.06
79.81
82.52
84.47
85.80
86.37
85.76
83.38
78.73
71.63
62.37
51.64
40.34
29.29
19.10
10.11
2.40
-4.08
-9.48
-14.01
-17.93
-21.53
-25.05
-28.55
-31.91
-34.90
-37.31
-39.09
-40.45
-41.76
-43.40
-45.55
-48.06
-50.39
-51.79
-51.50
-49.07
-44.50
-38.25
-31.10
-23.87
-17.25
-11.63
-7.13
-3.70
-1.18
0.58
1.73
2.35
2.55
2.47
2.28
2.24
2.60
3.60
5.39
7.94
11.09
14.56
18.02
21.17
23.76
25.62
26.74
27.36
28.07
29.83
33.60
39.97
48.69
58.62
68.03
75.13
78.75
78.64
75.36
69.86
62.99
55.33
47.22
38.94
30.97
23.93
18.51
15.22
14.34
15.80
19.21
23.86
28.80
32.99
35.46
35.50
32.75
27.20
19.18
9.17
-2.19
-14.30
-26.53
-38.31
-49.14
-58.55
-66.09
-71.43
-74.38
-75.05
-73.87
-71.45
-68.50
-65.54
-62.87
-60.51
-58.36
-56.31
-54.31
-52.35
-50.51
-48.84
-47.37
-46.07
-44.87
-43.77
-42.76
-41.91
-41.19
-40.45
-39.34
-37.37
-34.07
-29.19
-22.85
-15.48
-7.71
-0.18
6.64
12.53
17.47
21.51
24.73
27.18
28.92
30.00
30.54
30.67
30.51
30.18
29.73
29.16
28.53
27.87
27.29
26.84
26.51
26.13
25.40
23.98
21.65
18.41
14.50
10.29
6.14
2.26
-1.35
-4.81
-8.34
-12.10
-16.16
-20.36
-24.35
-27.52
-29.17
-28.70
-25.82
-20.70
-14.00
-6.60
0.62
7.05
12.43
16.73
20.04
22.45
23.99
24.73
24.83
24.56
24.24
24.07
24.11
24.21
24.11
23.63
22.76
21.63
20.45
19.37
18.39
17.39
16.19
14.64
12.73
10.54
8.26
6.04
4.00
2.18
0.55
-1.01
-2.67
-4.63
-7.05
-9.96
-13.15
-16.16
-18.33
-19.01
-17.72
-14.32
-9.09
-2.62
4.35
11.15
17.22
22.30
26.23
28.99
30.60
31.12
30.65
29.35
27.44
25.16
22.77
20.49
18.45
16.70
15.20
13.85
12.57
11.33
10.12
8.99
7.98
7.08
6.28
5.49
4.61
3.55
2.22
0.59
-1.25
-3.17
-5.00
-6.63
-8.09
-9.55
-11.26
-13.39
-15.98
-18.86
-21.72
-24.17
-25.77
-26.16
-25.07
-22.45
-18.50
-13.67
-8.51
-3.54
0.94
4.81
8.07
10.71
12.60
13.50
13.22
11.73
9.29
6.32
3.35
0.78
-1.20
-2.66
-3.87
-5.14
-6.66
-8.35
-9.90
-10.77
-10.36
-8.30
-4.53
0.59
6.40
12.12
16.99
20.50
22.43
22.88
22.15
20.67
18.86
17.05
15.42
13.96
12.60
11.24
9.84
8.53
7.58
7.33
8.08
10.01
13.04
16.95
21.29
25.52
29.09
31.62
32.85
32.76
31.51
29.32
26.45
23.08
19.41
15.57
11.78
8.22
5.05
2.35
0.05
-1.98
-3.87
-5.75
-7.61
-9.39
-10.98
-12.25
-13.08
-13.39
-13.11
-12.27
-10.95
-9.32
-7.57
-5.91
-4.52
-3.57
-3.15
-3.32
-4.02
-5.15
-6.52
-7.85
-8.86
-9.22
-8.65
-6.98
-4.17
-0.43
3.90
8.34
12.40
15.71
18.08
19.48
19.98
19.75
18.95
17.71
16.14
14.34
12.42
10.50
8.72
7.25
6.21
5.62
5.41
5.37
5.31
5.07
4.66
4.17
3.74
3.44
3.27
3.17
3.10
3.11
3.28
3.73
4.45
5.33
6.13
6.58
6.53
5.91
4.80
3.34
1.64
-0.27
-2.40
-4.77
-7.21
-9.42
-10.95
-11.38
-10.47
-8.29
-5.24
-1.91
1.06
3.22
4.39
4.64
4.23
3.47
2.62
1.79
1.02
0.27
-0.47
-1.14
-1.73
-2.25
-2.77
-3.40
-4.13
-4.84
-5.35
-5.43
-5.04
-4.31
-3.52
-3.01
-2.97
-3.44
-4.30
-5.31
-6.25
-7.02
-7.61
-8.13
-8.70
-9.42
-10.32
-11.42
-12.67
-14.03
-15.42
-16.79
-18.07
-19.25
-20.33
-21.39
-22.44
-23.44
-24.26
-24.70
-24.54
-23.61
-21.83
-19.22
-15.89
-12.09
-8.12
-4.34
-1.01
1.72
3.90
5.68
7.22
8.62
9.88
10.92
11.68
12.14
12.38
12.46
12.44
12.28
11.89
11.19
10.17
8.92
7.56
6.26
5.11
4.10
3.18
2.26
1.30
0.32
-0.64
-1.52
-2.30
-2.99
-3.67
-4.44
-5.36
-6.48
-7.78
-9.19
-10.62
-12.00
-13.28
-14.44
-15.45
-16.17
-16.39
-15.82
-14.21
-11.52
-7.97
-4.00
-0.14
3.15
5.65
7.37
8.46
9.10
9.36
9.25
8.74
7.95
7.06
6.33
5.92
5.79
5.76
5.58
5.12
4.41
3.66
3.08
2.76
2.63
2.48
2.14
1.50
0.62
-0.38
-1.44
-2.55
-3.80
-5.24
-6.85
-8.50
-10.02
-11.29
-12.30
-13.17
-14.01
-14.97
-16.10
-17.43
-18.90
-20.41
-21.77
-22.69
-22.82
-21.86
-19.67
-16.33
-12.15
-7.60
-3.16
0.82
4.15
6.77
8.72
10.05
10.84
11.16
11.11
10.83
10.44
10.06
9.74
9.54
9.41
9.31
9.13
8.79
8.24
7.52
6.74
6.02
5.39
4.81
4.14
3.28
2.19
0.95
-0.30
-1.51
-2.65
-3.78
-4.98
-6.28
-7.68
-9.14
-10.62
-12.06
-13.44
-14.73
-15.93
-17.12
-18.38
-19.81
-21.42
-23.07
-24.43
-25.09
-24.64
-22.82
-19.62
-15.24
-10.09
-4.65
0.64
5.45
9.62
13.07
15.80
17.82
19.11
19.69
19.64
19.12
18.34
17.56
16.90
16.36
15.84
15.22
14.44
13.56
12.69
11.92
11.29
10.72
10.09
9.29
8.25
6.97
5.48
3.86
2.26
0.85
-0.21
-0.90
-1.36
-1.87
-2.72
-4.12
-6.10
-8.48
-11.01
-13.47
-15.76
-17.87
-19.81
-21.52
-22.83
-23.49
-23.29
-22.11
-20.00
-17.13
-13.71
-9.98
-6.17
-2.51
0.79
3.54
5.61
7.00
7.85
8.34
8.73
9.21
9.93
10.93
12.18
13.57
14.89
15.89
16.35
16.11
15.16
13.61
11.63
9.44
7.24
5.24
3.56
2.31
1.45
0.84
0.29
-0.35
-1.14
-1.99
-2.82
-3.61
-4.41
-5.36
-6.57
-8.04
-9.72
-11.55
-13.48
-15.51
-17.55
-19.34
-20.46
-20.44
-18.96
-16.02
-12.00
-7.52
-3.22
0.46
3.33
5.45
6.96
7.97
8.49
8.52
8.12
7.47
6.80
6.35
6.27
6.56
7.17
7.97
8.81
9.54
9.97
9.97
9.49
8.66
7.67
6.74
6.01
5.45
4.91
4.23
3.33
2.23
1.04
-0.11
-1.18
-2.22
-3.34
-4.66
-6.26
-8.15
-10.21
-12.24
-13.91
-14.83
-14.64
-13.08
-10.05
-5.67
-0.24
5.84
12.10
18.08
23.41
27.85
31.31
33.84
35.53
36.51
36.97
37.14
37.30
37.81
38.86
40.45
42.25
43.83
44.76
44.86
44.18
42.79
40.61
37.35
32.60
26.03
17.60
7.57
-3.64
-15.55
-27.67
-39.44
-50.13
-58.84
-64.65
-66.91
-65.57
-61.29
-55.42
-49.64
-45.47
-43.77
-44.50
-46.75
-49.07
-50.12
-49.02
-45.66
-40.53
-34.42
-28.02
-21.78
-15.89
-10.39
-5.30
-0.66
3.46
7.04
10.04
12.43
14.12
14.97
14.87
13.81
11.94
9.59
7.14
4.96
3.29
2.21
1.66
1.51
1.58
1.69
1.68
1.41
0.82
-0.09
-1.23
-2.49
-3.79
-5.12
-6.52
-8.14
-10.15
-12.66
-15.71
-19.09
-22.43
-25.19
-26.89
-27.21
-26.19
-24.15
-21.56
-18.82
-16.20
-13.75
-11.50
-9.52
-7.94
-6.90
-6.44
-6.43
-6.67
-6.93
-7.05
-6.93
-6.51
-5.73
-4.54
-2.96
-1.12
0.70
2.25
3.34
3.98
4.31
4.57
4.92
5.39
5.86
6.11
5.97
5.36
4.34
3.04
1.70
0.42
-0.71
-1.74
-2.81
-4.06
-5.59
-7.43
-9.51
-11.58
-13.27
-14.14
-13.77
-11.89
-8.51
-3.95
1.23
6.37
10.90
14.43
16.85
18.21
18.70
18.51
17.84
16.87
15.76
14.67
13.69
12.82
12.04
11.24
10.36
9.36
8.22
6.99
5.73
4.47
3.22
1.94
0.53
-1.10
-3.01
-5.16
-7.38
-9.43
-11.04
-12.08
-12.57
-12.77
-13.07
-13.83
-15.30
-17.47
-20.09
-22.74
-24.87
-25.92
