1515731745.00
64.000000
-0.00
-0.00
-0.00
-0.00
-0.00
-0.00
-0.00
-0.00
-0.00
-0.00
0.00
0.01
0.01
-0.00
-0.03
-0.05
-0.05
0.00
0.13
0.36
0.66
1.01
1.37
1.72
2.06
2.40
2.79
3.24
3.80
4.42
5.06
5.66
6.20
6.68
7.15
7.68
8.31
9.14
10.09
11.04
11.88
12.56
13.14
13.76
14.65
15.96
17.91
20.32
22.90
25.38
27.58
29.57
31.68
34.32
37.81
42.54
48.15
54.10
59.83
64.97
69.58
74.14
79.34
85.71
93.76
103.00
112.62
121.73
129.77
136.75
143.30
150.75
157.77
166.64
177.95
191.79
206.97
220.57
228.25
225.36
208.53
176.87
132.76
80.05
23.07
-34.94
-92.44
-149.16
-205.23
-260.37
-313.74
-363.87
-409.83
-450.91
-486.50
-515.74
-537.23
-549.22
-549.96
-538.37
-514.21
-478.67
-433.88
-382.45
-327.02
-269.84
-212.63
-156.66
-102.95
-52.37
-5.90
35.58
71.43
101.35
125.50
144.38
158.69
169.15
176.37
180.75
182.57
182.07
179.51
175.23
169.65
163.18
156.15
148.81
141.30
133.69
126.02
118.33
110.69
103.16
95.80
88.68
81.83
75.25
68.95
62.95
57.25
51.86
46.78
42.03
37.59
33.45
29.61
26.07
22.81
19.83
17.11
14.67
12.48
10.54
8.83
7.35
6.07
4.97
4.05
3.27
2.62
2.09
1.65
1.30
1.01
0.79
0.61
0.48
0.37
0.29
0.24
0.21
0.19
0.18
0.18
0.20
0.22
0.25
0.28
0.32
0.36
0.41
0.45
0.50
0.55
0.60
0.65
0.70
0.76
0.83
0.90
0.97
1.05
1.14
1.25
1.39
1.54
1.70
1.85
2.00
2.12
2.24
2.38
2.57
2.81
3.13
3.49
3.88
4.27
4.64
5.02
5.42
5.90
6.48
7.16
7.89
8.64
9.34
9.98
10.58
11.23
12.01
12.99
14.14
15.39
16.56
17.53
18.20
18.60
18.81
18.94
19.01
18.86
18.19
16.59
13.76
9.61
4.35
-1.58
-7.56
-13.12
-18.03
-22.44
-26.67
-31.04
-35.64
-40.19
-44.13
-46.93
-48.25
-48.22
-47.32
-46.30
-45.81
-46.39
-48.38
-51.80
-56.13
-60.06
-61.74
-59.13
-50.97
-37.56
-20.81
-3.73
10.81
21.11
27.14
30.21
32.08
33.99
36.32
38.65
40.30
40.88
40.43
39.34
38.00
36.54
34.73
32.04
28.10
22.87
16.85
10.89
5.80
2.13
-0.16
-1.55
-2.69
-4.04
-5.76
-7.66
-9.49
-11.09
-12.41
-13.42
-13.91
-13.53
-11.80
-8.36
-3.05
4.01
12.04
19.96
26.76
31.77
34.73
35.82
35.38
33.77
31.29
28.18
24.73
21.24
17.99
15.19
12.96
11.31
10.23
9.63
9.36
9.26
9.07
8.63
7.80
6.58
5.13
3.62
2.16
0.67
-0.99
-3.02
-5.46
-8.21
-11.05
-13.71
-16.06
-18.04
-19.77
-21.36
-22.91
-24.45
-26.09
-28.02
-30.42
-33.43
-36.79
-39.89
-41.73
-41.36
-38.12
-31.97
-23.50
-13.68
-3.57
5.93
14.21
20.93
25.92
29.07
30.44
30.15
28.60
26.29
23.78
21.50
19.65
18.20
16.97
15.85
14.83
14.03
13.52
13.28
13.12
12.70
11.75
10.14
7.98
5.48
2.95
0.59
-1.60
-3.72
-5.93
-8.29
-10.75
-13.11
-15.16
-16.75
-17.93
-18.94
-20.16
-22.01
-24.70
-28.24
-32.23
-35.99
-38.60
-39.14
-37.02
-32.13
-24.94
-16.34
-7.34
1.26
8.97
15.58
21.00
25.13
27.84
29.00
28.63
26.95
24.38
21.47
18.70
16.47
14.94
14.13
13.91
14.06
14.37
14.59
14.53
14.04
13.04
11.54
9.68
7.63
5.60
3.80
2.29
0.98
-0.39
-2.15
-4.59
-7.69
-11.17
-14.53
-17.28
-19.17
-20.34
-21.24
-22.38
-24.12
-26.55
-29.43
-32.29
-34.53
-35.54
-34.76
-31.87
-26.80
-19.82
-11.49
-2.57
6.13
13.92
20.21
24.65
27.10
27.65
26.61
24.45
21.75
19.01
16.67
14.93
13.84
13.33
13.26
13.52
13.98
14.50
14.86
14.81
14.10
12.65
10.59
8.25
6.09
4.51
3.62
3.28
3.11
2.68
1.69
0.03
-2.22
-4.81
-7.48
-9.98
-12.16
-13.95
-15.38
-16.64
-18.06
-20.07
-22.93
-26.61
-30.55
-33.75
-35.10
-33.69
-29.17
-21.78
-12.27
-1.67
9.00
18.96
27.71
35.03
40.91
45.42
48.55
50.18
50.08
48.02
43.94
38.06
30.98
23.61
17.02
12.32
10.43
11.96
17.05
25.30
35.76
47.07
57.70
66.15
71.31
72.68
70.53
66.00
60.82
57.02
56.43
60.26
68.88
81.82
97.85
115.24
132.03
146.18
155.89
159.92
157.93
150.63
139.66
127.16
115.16
105.05
97.42
92.18
88.86
86.98
86.20
86.24
86.70
86.90
86.01
83.32
78.46
71.64
63.50
54.88
46.39
38.18
29.56
19.67
7.89
-5.85
-21.15
-37.36
-53.84
-70.20
-86.31
-102.44
-118.61
-134.31
-148.54
-160.32
-169.13
-175.13
-179.07
-181.89
-184.97
-189.01
-193.71
-198.02
-200.91
-201.83
-200.69
-197.70
-193.21
-189.29
-187.44
-187.68
-188.56
-188.25
-185.35
-179.08
-169.56
-157.80
-149.02
-147.28
-153.10
-163.53
-174.76
-184.15
-190.72
-194.89
-197.70
-205.60
-222.62
-247.37
-274.14
-297.06
-312.67
-319.64
-318.10
-308.77
-300.18
-298.91
-305.83
-316.80
-327.46
-336.11
-343.18
-350.03
-312.96
-212.07
-62.35
96.81
232.95
334.23
402.74
445.80
471.14
486.49
491.05
484.09
468.11
448.00
427.51
407.63
389.81
371.90
352.45
325.15
286.14
237.18
184.48
135.11
94.27
67.75
56.38
57.65
62.96
64.02
56.84
42.09
23.30
5.03
-8.60
-15.84
-16.53
-13.83
-12.88
-13.72
-14.93
-15.07
-13.07
-8.66
-2.97
2.60
5.90
4.85
-1.42
-12.94
-29.46
-49.53
-71.08
-92.39
-112.05
-129.25
-143.69
-155.33
-159.07
-153.04
-137.08
-112.83
-83.26
-51.24
-18.54
14.42
47.97
81.69
112.85
137.92
153.78
159.06
154.92
144.49
131.43
118.57
107.20
96.69
86.26
75.53
64.68
54.07
43.92
34.14
24.65
15.69
7.46
0.66
-4.01
-6.16
-5.93
-3.96
-1.24
1.12
2.22
1.26
-1.82
-6.50
-11.80
-16.64
-20.24
-22.35
-23.30
-23.74
-24.48
-26.05
-28.57
-31.74
-35.03
-37.84
-39.82
-41.01
-41.80
-42.92
-45.09
-48.83
-54.11
-60.21
-65.83
-69.26
-69.07
-64.43
-55.48
-43.28
-29.43
-15.57
-2.97
7.61
15.90
21.93
25.73
27.36
26.88
24.52
20.71
16.12
11.49
7.52
4.67
2.98
2.13
1.60
0.90
-0.19
-1.57
-2.92
-4.06
-5.13
-6.65
-9.29
-13.53
-19.24
-25.75
-31.91
-36.64
-39.26
-39.70
-38.48
-36.47
-34.67
-33.96
-35.02
-38.19
-43.28
-49.50
-55.37
-58.95
-58.29
-52.12
-40.31
-23.99
-5.04
14.63
33.78
52.08
69.68
86.62
102.25
115.25
124.07
127.65
125.87
119.51
109.82
98.03
85.10
71.77
58.74
46.89
37.06
29.82
25.12
22.33
20.39
18.15
14.84
10.24
4.73
-0.90
-5.82
-9.52
-11.93
-13.52
-14.99
-16.97
-19.75
-23.16
-26.70
-29.80
-32.19
-33.99
-35.70
-38.04
-41.50
-46.26
-52.02
-57.93
-62.80
-65.29
-64.29
-59.19
-50.21
-38.29
-24.82
-11.26
1.23
12.02
20.92
27.96
33.20
36.61
38.18
38.01
36.48
34.18
31.74
29.69
28.27
27.50
27.21
27.18
27.20
27.09
26.68
25.79
24.33
22.34
20.02
17.57
15.18
12.75
10.02
6.67
2.60
-1.97
-6.60
-10.79
-14.29
-17.24
-20.04
-23.24
-27.28
-32.43
-38.53
-45.07
-51.09
-55.37
-56.66
-54.07
-47.39
-37.21
-24.77
-11.60
0.87
11.68
20.34
26.75
31.02
33.35
34.02
33.34
31.75
29.74
27.72
25.96
24.54
23.42
22.50
21.73
21.15
20.86
20.90
21.18
21.49
21.52
20.93
19.43
16.88
13.36
9.14
4.65
0.32
-3.49
-6.69
-9.39
-11.99
-14.89
-18.48
-22.99
-28.35
-34.22
-39.91
-44.51
-47.00
-46.52
-42.59
-35.26
-25.14
-13.24
-0.75
11.20
21.71
30.19
36.41
40.36
42.26
42.35
40.99
38.62
35.75
32.84
30.30
28.28
26.77
25.62
24.66
23.76
22.83
21.74
20.33
18.43
15.93
12.85
9.36
5.73
2.32
-0.64
-3.02
-4.85
-6.36
-7.90
-9.90
-12.71
-16.51
-21.22
-26.41
-31.43
-35.51
-37.87
-37.84
-34.93
-28.95
-20.21
-9.41
2.32
13.71
23.65
31.42
36.75
39.76
40.77
40.17
38.33
35.66
32.65
29.86
27.69
26.31
25.57
25.08
24.52
23.70
22.70
21.67
20.76
19.88
18.88
17.57
15.86
13.77
11.38
8.72
5.81
2.73
-0.46
-3.62
-6.70
-9.89
-13.42
-17.52
-22.14
-26.85
-30.90
-33.43
-33.67
-31.20
-26.04
-18.54
-9.40
0.49
10.18
18.85
25.93
31.16
34.52
36.15
36.23
34.90
32.39
29.11
25.60
22.49
20.25
19.04
18.67
18.70
18.64
18.14
17.14
15.82
14.49
13.36
12.43
11.45
10.07
7.96
5.08
1.63
-2.02
-5.44
-8.37
-10.80
-12.95
-15.09
-17.59
-20.65
-24.27
-28.24
-31.99
-34.77
-35.71
-34.17
-29.92
-23.26
-14.90
-5.77
3.20
11.26
17.86
22.65
25.48
26.43
25.84
24.20
22.13
20.12
18.47
17.23
16.26
15.35
14.35
13.25
12.17
11.31
10.73
10.40
10.00
9.15
7.52
5.02
1.87
-1.44
-4.32
-6.37
-7.46
-7.86
-8.09
-8.68
-10.05
-12.39
-15.72
-19.77
-24.05
-27.75
-29.90
-29.61
-26.38
-20.36
-12.28
-3.33
5.28
12.65
18.30
22.19
24.45
25.27
24.81
23.28
20.99
18.32
15.69
13.41
11.65
10.43
9.66
9.18
8.83
8.51
8.18
7.86
7.56
7.17
6.48
5.28
3.45
1.12
-1.39
-3.70
-5.56
-7.06
-8.51
-10.33
-12.81
-15.98
-19.68
-23.59
-27.31
-30.32
-32.03
-31.81
-29.21
-24.22
-17.32
-9.40
-1.43
5.80
11.90
16.76
20.33
22.55
23.28
22.44
20.08
16.47
12.04
7.39
3.16
-0.06
-1.82
-1.92
-0.49
2.01
4.92
7.49
9.13
9.52
8.60
6.60
3.89
0.86
-2.13
-4.89
-7.37
-9.70
-12.00
-14.41
-16.96
-19.69
-22.50
-25.22
-27.48
-28.77
-28.53
-26.36
-22.26
-16.58
-9.97
-3.13
3.39
9.31
14.51
18.96
22.55
25.10
26.40
26.39
25.18
23.05
20.36
17.43
14.50
11.74
9.24
7.11
5.43
4.21
3.42
2.99
2.85
2.91
3.06
3.07
2.66
1.55
-0.35
-2.91
-5.85
-8.82
-11.63
-14.20
-16.55
-18.72
-20.75
-22.76
-24.92
-27.41
-30.12
-32.63
-34.15
-33.84
-31.17
-26.17
-19.46
-11.92
-4.44
2.40
8.28
13.04
16.59
18.80
19.62
19.10
17.54
15.33
12.97
10.87
9.30
8.38
7.96
7.85
7.74
7.48
7.07
6.65
6.39
6.27
6.07
5.41
3.98
1.68
-1.25
-4.29
-6.97
-9.07
-10.76
-12.42
-14.45
-16.97
-19.84
-22.75
-25.48
-27.92
-29.94
-31.25
-31.25
-29.23
-24.76
-17.96
-9.62
-0.94
6.89
13.11
17.51
20.37
22.01
22.71
22.55
21.51
19.69
17.26
14.58
11.96
9.66
7.84
6.51
5.54
4.77
3.99
3.07
1.91
0.52
-1.10
-2.94
-5.02
-7.32
-9.73
-12.08
-14.10
-15.59
-16.52
-17.10
-17.66
-18.62
-20.31
-22.76
-25.67
-28.44
-30.20
-30.15
-27.73
-22.90
-16.20
-8.48
-0.70
6.31
12.12
16.56
19.63
21.38
21.86
21.18
19.55
17.36
15.05
13.04
11.55
10.56
9.86
9.23
8.52
7.80
7.24
6.96
6.95
6.96
6.56
5.43
3.51
1.07
-1.42
-3.55
-5.17
-6.44
-7.69
-9.20
-11.09
-13.33
-15.81
-18.48
-21.36
-24.33
-26.98
-28.64
-28.45
-25.81
-20.69
-13.69
-5.82
1.83
8.47
13.73
17.58
20.10
21.37
21.38
20.24
18.17
15.62
13.08
10.98
9.50
8.64
8.25
8.11
8.03
7.85
7.51
6.97
6.35
5.72
5.13
4.52
3.70
2.39
0.39
-2.29
-5.42
-8.55
-11.27
-13.34
-14.84
-16.07
-17.43
-19.23
-21.53
-24.17
-26.78
-28.91
-30.10
-29.97
-28.31
-25.02
-20.15
-13.97
-6.96
0.16
6.54
11.37
14.17
14.90
14.00
12.23
10.31
8.74
7.64
6.88
6.27
5.74
5.36
5.27
5.59
6.27
7.24
8.31
9.36
10.24
10.85
10.97
10.44
9.12
6.96
4.16
1.08
-1.84
-4.30
-6.23
-7.89
-9.71
-12.03
-14.94
-18.12
-20.98
-22.83
-23.09
-21.55
-18.25
-13.60
-8.10
-2.31
3.30
8.41
12.81
16.35
18.87
20.25
20.37
19.29
17.27
14.82
12.53
10.90
10.12
10.06
10.37
10.58
10.40
9.71
8.58
7.15
5.56
3.91
2.26
0.66
-0.83
-2.20
-3.45
-4.64
-5.85
-7.14
-8.58
-10.23
-12.13
-14.35
-16.81
-19.38
-21.79
-23.77
-25.05
-25.40
-24.64
-22.59
-19.19
-14.48
-8.78
-2.58
3.47
8.76
12.87
15.63
17.07
17.37
16.74
15.40
13.60
11.62
9.80
8.42
7.68
7.54
7.82
8.27
8.65
8.85
8.84
8.63
8.23
7.53
6.44
4.86
2.87
0.59
-1.79
-4.07
-6.14
-7.90
-9.36
-10.55
-11.60
-12.71
-14.15
-16.09
-18.50
-21.11
-23.37
-24.62
-24.31
-22.19
-18.46
-13.63
-8.35
-3.20
1.49
5.59
9.14
12.11
14.40
15.78
16.09
15.29
13.55
11.21
8.73
6.59
5.24
5.04
6.12
8.34
11.24
14.14
16.42
17.60
17.56
16.43
14.52
12.06
9.22
6.10
2.79
-0.49
-3.53
-6.17
-8.38
-10.24
-11.83
-13.18
-14.26
-15.08
-15.77
-16.54
-17.55
-18.74
-19.78
-20.13
-19.31
-17.06
-13.54
-9.16
-4.52
-0.06
3.92
7.26
9.97
12.01
13.28
13.63
12.95
11.24
8.77
6.01
3.49
1.65
0.69
0.51
0.81
1.27
1.69
2.01
2.28
2.49
2.58
2.43
2.02
1.32
0.33
-0.98
-2.65
-4.64
-6.78
-8.70
-10.05
-10.66
-10.74
-10.76
-11.31
-12.76
-15.03
-17.62
-19.73
-20.62
-19.78
-17.17
-13.13
-8.22
-3.02
1.94
6.35
9.95
12.56
14.00
14.19
13.28
11.67
9.94
8.66
8.12
8.20
8.47
8.41
7.73
6.50
5.08
3.93
3.33
3.31
3.59
3.81
3.62
2.90
1.64
-0.06
-2.11
-4.40
-6.80
-9.12
-11.09
-12.57
-13.54
-14.20
-14.89
-15.89
-17.27
-18.78
-19.94
-20.20
-19.20
-16.80
-13.18
-8.65
-3.64
1.41
6.05
9.91
12.71
14.36
14.93
14.63
13.70
12.33
10.67
8.92
7.29
6.07
5.39
5.22
5.35
5.52
5.59
5.55
5.56
5.69
5.89
5.89
5.35
4.01
1.78
-1.11
-4.25
-7.10
-9.19
-10.31
-10.62
-10.63
-10.95
-12.09
-14.11
-16.63
-18.98
-20.49
-20.70
-19.48
-16.96
-13.31
-8.82
-3.76
1.43
6.27
10.26
13.08
14.69
15.30
15.27
14.89
14.33
13.58
12.63
11.51
10.34
9.25
8.28
7.41
6.54
5.63
4.73
3.97
3.48
3.22
3.06
2.75
2.07
0.89
-0.74
-2.74
-5.02
-7.48
-9.98
-12.30
-14.22
-15.57
-16.44
-17.09
-17.84
-18.82
-19.83
-20.41
-19.98
-18.22
-15.11
-11.00
-6.33
-1.50
3.17
7.44
11.04
13.72
15.27
15.63
14.97
13.56
11.77
9.91
8.24
6.93
6.08
5.64
5.46
5.37
5.20
4.98
4.75
4.57
4.38
3.98
3.13
1.73
-0.13
-2.17
-4.00
-5.34
-6.09
-6.41
-6.66
-7.22
-8.38
-10.23
-12.63
-15.26
-17.62
-19.17
-19.39
-18.00
-14.97
-10.62
-5.49
-0.27
4.47
8.28
10.95
12.51
13.09
12.92
12.18
11.08
9.77
8.47
7.41
6.80
6.75
7.23
7.99
8.73
9.15
9.10
8.64
7.91
7.03
6.03
4.87
3.56
2.18
0.92
-0.13
-1.01
-1.91
-3.12
-4.77
-6.82
-9.00
-11.11
-13.05
-14.89
-16.66
-18.19
-19.02
-18.59
-16.55
-13.01
-8.52
-3.87
0.35
3.88
6.83
9.36
11.52
13.06
13.62
13.01
11.36
9.17
7.05
5.51
4.73
4.62
4.89
5.26
5.55
5.73
5.88
5.99
6.09
6.07
5.82
5.27
4.40
3.27
1.90
0.31
-1.47
-3.37
-5.26
-6.93
-8.24
-9.20
-10.01
-10.99
-12.38
-14.25
-16.29
-17.92
-18.52
-17.61
-15.04
-11.04
-6.14
-0.97
3.87
7.90
10.87
12.72
13.56
13.59
13.02
12.05
10.86
9.64
8.60
7.93
7.74
7.97
8.43
8.85
9.10
9.21
9.29
9.46
9.69
9.70
9.22
8.07
6.33
4.32
2.38
0.75
-0.64
-1.96
-3.44
-5.09
-6.75
-8.15
-9.13
-9.75
-10.24
-10.91
-11.93
-13.23
-14.53
-15.43
-15.60
-14.83
-13.09
-10.45
-7.06
-3.13
1.06
5.23
9.05
12.22
14.57
15.98
16.52
16.28
15.48
14.28
12.88
11.43
10.11
9.14
8.66
8.70
9.04
9.29
9.06
8.15
6.71
5.08
3.71
2.88
2.57
2.52
2.37
1.89
1.04
-0.03
-1.12
-2.07
-2.88
-3.66
-4.61
-5.92
-7.68
-9.85
-12.25
-14.52
-16.24
-16.95
-16.26
-14.03
-10.45
-6.01
-1.43
2.71
6.00
8.41
10.07
11.17
11.80
11.89
11.39
10.36
9.03
7.75
6.90
6.69
7.08
7.82
8.55
8.92
8.74
8.06
7.07
6.05
5.17
4.44
3.74
2.96
2.02
1.00
0.03
-0.82
-1.59
-2.47
-3.70
-5.41
-7.50
-9.64
-11.39
-12.45
-12.77
-12.57
-12.08
-11.46
-10.54
-9.02
-6.65
-3.43
0.34
4.14
7.47
9.97
11.48
12.05
11.79
10.91
9.64
8.30
7.14
6.32
5.81
5.42
4.94
4.22
3.25
2.16
1.10
0.16
-0.59
-1.17
-1.65
-2.09
-2.60
-3.31
-4.26
-5.42
-6.62
-7.70
-8.56
-9.27
-10.00
-10.87
-11.94
-13.07
-14.09
-14.85
-15.22
-15.09
-14.27
-12.51
-9.68
-5.87
-1.50
2.81
6.53
9.37
11.29
12.42
12.84
12.50
11.37
9.53
7.35
5.30
3.86
3.21
3.19
3.41
3.45
3.09
2.40
1.64
1.09
0.89
0.93
0.93
0.64
-0.11
-1.30
-2.71
-4.07
-5.18
-5.96
-6.54
-7.17
-8.16
-9.68
-11.75
-14.05
-16.11
-17.35
-17.35
-16.00
-13.54
-10.39
-6.94
-3.40
0.28
4.17
8.17
11.87
14.62
15.83
15.22
13.11
10.33
7.93
6.75
7.07
8.47
9.99
10.63
9.76
7.52
4.72
2.52
1.92
3.18
5.71
8.19
9.17
7.76
4.17
-0.31
-3.72
-4.47
-2.12
2.33
6.76
8.98
7.71
3.10
-3.46
-9.87
-13.72
-12.62
-4.70
10.53
31.11
52.27
67.37
70.29
58.01
31.98
-2.61
-38.90
-71.04
-95.73
-112.03
-120.06
-119.98
-111.76
-95.71
-73.08
-46.42
-19.52
2.93
15.95
15.74
1.84
-21.25
-44.27
-56.07
-48.40
-19.92
22.35
65.62
97.10
109.66
104.21
87.84
69.11
53.60
42.49
33.47
23.37
11.15
-1.04
-9.19
-10.07
-3.28
8.70
23.00
37.36
50.29
61.02
68.63
71.42
67.23
54.96
36.35
17.47
5.94
7.02
21.82
46.99
76.31
103.05
122.22
125.98
112.14
86.39
58.49
36.27
22.15
14.74
11.56
10.35
9.74
9.36
8.16
3.04
-8.62
-27.07
-49.06
-68.58
-79.24
-76.26
-58.07
-24.15
14.66
45.20
58.55
53.45
34.53
9.27
-15.02
-32.88
-42.27
-44.95
-43.62
-41.24
-40.88
-40.96
-42.24
-45.82
-51.62
-57.51
-60.14
-55.11
-40.02
-17.34
5.04
15.67
5.47
-27.26
-74.77
-122.28
-152.90
-154.63
-125.55
-74.44
-17.65
28.52
53.84
56.91
43.49
22.60
1.75
-15.54
-29.32
-41.16
-51.14
-57.43
-57.64
-50.96
-39.27
-26.83
-18.25
-16.24
-20.47
-27.70
-33.62
-34.83
-30.24
-21.16
-10.53
-1.33
4.67
7.36
8.09
8.75
10.80
14.71
19.81
24.77
28.21
29.26
27.82
24.62
20.83
17.67
15.90
15.53
15.93
16.14
15.50
13.84
11.67
9.71
8.59
8.50
9.12
10.00
10.70
11.11
11.29
11.40
11.50
11.53
11.36
10.85
10.00
8.86
7.58
6.22
4.73
2.90
0.39
-2.98
-7.14
-11.61
-15.67
-18.63
-20.01
-19.68
-17.74
-14.53
-10.42
-6.00
-1.93
1.06
2.43
2.12
0.55
-1.44
-3.06
-3.79
-3.57
-2.60
-1.23
0.29
1.74
2.97
3.81
4.10
3.80
2.98
1.81
0.47
-1.01
-2.63
-4.55
-6.78
-9.21
-11.59
-13.68
-15.41
-16.88
-18.35
-19.97
-21.73
-23.44
-24.82
-25.78
-26.31
-26.48
-26.16
-25.02
-22.54
-18.35
-12.50
-5.51
1.81
8.61
14.36
18.88
22.25
24.70
26.44
27.69
28.73
29.84
31.22
32.79
34.19
34.82
34.23
32.38
29.70
26.99
24.94
23.88
23.56
23.26
22.15
19.56
15.20
9.21
2.19
-4.93
-10.92
-14.56
-14.93
-11.79
-5.80
1.70
8.98
14.60
17.68
18.02
15.85
11.51
5.25
-2.76
-12.14
-22.16
-31.70
-39.55
-44.83
-47.34
-47.63
-46.75
-45.88
-45.83
-47.01
-49.27
-52.24
-55.39
-58.14
-60.04
-60.66
-59.80
-57.40
-53.62
-48.66
-42.76
-36.12
-28.85
-21.18
-13.39
-5.92
0.70
5.94
9.48
11.27
11.65
11.36
11.35
12.46
15.12
19.10
23.48
26.88
28.04
26.18
21.44
14.85
8.06
2.77
0.25
0.91
4.28
9.37
15.01
20.21
24.28
26.77
27.42
26.17
23.32
19.50
15.61
12.43
10.44
9.53
9.28
9.27
9.41
10.00
11.57
14.53
18.99
24.84
31.94
40.34
50.08
60.89
71.83
81.18
86.79
86.56
79.26
64.93
44.96
21.83
-1.29
-21.21
-35.31
-42.01
-41.29
-34.68
-24.98
-15.54
-9.28
-7.98
-11.83
-19.61
-29.17
-38.25
-45.06
-48.75
-49.48
-48.11
-45.86
-43.94
-43.17
-43.80
-45.40
-46.99
-47.43
-45.92
-42.50
-38.09
-34.18
-31.89
-31.16
-30.37
-26.77
-17.68
-1.80
19.88
44.10
66.27
82.01
88.41
84.83
72.78
55.20
35.48
16.59
0.75
-10.79
-17.58
-19.94
-18.82
-15.66
-12.11
-9.56
-8.76
-9.68
-11.65
-13.72
-15.13
-15.51
-14.94
-13.75
-12.34
-11.13
-10.34
-9.87
-9.20
-7.39
-3.61
2.32
9.46
16.01
20.17
21.18
19.78
17.88
17.37
19.01
22.06
24.93
26.43
26.63
26.77
28.14
30.91
33.63
34.04
30.38
22.54
12.07
1.14
-8.78
-17.73
-27.00
-37.87
-50.56
-63.74
-75.01
-82.07
-83.81
-80.74
-74.66
-67.77
-61.73
-57.10
-53.20
-48.65
-42.02
-32.61
-20.81
-8.12
3.45
12.10
16.89
18.06
16.83
14.93
14.01
15.24
18.97
24.70
31.15
36.58
39.34
38.52
34.40
28.36
22.36
18.02
15.97
15.73
16.11
15.87
14.22
10.93
6.08
-0.22
-7.94
-16.94
-26.69
-36.16
-43.87
-48.28
-48.17
-42.85
-32.20
-16.58
3.32
26.49
51.40
76.03
97.93
114.67
124.41
126.27
120.49
108.22
91.16
71.18
50.21
30.10
12.50
-1.26
-10.46
-15.17
-16.23
-14.97
-12.86
-11.17
-10.75
-12.02
-15.00
-19.50
-25.12
-31.37
-37.65
-43.31
-47.74
-50.47
-51.30
-50.40
-48.27
-45.76
-43.88
-43.67
-45.93
-51.06
-58.72
-67.72
-75.97
-80.73
-79.24
-69.41
-50.55
-23.69
8.39
41.86
72.68
97.66
115.23
125.42
129.49
128.94
124.97
118.09
108.44
96.25
82.21
67.40
53.03
40.05
28.85
19.47
11.73
5.51
0.71
-2.79
-5.36
-7.67
-10.42
-14.16
-18.73
-23.24
-26.22
-26.27
-22.90
-16.93
-10.40
-5.70
-4.52
-7.10
-12.15
-17.60
-21.50
-22.80
-21.46
-18.16
-13.76
-9.02
-4.54
-0.82
1.84
3.37
4.03
4.32
4.69
5.30
5.94
6.19
5.73
4.44
2.43
-0.17
-3.30
-6.99
-11.18
-15.46
-19.16
-21.41
-21.52
-19.25
-14.96
-9.50
-4.03
0.33
2.72
2.65
0.15
-4.24
-9.42
-13.90
-16.10
-14.75
-9.37
-0.52
10.26
20.75
28.80
32.84
32.37
27.91
20.76
12.54
4.73
-1.53
-5.46
-6.73
-5.41
-2.02
2.50
7.07
10.65
12.67
13.11
12.38
11.07
9.59
8.24
7.24
6.88
7.48
9.16
11.71
14.71
17.88
21.43
26.03
32.38
40.42
48.93
55.72
58.41
55.53
47.17
34.94
21.22
8.28
-2.50
-10.63
-16.39
-20.31
-23.01
-25.05
-27.04
-29.66
-33.55
-39.11
-46.28
-54.34
-62.04
-67.90
-70.74
-70.05
-66.00
-59.13
-50.02
-38.95
-26.17
-12.25
1.58
13.54
21.91
25.77
25.58
23.06
20.56
20.06
22.48
27.31
32.96
37.33
38.58
35.71
28.92
19.53
9.59
1.22
-4.05
-5.68
-4.09
-0.44
3.82
7.33
9.00
8.18
4.68
-1.11
-8.27
-15.49
-21.32
-24.46
-24.05
-19.91
-12.63
-3.57
5.54
13.06
17.99
20.30
20.89
21.04
21.89
23.82
26.46
28.90
30.30
30.23
28.81
26.52
23.84
21.06
18.20
15.18
11.99
8.79
5.95
3.74
2.19
0.85
-1.12
-4.72
-10.67
-19.01
-28.87
-38.57
-46.04
-49.50
-48.10
-42.41
-34.36
-26.59
-21.38
-19.69
-20.64
-21.92
-20.88
-15.73
-6.48
5.11
16.18
24.02
26.88
24.47
17.72
8.25
-2.14
-11.88
-19.59
-24.22
-25.04
-21.74
-14.67
-4.92
5.74
15.21
21.56
23.69
21.60
16.41
9.88
3.76
-0.70
-2.93
-2.85
-0.62
3.45
8.86
14.75
20.03
23.74
25.51
25.64
24.92
23.92
22.69
20.66
17.12
11.83
5.24
-1.69
-8.12
-13.77
-19.00
-24.42
-30.40
-36.74
-42.75
-47.59
-50.70
-51.94
-51.50
-49.88
-47.53
-44.81
-41.99
-39.21
-36.54
-33.95
-31.23
-28.01
-23.81
-18.23
-11.25
-3.29
4.78
11.94
17.41
20.97
23.03
24.50
26.33
29.16
33.07
37.61
41.87
44.92
45.97
44.60
40.85
35.11
28.01
20.16
12.15
4.39
-2.80
-9.13
-14.35
-18.31
-20.99
-22.59
-23.56
-24.54
-26.21
-28.96
-32.63
-36.50
-39.50
-40.56
-38.84
-33.91
-25.52
-13.62
1.55
19.14
37.49
54.33
67.46
75.50
78.38
77.23
73.58
68.69
63.07
56.64
49.21
40.83
31.93
23.06
14.67
6.93
-0.12
-6.41
-11.79
-16.04
-19.01
-20.78
-21.67
-22.34
-23.64
-26.38
-31.09
-37.73
-45.59
-53.54
-60.43
-65.55
-68.93
-71.17
-73.05
-74.91
-76.41
-76.52
-73.92
-67.51
-56.95
-42.81
-26.46
-9.74
5.60
18.36
28.20
35.73
42.21
49.15
57.61
67.79
78.77
88.80
95.78
97.97
94.42
85.17
71.14
53.80
34.85
16.00
-1.12
-15.05
-24.62
-29.12
-28.56
-23.75
-16.32
-8.38
-2.10
0.88
-0.11
-4.69
-11.62
-19.31
-26.39
-32.03
-36.01
-38.51
-39.88
-40.35
-40.06
-39.03
-37.28
-34.89
-32.03
-28.87
-25.47
-21.71
-17.28
-11.92
-5.72
0.68
6.18
9.60
10.30
8.61
5.80
3.54
3.06
4.60
7.32
9.79
10.80
9.90
7.57
4.91
3.10
2.94
4.69
8.07
12.52
17.43
22.21
26.41
29.53
31.16
30.83
28.24
23.40
16.78
9.30
2.06
-3.98
-8.43
-11.51
-13.97
-16.66
-20.10
-24.29
-28.62
-32.26
-34.43
-34.70
-33.11
-30.15
-26.45
-22.61
-19.05
-16.01
-13.52
-11.50
-9.81
-8.19
-6.31
-3.83
-0.44
3.86
8.84
13.94
18.50
21.90
23.75
23.98
22.84
20.75
18.17
15.50
12.98
10.75
8.85
7.26
5.95
4.85
3.81
2.61
1.09
-0.83
-3.12
-5.59
-8.03
-10.22
-11.87
-12.68
-12.33
-10.63
-7.60
-3.54
1.08
5.66
9.71
12.89
15.07
16.30
16.66
16.26
15.18
13.51
11.40
9.04
6.68
4.46
2.47
0.63
-1.17
-3.05
-4.90
-6.40
-7.21
-7.08
-6.08
-4.61
-3.24
-2.47
-2.57
-3.48
-4.93
-6.61
-8.23
-9.63
-10.70
-11.35
-11.55
-11.35
-10.97
-10.68
-10.75
-11.19
-11.73
-11.86
-11.01
-8.82
-5.27
-0.77
4.06
8.58
12.34
15.10
16.90
17.89
18.21
18.03
17.47
16.66
15.75
14.88
14.10
13.43
12.78
12.07
11.28
10.45
9.72
9.19
8.88
8.60
8.13
7.22
5.73
3.74
1.46
-0.82
-2.91
-4.71
-6.29
-7.80
-9.43
-11.34
-13.55
-15.94
-18.20
-19.90
-20.58
-19.93
-17.89
-14.67
-10.70
-6.55
-2.68
0.61
3.25
5.34
6.99
8.30
9.27
9.85
10.06
9.92
9.57
9.09
8.55
7.98
7.41
6.90
6.51
6.26
6.11
5.91
5.49
4.72
3.60
2.15
0.46
-1.47
-3.64
-5.99
-8.41
-10.66
-12.57
-14.09
-15.31
-16.47
-17.74
-19.15
-20.52
-21.51
-21.67
-20.64
-18.19
-14.31
-9.34
-3.86
1.30
5.33
7.80
8.80
8.98
9.25
10.33
12.45
15.22
17.94
19.92
20.86
20.85
20.18
19.10
17.64
15.73
13.36
10.74
8.22
6.12
4.54
3.30
2.06
0.57
-1.19
-3.01
-4.65
-5.98
-7.09
-8.20
-9.48
-11.00
-12.73
-14.60
-16.66
-18.97
-21.47
-23.94
-25.95
-26.98
-26.66
-24.86
-21.73
-17.56
-12.64
-7.21
-1.48
4.29
9.76
14.46
18.01
20.15
20.95
20.71
19.88
18.93
18.12
17.47
16.84
15.99
14.79
13.28
11.62
10.02
8.66
7.60
6.82
6.20
5.59
4.76
3.51
1.79
-0.26
-2.29
-3.97
-5.14
-5.98
-6.90
-8.30
-10.33
-12.73
-15.03
-16.72
-17.47
-17.23
-16.06
-14.12
-11.45
-8.10
-4.15
0.17
4.52
8.54
11.82
14.08
15.13
14.95
13.71
11.80
9.70
7.94
6.88
6.68
7.23
8.20
9.20
9.84
9.89
9.28
8.12
6.63
5.04
3.51
2.04
0.49
-1.35
-3.59
-6.17
-8.76
-10.91
-12.30
-12.84
-12.86
-12.94
-13.66
-15.37
-17.89
-20.72
-23.03
-24.09
-23.33
-20.59
-16.06
-10.20
-3.67
2.83
8.64
13.30
16.50
18.25
18.70
18.19
17.05
15.63
14.17
12.78
11.52
10.38
9.35
8.42
7.60
6.89
6.26
5.64
4.94
4.12
3.22
2.31
1.50
0.86
0.35
-0.17
-0.83
-1.72
-2.82
-4.05
-5.37
-6.87
-8.68
-10.86
-13.35
-15.87
-18.04
-19.44
-19.77
-18.88
-16.74
-13.47
-9.26
-4.40
0.69
5.51
9.59
12.60
14.42
15.20
15.23
14.83
14.20
13.46
12.61
11.68
10.77
9.97
9.40
9.00
8.68
8.25
7.64
6.91
6.18
5.65
5.37
5.29
5.18
4.81
3.99
2.65
0.88
-1.16
-3.27
-5.25
-7.05
-8.68
-10.32
-12.09
-14.08
-16.19
-18.16
-19.65
-20.32
-19.96
-18.53
-16.12
-12.86
-8.93
-4.51
0.14
4.66
8.63
11.68
13.60
14.32
14.01
12.86
11.14
9.16
7.27
5.82
5.04
4.92
5.25
5.66
5.81
5.55
4.92
4.06
3.11
2.12
1.11
0.05
-1.03
-2.05
-2.97
-3.79
-4.55
-5.31
-6.12
-6.98
-7.86
-8.72
-9.50
-10.22
-10.86
-11.43
-11.86
-11.97
-11.54
-10.34
-8.23
-5.28
-1.77
1.89
5.31
8.18
10.35
11.78
12.49
12.49
11.83
10.51
8.70
6.66
4.74
3.32
2.61
2.62
3.19
4.03
4.82
5.31
5.35
4.87
3.87
2.48
0.87
-0.74
-2.17
-3.30
-4.11
-4.72
-5.27
-5.86
-6.58
-7.50
-8.71
-10.18
-11.84
-13.44
-14.69
-15.27
-14.95
-13.60
-11.18
-7.76
-3.53
1.11
5.68
9.58
12.33
13.74
13.92
13.27
12.25
11.32
10.65
10.28
10.09
9.94
9.72
9.40
8.96
8.39
7.63
6.67
5.50
4.24
3.05
2.14
1.61
1.41
1.30
0.99
0.20
-1.13
-2.89
-4.80
-6.57
-8.00
-9.07
-9.81
-10.29
-10.49
-10.33
-9.71
-8.63
-7.24
-5.78
-4.44
-3.21
-1.92
-0.32
1.73
4.07
6.38
8.25
9.43
9.92
9.90
9.52
8.87
7.96
6.78
5.47
4.32
3.66
3.69
4.38
5.48
6.62
7.46
7.78
7.50
6.70
5.54
4.19
2.82
1.51
0.27
-0.97
-2.27
-3.62
-5.02
-6.40
-7.77
-9.19
-10.76
-12.56
-14.55
-16.56
-18.23
-19.19
-19.09
-17.78
-15.36
-12.16
-8.59
-4.98
-1.48
1.86
5.02
7.86
10.09
11.40
11.70
11.15
10.24
9.43
9.04
9.06
9.22
9.19
8.74
7.91
6.88
5.89
5.06
4.35
3.61
2.67
1.48
0.09
-1.33
-2.65
-3.78
-4.77
-5.63
-6.42
-7.19
-7.93
-8.70
-9.55
-10.53
-11.58
-12.57
-13.25
-13.32
-12.61
-11.01
-8.61
-5.59
-2.22
1.26
4.60
7.63
10.21
12.18
13.47
13.98
13.70
12.73
11.29
9.70
8.24
7.12
6.37
5.97
5.78
5.69
5.63
5.50
5.22
4.75
4.14
3.40
2.61
1.67
0.45
-1.19
-3.27
-5.60
-7.87
-9.72
-11.00
-11.76
-12.25
-12.74
-13.39
-14.15
-14.78
-15.08
-14.84
-13.97
-12.44
-10.23
-7.36
-3.95
-0.27
3.33
6.46
8.89
10.56
11.57
12.11
12.22
11.87
10.95
9.51
7.71
5.89
4.32
3.10
2.10
1.05
-0.13
-1.33
-2.17
-2.23
-1.31
0.51
2.82
5.09
6.91
8.09
8.62
8.56
7.96
6.77
5.02
2.85
0.49
-1.75
-3.73
-5.44
-7.01
-8.52
-9.90
-10.92
-11.29
-10.77
-9.36
-7.23
-4.67
-1.98
0.60
2.94
4.95
6.56
7.73
8.45
8.73
8.63
8.19
7.45
6.48
5.41
4.41
3.64
3.27
3.32
3.68
4.15
4.48
4.47
4.06
3.35
2.51
1.66
0.87
0.07
-0.85
-1.93
-3.08
-4.15
-4.96
-5.45
-5.74
-6.03
-6.57
-7.49
-8.87
-10.64
-12.70
-14.78
-16.48
-17.24
-16.55
-14.12
-10.17
-5.35
-0.51
3.53
6.37
8.03
8.87
9.31
9.60
9.79
9.70
9.12
7.87
5.91
3.25
0.02
-3.40
-6.40
-8.19
-8.07
-5.75
-1.68
3.03
6.91
8.73
8.04
5.23
1.39
-2.33
-5.16
-7.04
-8.36
-9.58
-10.88
-12.02
-12.59
-12.27
-11.20
-9.88
-9.01
-9.05
-10.02
-11.46
-12.52
-12.38
-10.49
-6.78
-1.69
3.97
9.28
13.48
16.27
17.84
18.69
19.35
20.06
20.63
20.67
19.83
18.16
16.11
14.43
13.75
14.38
16.22
18.95
22.25
25.85
29.48
32.70
34.90
35.44
33.94
30.61
26.10
21.41
17.37
14.37
12.26
10.64
9.16
7.82
6.94
6.91
7.90
9.66
11.65
13.20
13.84
13.39
11.97
9.93
7.60
5.35
3.36
1.79
0.69
0.12
0.02
0.29
0.71
0.94
0.67
-0.30
-1.93
-3.86
-5.58
-6.55
-6.45
-5.24
-3.19
-0.60
2.30
5.50
9.12
13.23
17.72
22.22
26.25
29.42
31.59
32.98
33.93
34.72
35.29
35.28
34.19
31.68
27.88
23.30
18.63
14.32
10.40
6.41
1.73
-4.17
-11.44
-19.79
-28.59
-37.13
-44.69
-50.71
-54.82
-56.92
-57.19
-56.10
-54.28
-52.33
-50.65
-49.47
-48.86
-48.90
-49.65
-51.07
-52.84
-54.46
-55.34
-55.11
-53.73
-51.51
-48.83
-45.98
-43.03
-39.93
-36.69
-33.41
-30.30
-27.55
-25.21
-23.27
-21.67
-20.40
-19.42
-18.61
-17.75
-16.60
-15.13
-13.51
-12.13
-11.34
-11.25
-11.72
-12.37
-12.86
-13.08
-13.16
-13.34
-13.80
-14.47
-15.07
-15.20
-14.52
-12.88
-10.36
-7.12
-3.46
0.39
4.21
7.78
10.94
13.53
15.41
16.43
16.47
15.52
13.77
11.62
9.61
8.20
7.62
7.78
8.32
8.90
9.30
9.47
9.47
9.38
9.13
8.58
7.65
6.34
4.90
3.58
2.61
2.04
1.70
1.33
0.70
-0.32
-1.65
-3.13
-4.58
-5.93
-7.21
-8.51
-9.91
-11.41
-12.80
-13.87
-14.32
-13.99
-12.79
-10.77
-8.05
-4.85
-1.37
2.20
5.67
8.85
11.52
13.46
14.52
14.69
14.15
13.23
12.27
11.50
11.01
10.73
10.57
10.49
10.53
10.75
11.18
11.66
11.96
11.79
10.97
9.50
7.63
5.71
4.07
2.89
2.07
1.38
0.52
-0.66
-2.08
-3.55
-4.80
-5.75
-6.49
-7.25
-8.32
-9.85
-11.77
-13.81
-15.52
-16.39
-16.05
-14.33
-11.30
-7.29
-2.75
1.86
6.18
9.89
12.85
14.98
16.24
16.65
16.37
15.61
14.66
13.76
13.02
12.42
11.87
11.29
10.71
10.21
9.90
9.79
9.79
9.68
9.24
8.32
6.98
5.43
3.96
2.83
2.06
1.46
0.71
-0.53
-2.35
-4.55
-6.68
-8.31
-9.22
-9.61
-9.91
-10.64
-12.02
-13.95
-15.98
-17.55
-18.26
-17.90
-16.48
-14.13
-10.99
-7.23
-3.02
1.36
5.58
9.27
12.17
14.09
14.99
14.98
14.24
12.99
11.46
9.81
8.17
6.66
5.41
4.56
4.20
4.26
4.55
4.73
4.58
4.03
3.27
2.62
2.33
2.44
2.72
2.86
2.57
1.80
0.68
-0.54
-1.64
-2.57
-3.42
-4.41
-5.70
-7.28
-8.96
-10.38
-11.19
-11.14
-10.22
-8.55
-6.32
-3.63
-0.55
2.89
6.55
10.14
13.28
15.55
16.74
16.85
16.11
14.88
13.49
12.17
10.96
9.75
8.36
6.65
4.58
2.29
0.06
-1.91
-3.43
-4.53
-5.32
-5.94
-6.52
-7.08
-7.59
-7.97
-8.17
-8.09
-7.74
-7.13
-6.38
-5.65
-5.13
-5.05
-5.51
-6.55
-8.10
-9.95
-11.82
-13.36
-14.22
-14.09
-12.85
-10.57
-7.49
-3.91
-0.12
3.69
7.45
11.13
14.68
17.96
20.77
22.90
24.16
24.52
24.08
23.08
21.83
20.58
19.40
18.15
16.57
14.52
12.12
9.77
8.03
7.24
7.38
7.92
8.12
7.34
5.38
2.57
-0.46
-3.08
-4.99
-6.23
-7.09
-7.80
-8.42
-8.84
-8.99
-9.00
-9.17
-9.90
-11.41
-13.57
-15.92
-17.77
-18.47
-17.60
-15.07
-11.16
-6.34
-1.20
3.75
8.09
11.59
14.15
15.79
16.59
16.68
16.19
15.33
14.35
13.46
12.89
12.74
12.94
13.34
13.63
13.53
12.87
11.68
10.15
8.57
7.18
6.12
5.35
4.74
4.11
3.28
2.14
0.66
-1.08
-2.92
-4.69
-6.24
-7.61
-8.93
-10.51
-12.57
-15.12
-17.86
-20.27
-21.83
-22.11
-20.97
-18.45
-14.82
-10.38
-5.52
-0.65
3.88
7.75
10.81
13.06
14.57
15.40
15.56
15.09
14.04
12.65
11.25
10.21
9.73
9.90
10.59
11.61
12.74
13.76
14.45
14.66
14.33
13.53
12.46
11.32
10.21
9.15
8.04
6.87
5.70
4.63
3.77
3.12
2.61
2.09
1.46
0.67
-0.20
-0.94
-1.23
-0.73
0.83
3.53
7.22
11.58
16.22
20.88
25.46
29.88
34.03
37.58
40.12
41.37
41.42
40.76
40.14
40.28
41.50
43.76
46.55
49.30
51.44
52.55
52.36
50.58
47.07
41.77
34.93
27.05
18.81
10.85
3.55
-2.96
-8.76
-13.97
-18.67
-22.86
-26.57
-29.94
-33.20
-36.65
-40.49
-44.84
-49.55
-54.25
-58.46
-61.64
-63.33
-63.27
-61.45
-58.14
-53.75
-48.76
-43.57
-38.48
-33.71
-29.42
-25.75
-22.81
-20.60
-18.97
-17.64
-16.30
-14.76
-12.95
-10.97
-9.02
-7.23
-5.65
-4.28
-3.11
-2.20
-1.65
-1.50
-1.75
-2.26
-2.82
-3.31
-3.66
-3.98
-4.46
-5.32
-6.69
-8.54
-10.71
-12.89
-14.83
-16.33
-17.45
-18.41
-19.56
-21.10
-22.99
-24.87
-26.18
-26.37
-25.10
-22.35
-18.35
-13.49
-8.15
-2.66
2.63
7.40
11.32
14.11
15.63
15.91
15.16
13.72
12.01
10.41
9.19
8.46
8.16
8.10
8.10
8.12
8.26
8.71
9.54
10.64
11.61
11.94
11.19
9.26
6.44
3.28
0.39
-1.81
-3.23
-4.14
-4.93
-5.99
-7.49
-9.42
-11.66
-14.06
-16.51
-18.89
-21.02
-22.59
-23.21
-22.55
-20.38
-16.68
-11.75
-6.11
-0.39
4.74
8.80
11.54
12.95
13.30
12.86
11.88
10.45
8.54
6.20
3.56
1.02
-0.97
-2.03
-2.11
-1.47
-0.59
0.03
0.12
-0.30
-1.00
-1.75
-2.42
-3.08
-3.84
-4.72
-5.67
-6.60
-7.45
-8.25
-9.09
-10.02
-11.04
-12.10
-13.15
-14.25
-15.47
-16.86
-18.30
-19.48
-19.93
-19.17
-16.93
-13.23
-8.42
-3.07
2.27
7.19
11.45
14.95
17.64
19.42
20.25
20.17
19.35
18.11
16.77
15.59
14.70
14.14
13.88
13.83
13.88
13.87
13.65
13.10
12.23
11.15
10.08
9.16
8.43
7.76
6.95
5.84
4.37
2.62
0.69
-1.27
-3.18
-4.99
-6.71
-8.39
-10.07
-11.82
-13.66
-15.54
-17.30
-18.64
-19.24
-18.77
-17.02
-13.93
-9.64
-4.44
1.17
6.61
11.35
15.00
17.48
18.96
19.68
19.86
19.65
19.07
18.16
17.04
15.84
14.68
13.60
12.58
11.60
10.71
10.02
9.65
9.53
9.48
9.21
8.48
7.28
5.75
4.10
2.56
1.24
0.06
-1.08
-2.31
-3.66
-5.14
-6.72
-8.38
-10.16
-12.03
-13.94
-15.81
-17.60
-19.33
-21.01
-22.60
-23.85
-24.29
-23.40
-20.78
-16.40
-10.67
-4.28
2.01
7.63
12.29
15.94
18.68
20.53
21.44
21.31
20.14
18.13
15.70
13.36
11.61
10.68
10.49
10.77
11.09
11.11
10.64
9.73
8.55
7.26
5.98
4.73
3.51
2.31
1.18
0.21
-0.57
-1.25
-2.08
-3.36
-5.27
-7.72
-10.32
-12.57
-14.07
-14.80
-15.09
-15.42
-16.11
-17.09
-17.90
-17.90
-16.60
-13.85
-9.91
-5.26
-0.40
4.31
8.67
12.57
15.87
18.45
20.16
20.92
20.75
19.80
18.32
16.62
15.01
13.79
13.03
12.70
12.48
12.04
11.12
9.68
7.94
6.22
4.87
4.03
3.70
3.66
3.65
3.35
2.52
1.01
-1.17
-3.84
-6.66
-9.21
-11.21
-12.59
-13.59
-14.57
-15.81
-17.41
-19.19
-20.89
-22.19
-22.90
-22.89
-22.05
-20.27
-17.43
-13.56
-8.86
-3.74
1.30
5.80
9.48
12.25
14.17
15.38
16.06
16.34
16.31
16.04
15.60
15.12
14.78
14.76
15.14
15.90
16.85
17.76
18.43
18.76
18.72
18.34
17.67
16.78
15.83
15.01
14.50
14.34
14.44
14.47
14.13
13.16
11.47
9.03
5.83
1.82
-3.06
-8.71
-14.88
-21.11
-26.91
-31.88
-35.75
-38.33
-39.44
-38.82
-36.19
-31.36
-24.46
-15.95
-6.76
1.99
9.26
14.29
16.88
17.39
16.60
15.36
14.29
13.63
13.22
12.75
11.92
10.59
8.69
6.18
3.09
-0.28
-3.27
-4.86
-3.96
0.02
6.90
15.57
24.41
31.72
36.33
37.71
35.98
31.70
25.67
18.79
12.04
6.46
2.87
1.78
3.08
6.09
9.82
13.30
16.01
18.02
19.84
22.08
25.05
28.56
31.92
34.20
34.56
32.53
28.03
21.40
13.19
4.02
-5.54
-15.04
-24.12
-32.56
-40.13
-46.72
-52.19
-56.42
-59.32
-60.76
-60.71
-59.18
-56.33
-52.40
-47.75
-42.68
-37.43
-32.11
-26.80
-21.71
-17.11
-13.40
-10.91
-9.75
-9.83
-10.81
-12.29
-13.87
-15.21
-15.97
-15.82
-14.46
-11.73
-7.79
-3.09
1.66
5.75
8.70
10.42
11.13
11.23
11.16
11.27
11.86
13.16
15.25
18.01
21.01
23.65
25.28
25.60
24.67
22.92
20.85
18.81
16.86
14.84
12.57
10.01
7.31
4.66
2.22
-0.02
-2.17
-4.36
-6.67
-9.03
-11.41
-13.79
-16.17
-18.48
-20.56
-22.06
-22.61
-22.01
-20.30
-17.78
-14.87
-12.04
-9.58
-7.60
-6.13
-5.08
-4.31
-3.64
-2.80
-1.57
0.17
2.33
4.62
6.56
7.69
7.66
6.34
3.89
0.59
-3.23
-7.29
-11.39
-15.37
-18.98
-21.86
-23.64
-24.09
-23.25
-21.40
-18.98
-16.28
-13.44
-10.39
-7.09
-3.69
-0.46
2.28
4.40
5.96
7.16
8.16
9.03
9.79
10.41
10.91
11.25
11.30
10.84
9.74
7.95
5.67
3.23
0.91
-1.15
-3.00
-4.78
-6.52
-8.04
-9.10
-9.42
-8.89
-7.62
-5.87
-3.97
-2.23
-0.86
-0.02
0.18
-0.35
-1.62
-3.48
-5.53
-7.21
-7.93
-7.31
-5.39
-2.52
0.65
3.51
5.63
6.82
7.18
6.89
6.14
5.14
4.02
2.93
2.00
1.40
1.23
1.54
2.22
3.02
3.56
3.42
2.33
0.27
-2.39
-5.03
-6.92
-7.52
-6.66
-4.56
-1.73
1.29
4.15
6.79
9.32
11.89
14.47
16.76
18.32
18.68
17.63
15.29
12.14
8.81
5.89
3.76
2.43
1.70
1.30
1.10
1.15
1.65
2.74
4.36
6.22
7.85
8.92
9.29
9.10
8.58
7.87
6.90
5.45
3.34
0.55
-2.69
-6.11
-9.57
-13.14
-17.03
-21.30
-25.65
-29.35
-31.46
-31.23
-28.43
-23.49
-17.28
-10.81
-4.82
0.36
4.77
8.54
11.68
14.05
15.37
15.47
14.45
12.69
10.68
8.88
7.46
6.32
5.15
3.70
1.91
0.00
-1.63
-2.65
-2.91
-2.60
-2.03
-1.58
-1.45
-1.63
-1.99
-2.32
-2.58
-2.83
-3.21
-3.83
-4.75
-5.95
-7.37
-8.95
-10.57
-12.06
-13.16
-13.57
-13.03
-11.43
-8.84
-5.49
-1.65
2.37
6.32
9.97
13.19
15.85
17.85
19.15
19.74
19.62
18.82
17.39
15.38
12.88
10.01
6.98
4.02
1.44
-0.55
-1.80
-2.32
-2.25
-1.81
-1.26
-0.76
-0.39
-0.20
-0.21
-0.49
-1.12
-2.16
-3.58
-5.26
-7.08
-8.94
-10.87
-12.90
-15.02
-17.08
-18.78
-19.79
-19.78
-18.55
-16.07
-12.45
-7.89
-2.71
2.66
7.77
12.16
15.51
17.72
18.90
19.32
19.31
19.10
18.80
18.42
17.88
17.17
16.30
15.38
14.50
13.75
13.14
12.64
12.14
11.49
10.53
9.16
7.36
5.25
3.03
0.94
-0.85
-2.24
-3.30
-4.18
-5.10
-6.25
-7.78
-9.75
-12.11
-14.74
-17.40
-19.72
-21.32
-21.82
-21.00
-18.81
-15.47
-11.37
-7.01
-2.81
0.99
4.34
7.37
10.23
12.98
15.42
17.22
17.98
17.54
16.07
14.03
12.01
10.47
9.54
9.05
8.69
8.20
7.50
6.64
5.74
4.82
3.79
2.57
1.12
-0.47
-2.05
-3.47
-4.69
-5.78
-6.86
-8.05
-9.36
-10.75
-12.11
-13.43
-14.79
-16.27
-17.93
-19.60
-20.89
-21.27
-20.29
-17.79
-13.99
-9.45
-4.78
-0.45
3.37
6.76
9.88
12.71
15.03
16.52
16.91
16.28
14.93
13.32
11.88
10.84
10.25
10.05
10.15
10.44
10.86
11.23
11.41
11.23
10.56
9.35
7.58
5.30
2.64
-0.17
-2.81
-4.92
-6.30
-6.99
-7.25
-7.52
-8.20
-9.56
-11.66
-14.36
-17.37
-20.27
-22.61
-23.92
-23.79
-22.04
-18.76
-14.29
-9.18
-3.93
1.10
5.75
9.99
13.74
16.83
18.97
19.92
19.60
18.22
16.23
14.17
12.47
11.34
10.77
10.57
10.49
10.32
9.95
9.36
8.55
7.55
6.39
5.07
3.55
1.86
0.05
-1.75
-3.39
-4.72
-5.71
-6.45
-7.15
-7.99
-9.07
-10.38
-11.78
-13.17
-14.48
-15.72
-16.91
-17.95
-18.64
-18.68
-17.74
-15.70
-12.57
-8.61
-4.15
0.41
4.74
8.56
11.64
13.84
15.15
15.63
15.48
14.94
14.22
13.50
12.83
12.22
11.64
11.08
10.54
10.00
9.47
8.90
8.29
7.66
7.03
6.44
5.87
5.21
4.32
3.13
1.64
-0.03
-1.74
-3.40
-5.06
-6.85
-8.84
-10.97
-12.97
-14.56
-15.55
-16.10
-16.59
-17.46
-18.95
-20.87
-22.66
-23.57
-23.00
-20.69
-16.76
-11.65
-5.95
-0.24
5.03
9.50
12.95
15.23
16.31
16.31
15.51
14.32
13.13
12.23
11.69
11.37
11.07
10.64
10.09
9.50
8.97
8.49
7.89
7.00
5.75
4.24
2.67
1.29
0.17
-0.71
-1.51
-2.36
-3.36
-4.49
-5.69
-6.89
-8.02
-9.09
-10.12
-11.16
-12.30
-13.66
-15.28
-17.10
-18.93
-20.43
-21.19
-20.87
-19.31
-16.56
-12.81
-8.42
-3.70
0.98
5.30
8.96
11.70
13.37
14.00
13.80
13.08
12.18
11.34
10.65
10.11
9.67
9.27
8.93
8.69
8.58
8.54
8.44
8.10
7.43
6.44
5.26
4.10
3.09
2.28
1.61
0.92
0.08
-0.96
-2.21
-3.58
-5.03
-6.52
-8.12
-9.92
-12.01
-14.40
-16.94
-19.41
-21.48
-22.87
-23.40
-22.96
-21.53
-19.10
-15.71
-11.53
-6.90
-2.31
1.75
5.02
7.53
9.54
11.33
13.02
14.45
15.32
15.41
14.72
13.51
12.21
11.11
10.31
9.73
9.16
8.47
7.60
6.62
5.65
4.84
4.26
3.91
3.70
3.48
3.09
2.40
1.39
0.10
-1.34
-2.91
-4.57
-6.35
-8.22
-10.06
-11.73
-13.12
-14.26
-15.31
-16.48
-17.88
-19.40
-20.75
-21.53
-21.44
-20.36
-18.35
-15.59
-12.26
-8.52
-4.51
-0.41
3.57
7.14
10.04
12.07
13.16
13.36
12.82
11.74
10.37
8.95
7.71
6.82
6.37
6.37
6.71
7.25
7.83
8.33
8.68
8.87
8.88
8.65
8.07
7.04
5.60
3.89
2.18
0.74
-0.33
-1.11
-1.82
-2.73
-3.99
-5.59
-7.42
-9.36
-11.32
-13.31
-15.31
-17.22
-18.77
-19.63
-19.46
-18.11
-15.60
-12.19
-8.22
-4.03
0.15
4.14
7.79
10.92
13.27
14.66
15.03
14.59
13.72
12.80
12.14
11.80
11.65
11.52
11.28
10.91
10.54
10.26
10.11
10.00
9.77
9.29
8.43
7.24
5.79
4.19
2.53
0.83
-0.92
-2.75
-4.65
-6.53
-8.27
-9.75
-10.92
-11.80
-12.52
-13.23
-14.11
-15.29
-16.78
-18.50
-20.22
-21.55
-22.04
-21.23
-18.80
-14.79
-9.58
-3.82
1.79
6.67
10.56
13.51
15.68
17.28
18.39
18.99
19.00
18.38
17.26
15.85
14.43
13.21
12.32
11.76
11.41
11.12
10.74
10.20
9.49
8.60
7.52
6.21
4.65
2.87
0.92
-1.08
-3.09
-5.04
-6.94
-8.69
-10.22
-11.42
-12.27
-12.91
-13.52
-14.31
-15.37
-16.67
-18.06
-19.40
-20.56
-21.49
-22.16
-22.42
-22.06
-20.73
-18.13
-14.09
-8.74
-2.52
3.91
9.84
14.75
18.37
20.74
22.06
22.56
22.38
21.58
20.27
18.64
16.97
15.57
14.64
14.21
14.11
14.11
13.98
13.59
12.87
11.79
10.30
8.39
6.15
3.80
1.60
-0.23
-1.61
-2.70
-3.69
-4.81
-6.11
-7.51
-8.87
-10.06
-11.11
-12.12
-13.19
-14.35
-15.51
-16.61
-17.58
-18.46
-19.24
-19.81
-19.88
-19.08
-17.07
-13.73
-9.25
-4.08
1.28
6.36
10.88
14.69
17.70
19.85
21.08
21.40
20.93
19.93
18.68
17.44
16.39
15.53
14.81
14.13
13.42
12.67
11.93
11.29
10.77
10.38
9.98
9.43
8.57
7.29
5.56
3.46
1.10
-1.33
-3.68
-5.81
-7.65
-9.21
-10.59
-11.86
-13.08
-14.29
-15.47
-16.68
-18.00
-19.51
-21.26
-23.11
-24.75
-25.75
-25.67
-24.23
-21.37
-17.26
-12.22
-6.63
-0.89
4.62
9.57
13.70
16.87
19.08
20.41
21.02
21.02
20.49
19.53
18.22
16.74
15.31
14.11
13.22
12.63
12.14
11.66
11.12
10.54
9.97
9.40
8.68
7.69
6.28
4.44
2.26
-0.05
-2.28
-4.30
-6.12
-7.81
-9.44
-10.98
-12.36
-13.42
-14.08
-14.37
-14.47
-14.68
-15.24
-16.30
-17.79
-19.50
-21.11
-22.30
-22.78
-22.29
-20.69
-17.91
-14.10
-9.49
-4.46
0.64
5.47
9.76
13.32
15.98
17.65
18.35
18.19
17.45
16.41
15.33
14.32
13.41
12.56
11.75
11.06
10.57
10.37
10.43
10.63
10.82
10.81
10.45
9.66
8.38
6.64
4.55
2.33
0.24
-1.47
-2.70
-3.52
-4.18
-4.94
-5.99
-7.33
-8.81
-10.18
-11.33
-12.28
-13.19
-14.27
-15.61
-17.15
-18.61
-19.66
-19.96
-19.31
-17.64
-15.05
-11.68
-7.70
-3.32
1.24
5.72
9.80
13.17
15.53
16.73
16.85
16.12
14.95
13.74
12.79
12.20
11.88
11.66
11.38
10.98
10.53
10.14
9.88
9.76
9.70
9.51
9.02
8.10
6.72
5.00
3.16
1.48
0.17
-0.73
-1.36
-2.00
-2.94
-4.34
-6.15
-8.13
-9.99
-11.52
-12.69
-13.56
-14.31
-15.06
-15.91
-16.91
-18.06
-19.31
-20.52
-21.48
-21.87
-21.36
-19.76
-16.96
-13.08
-8.36
-3.17
2.12
7.08
11.32
14.51
16.43
17.10
16.80
15.98
15.13
14.55
14.29
14.11
13.74
13.03
12.05
11.05
10.27
9.75
9.34
8.83
8.06
7.09
6.08
5.18
4.43
3.72
2.94
2.03
1.07
0.17
-0.58
-1.25
-1.96
-2.93
-4.29
-6.09
-8.22
-10.48
-12.63
-14.48
-15.91
-16.91
-17.55
-17.95
-18.24
-18.55
-19.01
-19.67
-20.47
-21.14
-21.25
-20.31
-17.97
-14.22
-9.40
-4.13
0.93
5.29
8.75
11.38
13.32
14.66
15.43
15.55
15.05
14.06
12.82
11.61
10.65
10.07
9.91
10.17
10.79
11.70
12.70
13.48
13.76
13.35
12.25
10.70
9.03
7.56
6.50
5.85
5.43
5.00
4.26
3.06
1.38
-0.63
-2.70
-4.55
-5.98
-7.00
-7.80
-8.68
-9.86
-11.46
-13.38
-15.42
-17.33
-18.89
-19.94
-20.31
-19.85
-18.41
-15.98
-12.72
-8.90
-4.94
-1.19
2.09
4.75
6.76
8.14
8.96
9.29
9.21
8.81
8.23
7.59
7.00
6.54
6.21
6.00
5.89
5.87
5.96
6.16
6.42
6.62
6.61
6.24
5.47
4.35
3.04
1.72
0.49
-0.60
-1.62
-2.64
-3.75
-4.97
-6.28
-7.64
-8.95
-10.18
-11.28
-12.29
-13.29
-14.38
-15.60
-16.95
-18.30
-19.44
-20.16
-20.27
-19.65
-18.19
-15.83
-12.53
-8.35
-3.51
1.61
6.54
10.84
14.20
16.51
17.76
18.06
17.50
16.27
14.66
13.01
11.68
10.87
10.59
10.62
10.69
10.58
10.22
9.67
9.03
8.35
7.62
6.78
5.78
4.66
3.51
2.42
1.42
0.47
-0.56
-1.86
-3.54
-5.60
-7.92
-10.24
-12.29
-13.90
-15.05
-15.87
-16.58
-17.35
-18.29
-19.43
-20.71
-22.03
-23.17
-23.88
-23.83
-22.76
-20.51
-17.13
-12.78
-7.72
-2.30
3.10
8.08
12.25
15.28
17.06
17.72
17.54
16.87
16.01
15.13
14.32
13.65
13.18
12.94
12.88
12.88
12.73
12.28
11.46
10.40
9.31
8.40
7.75
7.25
6.65
5.70
4.26
2.43
0.36
-1.69
-3.61
-5.34
-6.86
-8.15
-9.15
-9.88
-10.45
-11.10
-12.14
-13.76
-15.90
-18.26
-20.39
-21.83
-22.29
-21.64
-19.87
-17.00
-13.12
-8.37
-3.03
2.45
7.55
11.79
14.90
16.81
17.75
17.99
17.84
17.43
16.79
15.88
14.75
13.54
12.50
11.84
11.62
11.69
11.79
11.63
11.04
10.00
8.60
6.99
5.29
3.59
1.94
0.40
-0.99
-2.28
-3.52
-4.83
-6.26
-7.82
-9.43
-11.01
-12.50
-13.93
-15.35
-16.89
-18.59
-20.47
-22.47
-24.41
-26.01
-26.93
-26.74
-25.07
-21.75
-16.89
-10.92
-4.52
1.62
6.97
11.26
14.51
16.85
18.41
19.29
19.52
19.19
18.43
17.46
16.49
15.65
14.97
14.33
13.63
12.76
11.70
10.53
9.34
8.26
7.31
6.49
5.66
4.69
3.46
1.92
0.10
-1.91
-3.95
-5.89
-7.63
-9.16
-10.57
-11.94
-13.35
-14.83
-16.37
-18.02
-19.84
-21.84
-23.89
-25.66
-26.69
-26.51
-24.80
-21.52
-16.92
-11.43
-5.56
0.24
5.64
10.41
14.41
17.57
19.83
21.20
21.69
21.40
20.51
19.31
18.13
17.21
16.67
16.39
16.17
15.87
15.47
15.06
14.76
14.55
14.23
13.51
12.18
10.24
7.93
5.62
3.61
2.01
0.67
-0.67
-2.20
-3.96
-5.78
-7.47
-8.86
-9.99
-10.99
-12.05
-13.30
-14.75
-16.39
-18.22
-20.31
-22.65
-25.04
-27.01
-27.86
-26.92
-23.81
-18.65
-12.04
-4.87
1.98
7.92
12.71
16.35
18.96
20.60
21.27
20.97
19.87
18.28
16.67
15.48
14.91
14.97
15.37
15.79
15.98
15.87
15.57
15.20
14.82
14.32
13.51
12.20
10.40
8.31
6.27
4.53
3.14
1.91
0.50
-1.32
-3.54
-5.89
-8.01
-9.63
-10.75
-11.57
-12.39
-13.43
-14.71
-16.15
-17.67
-19.27
-21.04
-22.97
-24.79
-25.93
-25.64
-23.31
-18.73
-12.31
-4.90
2.44
8.87
13.94
17.60
20.06
21.54
22.19
22.06
21.23
19.93
18.42
17.01
15.86
14.99
14.34
13.78
13.23
12.67
12.13
11.63
11.21
10.82
10.40
9.81
8.90
7.54
5.74
3.67
1.58
-0.31
-1.86
-3.15
-4.34
-5.59
-6.96
-8.38
-9.75
-11.02
-12.25
-13.57
-15.08
-16.78
-18.59
-20.34
-21.95
-23.31
-24.35
-24.86
-24.54
-23.02
-20.04
-15.58
-9.94
-3.67
2.57
8.18
12.77
16.17
18.40
19.61
20.00
19.78
19.12
18.18
17.10
16.05
15.18
14.64
14.46
14.54
14.67
14.64
14.25
13.41
12.15
10.57
8.86
7.20
5.77
4.61
3.68
2.79
1.73
0.38
-1.24
-2.96
-4.55
-5.90
-7.07
-8.22
-9.47
-10.81
-12.08
-13.14
-13.98
-14.80
-15.84
-17.31
-19.21
-21.34
-23.33
-24.86
-25.59
-25.28
-23.78
-21.03
-17.08
-12.19
-6.73
-1.17
4.08
8.74
12.66
15.80
18.15
19.70
20.48
20.51
19.90
18.80
17.40
15.93
14.58
13.48
12.66
12.12
11.78
11.58
11.43
11.22
10.85
10.20
9.19
7.77
6.04
4.18
2.40
0.90
-0.28
-1.17
-1.90
-2.58
-3.30
-4.15
-5.20
-6.45
-7.89
-9.41
-10.84
-12.05
-12.99
-13.73
-14.46
-15.40
-16.74
-18.55
-20.68
-22.81
-24.49
-25.27
-24.81
-22.99
-19.92
-15.90
-11.27
-6.32
-1.30
3.58
8.10
12.03
15.07
17.00
17.72
17.39
16.39
15.22
14.30
13.78
13.50
13.13
12.44
11.45
10.44
9.81
9.71
10.03
10.43
10.53
10.12
9.29
8.21
7.07
5.95
4.82
3.64
2.38
1.02
-0.47
-2.15
-4.04
-6.07
-8.05
-9.78
-11.12
-12.12
-12.92
-13.74
-14.74
-15.95
-17.32
-18.65
-19.74
-20.31
-20.14
-19.06
-16.97
-13.90
-9.99
-5.51
-0.75
3.96
8.32
12.10
15.10
17.25
18.54
19.03
18.81
18.00
16.80
15.47
14.26
13.33
12.64
11.95
11.01
9.69
8.10
6.57
5.43
4.80
4.51
4.23
3.56
2.35
0.70
-1.12
-2.84
-4.31
-5.51
-6.58
-7.64
-8.74
-9.84
-10.91
-11.95
-13.00
-14.19
-15.48
-16.82
-18.01
-18.92
-19.58
-20.15
-20.86
-21.72
-22.42
-22.33
-20.80
-17.45
-12.45
-6.40
-0.14
5.58
10.33
13.97
16.59
18.27
19.09
19.08
18.33
17.00
15.37
13.74
12.37
11.44
10.93
10.71
10.60
10.40
10.08
9.65
9.22
8.80
8.30
7.57
6.50
5.12
3.60
2.18
1.01
0.08
-0.78
-1.77
-3.00
-4.48
-6.07
-7.64
-9.10
-10.44
-11.67
-12.84
-13.99
-15.17
-16.49
-18.04
-19.81
-21.63
-23.16
-24.00
-23.78
-22.28
-19.51
-15.65
-10.99
-5.93
-0.84
3.88
7.99
11.36
13.97
15.86
17.03
17.43
17.03
15.95
14.46
12.93
11.70
10.87
10.32
9.79
9.10
8.26
7.47
6.96
6.79
6.80
6.72
6.28
5.41
4.22
2.95
1.79
0.82
-0.02
-0.87
-1.89
-3.11
-4.48
-5.90
-7.25
-8.53
-9.77
-11.05
-12.39
-13.78
-15.18
-16.58
-18.02
-19.50
-20.89
-21.88
-22.03
-20.98
-18.60
-15.05
-10.70
-5.96
-1.15
3.55
8.00
12.01
15.27
17.50
18.49
18.31
17.21
15.58
13.78
12.06
10.56
9.35
8.48
7.98
7.83
7.89
8.01
8.02
7.83
7.47
7.01
6.52
5.98
5.33
4.50
3.48
2.25
0.83
-0.82
-2.75
-4.94
-7.26
-9.48
-11.35
-12.73
-13.69
-14.50
-15.48
-16.82
-18.47
-20.16
-21.48
-22.02
-21.48
-19.78
-16.97
-13.25
-8.83
-4.01
0.92
5.65
9.87
13.32
15.81
17.26
17.66
17.15
15.93
14.28
12.51
10.90
9.63
8.80
8.40
8.33
8.49
8.71
8.84
8.73
8.31
7.53
6.46
5.20
3.85
2.50
1.17
-0.17
-1.55
-3.05
-4.70
-6.50
-8.42
-10.39
-12.24
-13.89
-15.26
-16.41
-17.45
-18.54
-19.80
-21.19
-22.57
-23.61
-23.94
-23.18
-21.12
-17.75
-13.33
-8.27
-3.06
1.91
6.39
10.25
13.42
15.85
17.47
18.24
18.23
17.66
16.83
16.03
15.47
15.20
15.16
15.17
15.06
14.71
14.01
12.97
11.62
10.10
8.50
6.95
5.46
4.03
2.62
1.22
-0.16
-1.49
-2.78
-4.10
-5.54
-7.16
-8.91
-10.69
-12.37
-13.91
-15.37
-16.87
-18.45
-20.10
-21.68
-22.99
-23.80
-23.91
-23.15
-21.34
-18.34
-14.13
-8.86
-2.97
2.96
8.25
12.39
15.18
16.74
17.42
17.58
17.43
17.02
16.32
15.32
14.14
13.01
12.13
11.57
11.24
10.94
10.58
10.16
9.81
9.56
9.28
8.72
7.61
5.87
3.72
1.54
-0.35
-1.81
-2.93
-3.91
-4.89
-5.87
-6.76
-7.52
-8.23
-9.10
-10.35
-12.07
-14.23
-16.68
-19.15
-21.30
-22.73
-22.97
-21.69
-18.81
-14.57
-9.51
-4.21
0.86
5.51
9.73
13.57
16.95
19.62
21.32
21.87
21.36
20.07
18.45
16.84
15.50
14.50
13.81
13.33
12.98
12.67
12.31
11.79
11.06
10.07
8.85
7.48
6.07
4.66
3.26
1.81
0.26
-1.42
-3.21
-5.08
-7.00
-8.93
-10.87
-12.74
-14.47
-15.98
-17.25
-18.38
-19.61
-21.10
-22.88
-24.66
-25.95
-26.12
-24.68
-21.45
-16.58
-10.53
-3.90
2.65
8.55
13.44
17.12
19.59
21.00
21.56
21.51
21.05
20.35
19.57
18.85
18.32
18.04
17.95
17.91
17.74
17.30
16.61
15.85
15.19
14.76
14.47
14.12
13.39
12.05
10.04
7.50
4.73
1.95
-0.67
-3.13
-5.50
-7.85
-10.18
-12.39
-14.36
-16.02
-17.40
-18.68
-20.10
-21.94
-24.42
-27.62
-31.43
-35.43
-38.96
-41.17
-41.31
-38.91
-34.09
-27.37
-19.61
-11.56
-3.71
3.76
10.87
17.63
23.98
29.74
34.66
38.49
41.01
41.97
41.18
38.60
34.53
29.71
25.21
22.13
21.14
22.17
24.40
26.47
27.03
25.10
20.36
13.12
4.10
-5.85
-15.81
-24.92
-32.34
-37.37
-39.64
-39.25
-36.75
-33.06
-29.02
-25.28
-22.11
-19.48
-17.22
-15.13
-13.01
-10.59
-7.59
-3.85
0.50
4.89
8.45
10.30
9.91
7.44
3.62
-0.44
-3.69
-5.41
-5.36
-3.68
-0.76
2.91
6.75
10.21
12.78
14.21
14.49
13.91
12.88
11.74
10.65
9.56
8.34
7.05
5.93
5.42
5.81
6.94
8.11
8.28
6.62
2.98
-1.93
-6.80
-10.35
-11.97
-11.91
-11.07
-10.39
-10.42
-11.09
-11.95
-12.61
-13.04
-13.55
-14.50
-15.86
-17.05
-17.05
-14.80
-9.72
-2.02
7.26
16.62
24.57
30.13
33.06
33.83
33.31
32.39
31.61
31.12
30.75
30.21
29.31
28.04
26.55
25.08
23.87
23.08
22.75
22.74
22.73
22.30
21.01
18.69
15.54
12.18
9.53
8.52
9.75
13.19
18.11
23.14
26.62
27.05
23.56
16.19
5.94
-5.64
-16.97
-26.97
-35.32
-42.29
-48.40
-53.83
-58.19
-60.66
-60.33
-56.75
-50.20
-41.58
-31.91
-21.90
-11.64
-0.86
10.60
22.43
33.69
43.26
50.25
54.36
55.77
54.67
51.08
44.88
36.24
26.03
15.90
7.71
2.85
1.60
3.21
6.39
10.01
13.47
16.64
19.47
21.62
22.36
20.87
16.67
9.84
1.01
-8.98
-19.34
-29.52
-39.27
-48.42
-56.77
-64.00
-69.78
-73.83
-76.06
-76.49
-75.23
-72.39
-68.06
-62.30
-55.27
-47.24
-38.57
-29.59
-20.60
-11.80
-3.40
4.42
11.49
17.74
23.32
28.41
33.11
37.08
39.64
39.89
37.20
31.62
23.95
15.53
7.68
1.16
-3.96
-8.28
-12.45
-16.83
-21.18
-24.70
-26.52
-26.11
-23.74
-20.42
-17.61
-16.58
-17.94
-21.36
-25.81
-29.99
-32.89
-34.06
-33.56
-31.70
-28.71
-24.62
-19.36
-13.01
-5.89
1.46
8.52
14.96
20.80
26.22
31.37
36.20
40.45
43.73
45.75
46.36
45.67
43.98
41.68
39.22
36.95
35.08
33.55
32.13
30.35
27.84
24.52
20.60
16.53
12.76
9.51
6.67
3.86
0.63
-3.30
-7.80
-12.31
-16.02
-18.25
-18.79
-18.07
-17.07
-17.03
-18.81
-22.35
-26.74
-30.56
-32.57
-32.11
-29.22
-24.45
-18.85
-13.25
-8.07
-3.34
1.03
4.96
8.26
10.77
12.40
12.37
10.04
5.36
-1.02
-7.85
-13.80
-17.73
-18.92
-17.28
-14.70
-13.36
-14.86
-19.61
-27.08
-36.28
-46.26
-56.00
-64.41
-72.01
-79.09
-85.36
-90.18
-93.34
-95.67
-98.80
-104.06
-101.66
-84.40
-50.86
-6.83
38.84
79.73
112.98
138.17
156.34
169.07
176.30
177.91
174.45
167.03
157.44
146.97
136.07
124.97
114.09
102.79
90.87
78.97
67.96
58.95
52.55
47.66
42.89
37.06
28.39
14.99
0.11
-14.61
-28.15
-40.08
-52.17
-66.44
-84.30
-106.69
-133.34
-162.31
-190.22
-212.48
-223.89
-222.12
-206.65
-179.19
-144.23
-108.06
-77.13
-55.87
-45.62
-32.07
-6.04
33.79
80.76
125.55
161.47
182.31
189.95
185.60
169.81
141.45
100.92
55.62
15.43
-10.07
-15.87
-3.56
18.56
39.65
49.94
45.89
30.65
10.58
-8.30
-22.70
-31.55
-35.19
-34.49
-30.38
-23.41
-14.46
-5.80
-0.16
0.47
-3.64
-10.45
-18.56
-25.94
-29.73
-27.06
-17.26
-2.46
13.34
26.11
33.19
31.02
19.54
2.18
-15.86
-31.24
-43.76
-55.21
-67.49
-81.55
-101.64
-129.63
-164.32
-201.81
-238.52
-272.77
-304.24
-333.34
-333.28
-291.87
-218.19
-135.99
-63.70
-7.58
33.59
63.26
84.92
101.80
109.71
110.22
106.43
102.70
101.71
103.32
105.72
107.12
106.62
101.01
90.95
78.57
67.77
61.43
60.04
62.39
66.81
71.88
74.75
74.08
69.77
63.25
55.79
47.87
39.58
31.13
22.93
14.48
5.74
-3.20
-11.60
-18.76
-24.29
-27.99
-29.62
-28.98
-26.31
-21.81
-15.93
-9.00
-1.44
6.24
13.76
21.06
28.30
35.65
43.16
50.60
57.76
64.48
70.80
76.84
82.79
88.72
94.53
99.91
104.29
106.96
107.11
104.02
97.26
86.80
73.12
57.12
40.06
23.27
7.92
-5.26
-16.14
-25.10
-32.82
-39.91
-46.63
-52.81
-58.05
-62.02
-64.61
-66.04
-66.69
-66.92
-66.89
-66.63
-66.10
-65.38
-64.72
-64.52
-65.13
-66.73
-69.22
-72.35
-75.75
-79.04
-81.81
-83.53
-83.58
-81.28
-76.22
-68.39
-58.36
-47.06
-35.57
-24.76
-15.18
-7.02
-0.39
4.64
7.96
9.55
9.69
8.82
7.21
5.16
2.99
0.87
-1.15
-3.10
-5.10
-7.13
-9.24
-11.69
-14.54
-17.54
-20.40
-22.93
-25.16
-27.41
-29.80
-32.45
-35.97
-40.58
-45.90
-51.46
-56.70
-60.93
-63.31
-61.99
-55.40
-44.39
-30.05
-12.88
6.19
26.02
45.35
62.73
78.37
92.31
100.79
101.77
96.37
86.43
73.83
60.08
45.97
34.62
28.60
23.74
17.33
10.17
2.94
-3.55
-7.88
-7.67
3.89
33.09
76.23
129.20
190.16
255.38
320.49
381.64
412.31
393.80
363.05
337.46
308.17
273.97
235.75
195.74
156.43
119.33
88.04
64.43
41.14
13.30
-18.07
-50.95
-83.13
-112.95
-139.77
-160.78
-173.76
-182.97
-190.98
-196.67
-199.34
-199.02
-196.37
-192.50
-186.70
-178.07
-169.45
-162.50
-156.56
-151.26
-146.53
-142.54
-139.48
-136.42
-132.17
-127.38
-122.28
-116.25
-109.23
-101.66
-94.41
-88.40
-84.05
-81.36
-80.54
-81.15
-81.91
-81.31
-77.82
-70.26
-58.07
-41.62
-22.17
-1.56
18.18
35.41
49.06
58.74
64.58
66.99
66.54
63.89
59.81
55.14
50.73
47.23
44.99
43.97
43.72
43.59
43.00
41.62
39.41
36.49
32.94
28.61
23.16
16.24
7.80
-1.81
-11.79
-21.23
-29.39
-35.94
-41.04
-45.16
-48.84
-52.27
-55.21
-56.89
-56.31
-52.57
-45.25
-34.67
-21.70
-7.58
6.56
19.91
32.00
42.56
51.35
58.01
62.16
63.62
62.54
59.46
55.22
50.71
46.66
43.45
41.11
39.42
38.12
37.02
36.00
34.97
33.73
31.95
29.35
25.80
21.41
16.52
11.49
6.62
1.98
-2.48
-6.81
-11.07
-15.24
-19.37
-23.62
-28.26
-33.53
-39.54
-46.09
-52.50
-57.65
-60.13
-58.61
-52.36
-41.53
-27.24
-11.28
4.42
18.29
29.43
37.54
42.69
45.12
45.12
43.12
39.73
35.72
31.87
28.82
26.89
26.07
26.15
26.76
27.52
28.09
28.26
27.84
26.76
25.01
22.59
19.51
15.81
11.59
7.08
2.55
-1.70
-5.50
-8.85
-11.99
-15.20
-18.80
-22.97
-27.74
-32.93
-38.05
-42.40
-45.05
-45.14
-42.04
-35.70
-26.59
-15.74
-4.36
6.42
15.82
23.47
29.33
33.52
36.23
37.57
37.63
36.51
34.39
31.54
28.37
25.29
22.64
20.59
19.22
18.47
18.18
18.16
18.18
18.02
17.43
16.23
14.29
11.54
8.08
4.09
-0.13
-4.33
-8.33
-12.04
-15.42
-18.42
-21.02
-23.30
-25.48
-27.94
-31.15
-35.34
-40.27
-45.13
-48.70
-49.74
-47.40
-41.50
-32.50
-21.26
-8.78
4.06
16.47
27.69
37.00
43.73
47.41
48.02
46.06
42.42
38.14
34.16
31.06
29.01
27.85
27.21
26.77
26.32
25.82
25.28
24.70
24.00
23.04
21.74
20.09
18.22
16.23
14.15
11.84
9.08
5.73
1.81
-2.49
-6.82
-10.88
-14.49
-17.60
-20.26
-22.60
-24.82
-27.22
-30.17
-33.99
-38.71
-43.95
-48.86
-52.34
-53.32
-51.08
-45.37
-36.44
-25.06
-12.25
0.78
12.89
23.15
30.92
35.95
38.33
38.43
36.80
34.11
30.99
28.01
25.55
23.74
22.57
21.90
21.53
21.32
21.19
21.02
20.75
20.28
19.59
18.63
17.33
15.54
13.09
9.88
5.92
1.44
-3.15
-7.45
-11.12
-14.03
-16.29
-18.15
-19.87
-21.76
-24.00
-26.80
-30.33
-34.62
-39.37
-43.86
-47.01
-47.72
-45.20
-39.28
-30.52
-19.96
-8.76
2.09
11.95
20.44
27.35
32.51
35.76
37.04
36.50
34.49
31.56
28.33
25.32
22.86
21.06
19.86
19.14
18.83
18.94
19.39
20.06
20.61
20.56
19.54
17.34
14.09
10.21
6.34
2.94
0.12
-2.37
-4.86
-7.53
-10.32
-13.02
-15.39
-17.31
-18.88
-20.48
-22.60
-25.60
-29.57
-34.35
-39.50
-44.40
-47.93
-49.05
-47.15
-42.29
-35.04
-26.20
-16.58
-6.85
2.54
11.98
21.64
30.85
38.31
42.78
43.87
41.95
37.95
32.90
29.34
29.12
32.29
37.18
41.67
44.40
44.88
43.26
40.08
38.63
41.43
48.38
56.83
63.69
67.48
68.63
68.86
70.33
78.29
96.36
124.39
158.68
194.67
229.02
259.70
285.37
283.83
243.00
169.32
85.17
11.61
-42.70
-79.62
-105.30
-125.47
-143.19
-155.29
-158.15
-150.99
-136.99
-120.90
-106.12
-94.14
-85.18
-79.03
-72.87
-65.17
-56.82
-50.78
-49.51
-53.12
-59.76
-66.98
-73.11
-74.77
-70.70
-62.12
-52.15
-43.99
-39.50
-39.02
-41.62
-45.54
-47.90
-46.82
-42.39
-36.68
-32.36
-31.27
-33.82
-38.96
-45.07
-50.48
-54.44
-57.28
-59.94
-63.07
-66.95
-71.90
-78.11
-85.71
-94.38
-103.37
-111.73
-118.54
-122.71
-123.53
-120.91
-114.75
-105.04
-91.59
-74.26
-53.28
-29.34
-2.83
25.61
54.78
82.55
103.40
112.20
109.06
99.23
89.17
83.74
86.29
94.01
103.14
110.66
114.45
115.09
115.75
116.76
119.03
122.03
124.12
124.56
123.73
121.10
117.01
113.15
111.33
112.19
114.05
113.78
108.29
94.73
68.05
24.96
-33.43
-101.78
-172.69
-238.67
-292.86
-329.93
-329.64
-285.03
-211.35
-135.15
-74.29
-32.16
-4.08
15.53
29.25
36.22
31.61
13.22
-14.84
-43.64
-65.02
-74.98
-74.14
-66.34
-56.10
-48.53
-45.32
-44.78
-40.58
-28.97
-10.12
12.78
35.11
52.82
62.52
63.82
59.90
56.02
56.22
62.00
72.27
83.75
92.32
93.88
86.17
69.86
48.07
24.27
0.57
-20.14
-35.71
-45.04
-48.20
-45.93
-39.19
-29.03
-16.95
-4.44
7.52
18.35
28.13
37.42
46.84
56.64
66.58
75.98
83.95
89.60
91.80
89.61
82.61
71.06
55.56
36.94
16.23
-5.62
-28.10
-51.17
-74.74
-97.86
-118.55
-134.35
-143.08
-143.43
-135.74
-122.67
-108.28
-96.74
-90.35
-88.79
-89.77
-90.10
-86.44
-76.27
-58.74
-34.41
-5.35
26.01
57.42
86.55
106.89
111.24
97.85
71.67
39.97
6.80
-25.37
-53.00
-72.30
-78.25
-66.97
-37.69
6.26
59.68
113.61
157.92
184.88
190.73
176.54
147.17
109.74
64.76
19.33
-19.24
-47.64
-66.18
-75.60
-75.27
-65.55
-48.55
-28.86
-11.24
-0.41
1.56
-3.49
-13.65
-24.86
-33.68
-38.73
-41.42
-44.67
-52.87
-69.00
-92.24
-117.83
-138.77
-149.61
-148.98
-140.06
-128.24
-119.08
-115.17
-114.96
-114.03
-107.46
-92.70
-70.25
-42.77
-13.09
16.80
46.25
75.71
105.64
135.81
164.80
190.46
210.72
224.44
231.68
233.54
231.76
228.12
224.04
220.29
217.02
214.09
211.48
209.52
209.00
211.00
216.40
225.26
236.31
246.81
253.09
251.55
239.76
217.07
184.69
145.19
101.83
58.08
16.97
-19.32
-49.84
-75.19
-97.21
-118.26
-140.33
-164.19
-188.92
-211.94
-229.46
-237.57
-233.62
-217.43
-191.83
-161.92
-133.54
-111.17
-96.52
-88.30
-83.42
-78.92
-73.58
-68.31
-65.47
-67.41
-75.27
-88.59
-105.75
-124.86
-144.65
-164.80
-185.98
-209.25
-235.34
-263.96
-293.57
-321.60
-344.99
-360.97
-367.62
-364.13
-350.65
-327.66
-295.64
-254.91
-206.15
-150.90
-91.74
-31.77
26.31
81.06
132.38
180.64
225.53
265.40
297.62
319.66
330.45
330.96
323.79
312.01
298.13
283.53
268.76
254.02
239.51
225.51
212.16
199.43
186.93
174.26
161.07
147.16
132.34
116.47
99.52
81.72
63.77
46.79
31.95
20.09
11.27
4.79
-0.48
-5.65
-11.28
-17.19
-22.52
-26.02
-26.48
-23.02
-15.31
-3.75
10.53
25.45
38.78
48.73
54.29
55.34
52.67
47.73
42.25
37.70
34.67
33.23
33.14
34.01
35.35
36.63
37.47
37.64
37.08
35.18
31.88
27.88
24.12
21.05
18.33
15.35
11.67
7.42
1.25
-6.77
-14.80
-20.51
-22.84
-22.21
-19.86
-17.05
-14.84
-18.08
-28.93
-44.98
-61.23
-74.02
-82.62
-88.68
-95.10
-104.90
-126.64
-163.49
-210.38
-257.69
-297.90
-328.25
-349.69
-365.12
-378.10
-400.41
-437.91
-486.25
-534.73
-574.01
-599.47
-610.53
-609.47
-545.68
-407.34
-229.29
-63.25
63.13
149.74
207.73
248.18
279.02
305.31
321.02
324.53
319.73
312.85
306.75
300.53
292.65
283.44
275.53
265.68
251.66
236.56
225.28
219.70
217.73
215.56
209.98
200.18
183.27
160.44
136.19
116.27
103.64
96.83
91.91
84.96
74.56
58.67
37.00
9.09
-24.55
-62.28
-101.30
-137.33
-166.05
-184.20
-193.40
-188.97
-174.10
-158.21
-149.10
-147.03
-146.02
-145.45
-141.50
-132.75
-119.88
-106.03
-93.81
-81.12
-66.87
-50.66
-33.48
-16.34
0.59
17.28
31.99
43.19
51.25
57.89
65.06
73.20
82.04
92.94
108.07
128.80
155.92
189.95
230.04
273.27
314.52
333.61
316.89
267.00
202.12
142.64
100.47
77.61
69.68
69.14
69.08
67.44
64.79
61.82
57.86
51.59
41.91
28.72
12.97
-4.45
-19.34
-27.74
-28.37
-23.38
-16.51
-11.12
-8.98
-11.19
-17.38
-24.90
-30.83
-33.32
-32.35
-29.35
-26.86
-23.03
-18.68
-15.08
-12.66
-11.71
-12.48
-15.38
-20.56
-27.57
-35.25
-42.82
-49.38
-54.04
-56.72
-58.10
-59.21
-60.92
-63.60
-67.21
-72.03
-78.15
-85.32
-93.37
-101.74
-109.61
-116.27
-121.35
-124.97
-127.88
-130.57
-132.92
-134.76
-135.30
-133.33
-127.88
-118.80
-106.67
-92.49
-77.04
-60.65
-44.58
-29.62
-15.93
-3.60
6.83
14.57
19.33
21.96
24.12
25.93
27.70
30.30
34.50
40.15
46.39
52.24
56.74
58.38
52.88
37.05
11.13
-21.26
-54.80
-84.27
-105.65
-117.28
-106.85
-73.06
-27.80
13.01
40.97
55.93
60.85
58.57
51.40
41.49
29.36
16.78
6.78
1.95
2.52
6.86
12.03
17.79
23.79
27.91
28.36
24.89
18.54
10.54
2.09
-5.64
-11.45
-14.87
-17.04
-19.17
-21.65
-24.23
-26.50
-28.63
-30.76
-32.57
-33.84
-34.93
-36.28
-38.18
-40.64
-43.62
-47.12
-50.92
-54.70
-58.35
-62.16
-66.45
-71.42
-77.01
-82.99
-88.87
-93.81
-96.63
-96.20
-91.71
-83.02
-70.75
-56.21
-41.04
-26.94
-15.16
-6.53
-1.53
-0.37
-3.07
-9.26
-17.98
-27.79
-36.98
-43.98
-47.84
-48.45
-46.22
-41.95
-36.52
-30.86
-25.99
-23.01
-22.73
-25.38
-30.48
-37.00
-43.88
-50.36
-56.11
-60.97
-64.71
-67.03
-67.67
-66.68
-64.31
-60.75
-55.76
-48.54
-38.05
-23.57
-5.22
15.76
37.26
56.84
72.54
83.53
90.38
94.78
98.81
104.04
110.84
118.30
124.69
128.35
128.37
124.95
119.12
112.36
105.91
100.51
96.35
93.22
90.71
88.42
86.03
83.30
80.01
76.04
71.39
66.26
61.09
56.38
52.54
49.71
47.68
45.99
44.14
41.64
38.09
33.34
27.58
21.52
16.35
13.41
13.72
17.54
24.27
32.76
41.77
50.41
58.32
65.40
71.53
76.39
79.48
80.37
78.87
75.13
69.47
62.27
53.89
44.75
35.42
26.67
19.34
14.11
11.31
10.84
12.04
13.87
15.13
14.67
11.85
6.65
-0.23
-7.73
-14.88
-21.22
-26.95
-32.72
-39.23
-46.88
-55.57
-64.74
-73.48
-80.60
-84.82
-84.89
-79.98
-70.08
-56.12
-39.77
-22.92
-7.03
7.17
19.54
30.10
38.63
44.55
47.36
47.13
44.81
42.06
40.48
40.91
43.04
45.59
47.07
46.60
44.29
41.07
38.09
36.04
34.83
33.79
32.15
29.47
25.96
22.15
18.57
15.27
11.75
7.14
0.65
-8.07
-18.75
-30.54
-42.29
-52.82
-61.02
-66.02
-67.19
-64.19
-57.20
-46.97
-34.82
-22.23
-10.48
-0.15
8.96
17.47
26.04
34.83
43.46
51.02
56.52
59.24
58.90
55.83
50.86
45.19
40.13
36.77
35.66
36.63
38.83
41.11
42.43
42.24
40.48
37.45
33.53
29.02
24.13
19.10
14.14
9.41
4.90
0.33
-4.81
-11.00
-18.56
-27.32
-36.64
-45.50
-52.65
-56.90
-57.30
-53.40
-45.30
-33.69
-19.76
-4.93
9.45
22.27
32.85
40.79
45.99
48.43
48.29
45.89
41.90
37.31
33.24
30.64
29.97
31.03
33.06
35.09
36.31
36.35
35.32
33.67
31.80
29.90
27.82
25.24
21.81
17.38
12.10
6.37
0.66
-4.66
-9.38
-13.56
-17.31
-20.84
-24.33
-27.94
-31.77
-35.81
-39.75
-42.92
-44.30
-42.65
-37.02
-27.05
-13.37
2.54
18.60
32.67
43.15
49.30
51.39
50.39
47.57
43.99
40.29
36.71
33.26
30.02
27.13
24.80
23.08
21.82
20.73
19.45
17.77
15.59
12.92
9.90
6.67
3.44
0.41
-2.24
-4.47
-6.28
-7.74
-8.87
-9.65
-10.02
-9.96
-9.50
-8.84
-8.34
-8.52
-9.97
-13.27
-18.79
-26.34
-35.12
-43.73
-50.44
-53.68
-52.41
-46.41
-36.34
-23.54
-9.69
3.54
14.85
23.57
29.69
33.79
36.72
39.29
41.96
44.63
46.71
47.40
46.13
42.81
37.93
32.33
26.85
21.99
17.79
14.02
10.42
6.99
3.96
1.69
0.39
-0.03
-0.00
-0.20
-1.28
-3.70
-7.54
-12.52
-18.05
-23.48
-28.22
-31.89
-34.31
-35.43
-35.37
-34.40
-33.08
-32.18
-32.43
-34.24
-37.34
-40.73
-42.99
-42.77
-39.25
-32.49
-23.21
-12.49
-1.35
9.51
19.58
28.28
34.76
37.99
37.22
32.52
25.10
17.08
10.80
7.90
8.67
12.06
16.20
19.22
20.01
18.38
14.93
10.57
6.18
2.39
-0.46
-2.28
-3.23
-3.68
-4.17
-5.26
-7.30
-10.37
-14.23
-18.44
-22.54
-26.20
-29.35
-32.18
-35.05
-38.30
-42.03
-45.95
-49.32
-51.18
-50.61
-47.07
-40.65
-32.01
-22.20
-12.31
-3.26
4.43
10.57
15.20
18.47
20.59
21.80
22.41
22.76
23.14
23.69
24.30
24.69
24.53
23.61
21.99
19.94
17.87
16.02
14.43
12.96
11.37
9.54
7.50
5.37
3.19
0.91
-1.58
-4.34
-7.27
-10.17
-12.76
-14.93
-16.68
-18.16
-19.50
-20.75
-21.92
-23.07
-24.41
-26.30
-28.99
-32.40
-35.93
-38.48
-38.86
-36.16
-30.22
-21.70
-11.88
-2.20
6.21
12.82
17.61
20.78
22.44
22.50
20.82
17.40
12.65
7.36
2.57
-0.82
-2.32
-1.98
-0.31
1.86
3.72
4.67
4.46
3.23
1.44
-0.34
-1.58
-2.01
-1.65
-0.75
0.29
1.13
1.51
1.31
0.50
-0.93
-2.98
-5.58
-8.58
-11.72
-14.76
-17.53
-20.02
-22.31
-24.42
-26.17
-27.14
-26.76
-24.49
-20.10
-13.81
-6.22
1.79
9.35
15.77
20.66
23.89
25.56
25.88
25.08
23.39
21.02
18.18
15.06
11.85
8.75
5.94
3.54
1.58
0.07
-1.05
-1.81
-2.24
-2.39
-2.43
-2.58
-3.13
-4.25
-5.87
-7.78
-9.74
-11.55
-13.25
-14.93
-16.69
-18.45
-20.04
-21.24
-22.08
-22.77
-23.75
-25.39
-27.83
-30.79
-33.54
-35.17
-34.75
-31.80
-26.34
-19.01
-10.78
-2.68
4.50
10.32
14.68
17.73
19.64
20.59
20.76
20.29
19.38
18.23
17.01
15.83
14.72
13.64
12.54
11.43
10.35
9.40
8.61
7.94
7.26
6.37
5.11
3.49
1.61
-0.33
-2.16
-3.78
-5.24
-6.64
-8.14
-9.84
-11.76
-13.84
-16.00
-18.17
-20.38
-22.73
-25.32
-28.13
-30.83
-32.83
-33.37
-31.76
-27.66
-21.32
-13.51
-5.30
2.30
8.57
13.26
16.44
18.33
19.13
18.88
17.66
15.57
12.91
10.07
7.46
5.43
4.11
3.47
3.34
3.44
3.60
3.65
3.56
3.38
3.15
2.84
2.35
1.49
0.15
-1.67
-3.83
-6.11
-8.29
-10.21
-11.84
-13.18
-14.34
-15.47
-16.79
-18.51
-20.79
-23.58
-26.55
-29.05
-30.26
-29.49
-26.37
-21.07
-14.23
-6.73
0.52
6.85
11.86
15.43
17.52
18.24
17.72
16.22
14.09
11.71
9.47
7.64
6.39
5.82
5.87
6.37
7.05
7.60
7.83
7.66
7.18
6.48
5.58
4.41
2.83
0.78
-1.63
-4.18
-6.63
-8.86
-10.85
-12.67
-14.36
-15.97
-17.51
-19.02
-20.62
-22.47
-24.62
-26.98
-29.23
-30.87
-31.27
-29.92
-26.52
-21.14
-14.26
-6.63
0.93
7.71
13.22
17.26
19.82
21.03
21.10
20.26
18.77
16.88
14.86
12.94
11.31
10.09
9.29
8.88
8.75
8.76
8.75
8.63
8.32
7.83
7.21
6.50
5.67
4.66
3.38
1.73
-0.28
-2.58
-4.98
-7.27
-9.34
-11.14
-12.77
-14.40
-16.17
-18.26
-20.73
-23.55
-26.47
-29.05
-30.68
-30.78
-28.98
-25.21
-19.77
-13.19
-6.12
0.83
7.16
12.51
16.67
19.51
21.01
21.27
20.47
18.81
16.60
14.10
11.67
9.66
8.37
7.95
8.36
9.32
10.42
11.31
11.74
11.71
11.34
10.72
9.86
8.54
6.52
3.66
0.10
-3.78
-7.46
-10.53
-12.85
-14.56
-15.94
-17.32
-18.91
-20.79
-22.95
-25.32
-27.77
-30.13
-32.04
-33.06
-32.69
-30.59
-26.65
-21.14
-14.60
-7.70
-1.11
4.70
9.45
13.12
15.80
17.66
18.86
19.52
19.74
19.66
19.41
19.15
19.00
19.00
19.12
19.24
19.29
19.21
19.01
18.71
18.27
17.55
16.44
14.90
12.96
10.78
8.46
6.08
3.64
1.10
-1.53
-4.13
-6.57
-8.70
-10.48
-12.06
-13.66
-15.58
-18.04
-20.97
-24.07
-26.81
-28.62
-29.10
-28.19
-26.07
-23.09
-19.53
-15.54
-11.14
-6.38
-1.44
3.38
7.76
11.52
14.61
17.04
18.68
19.29
18.59
16.52
13.44
10.09
7.31
5.77
5.63
6.64
8.29
10.06
11.56
12.55
12.89
12.42
11.07
8.87
6.08
3.09
0.34
-1.86
-3.40
-4.41
-5.16
-5.90
-6.80
-7.85
-8.97
-10.07
-11.19
-12.49
-14.19
-16.37
-18.88
-21.26
-22.84
-22.95
-21.15
-17.38
-12.00
-5.71
0.66
6.31
10.66
13.49
14.95
15.36
15.16
14.65
14.00
13.25
12.44
11.63
10.91
10.39
10.05
9.83
9.54
9.07
8.42
7.72
7.16
6.84
6.74
6.69
6.39
5.61
4.22
2.31
0.06
-2.24
-4.34
-6.06
-7.37
-8.34
-9.14
-10.01
-11.12
-12.56
-14.28
-16.22
-18.24
-20.25
-22.07
-23.39
-23.75
-22.67
-19.84
-15.24
-9.29
-2.65
3.94
9.85
14.71
18.39
20.89
22.30
22.69
22.14
20.76
18.72
16.24
13.58
11.02
8.85
7.30
6.44
6.20
6.38
6.70
6.93
6.95
6.72
6.30
5.73
4.99
4.05
2.90
1.60
0.29
-0.89
-1.88
-2.75
-3.61
-4.60
-5.75
-7.03
-8.36
-9.72
-11.23
-13.06
-15.32
-17.95
-20.60
-22.73
-23.77
-23.28
-21.08
-17.25
-12.10
-6.06
0.39
6.66
12.19
16.52
19.43
21.06
21.81
22.15
22.45
22.78
22.97
22.71
21.83
20.30
18.29
16.02
13.64
11.26
8.89
6.52
4.25
2.19
0.48
-0.80
-1.73
-2.51
-3.46
-4.79
-6.59
-8.72
-10.90
-12.81
-14.25
-15.16
-15.63
-15.79
-15.82
-15.88
-16.09
-16.58
-17.40
-18.57
-20.03
-21.63
-23.12
-24.12
-24.19
-22.87
-19.90
-15.29
-9.38
-2.83
3.67
9.55
14.46
18.34
21.22
23.14
24.14
24.24
23.53
22.17
20.36
18.32
16.26
14.35
12.75
11.57
10.85
10.57
10.66
10.98
11.40
11.75
11.89
11.68
11.02
9.85
8.23
6.23
4.03
1.79
-0.31
-2.16
-3.76
-5.24
-6.84
-8.81
-11.32
-14.36
-17.76
-21.29
-24.77
-28.06
-31.01
-33.33
-34.55
-34.11
-31.62
-27.06
-20.87
-13.87
-6.98
-0.94
3.90
7.56
10.28
12.29
13.69
14.42
14.40
13.69
12.50
11.17
10.02
9.22
8.76
8.50
8.34
8.20
8.07
7.90
7.57
6.88
5.71
4.07
2.16
0.29
-1.26
-2.33
-2.93
-3.27
-3.61
-4.19
-5.14
-6.43
-7.90
-9.35
-10.62
-11.72
-12.78
-14.01
-15.55
-17.41
-19.37
-21.17
-22.43
-22.85
-22.18
-20.25
-16.98
-12.40
-6.75
-0.45
5.89
11.66
16.40
19.92
22.33
23.97
25.13
25.94
26.31
26.00
24.92
23.22
21.32
19.77
19.02
19.20
20.13
21.41
22.58
23.34
23.49
23.05
22.11
20.81
19.33
17.76
16.07
14.13
11.79
8.95
5.74
2.39
-0.79
-3.65
-6.23
-8.76
-11.43
-14.33
-17.34
-20.35
-23.31
-26.36
-29.68
-33.30
-36.89
-39.76
-41.08
-40.25
-37.18
-32.38
-26.69
-21.01
-15.97
-11.76
-8.31
-5.41
-2.92
-0.88
0.58
1.37
1.54
1.27
0.88
0.64
0.75
1.19
1.86
2.60
3.26
3.80
4.25
4.65
5.00
5.25
5.30
5.08
4.57
3.86
2.99
2.06
1.07
-0.04
-1.30
-2.75
-4.34
-5.93
-7.39
-8.66
-9.80
-11.02
-12.56
-14.55
-16.90
-19.27
-21.13
-21.97
-21.37
-19.19
-15.52
-10.66
-5.04
0.84
6.48
11.44
15.40
18.22
19.91
20.63
20.66
20.23
19.54
18.67
17.68
16.60
15.49
14.38
13.31
12.31
11.39
10.60
9.95
9.45
9.02
8.54
7.85
6.84
5.53
4.07
2.69
1.60
0.85
0.32
-0.28
-1.25
-2.76
-4.76
-6.94
-8.96
-10.56
-11.75
-12.79
-14.02
-15.67
-17.71
-19.90
-21.85
-23.19
-23.57
-22.75
-20.54
-16.93
-12.10
-6.47
-0.61
4.88
9.59
13.30
16.02
17.86
18.93
19.30
19.05
18.21
16.95
15.45
13.95
12.70
11.89
11.64
11.90
12.52
13.23
13.73
13.75
13.16
12.00
10.45
8.77
7.16
5.76
4.60
3.64
2.80
2.01
1.17
0.15
-1.17
-2.88
-4.91
-7.05
-8.99
-10.49
-11.42
-11.90
-12.25
-12.80
-13.81
-15.33
-17.11
-18.74
-19.69
-19.51
-17.96
-15.01
-10.86
-5.88
-0.54
4.67
9.30
12.98
15.48
16.80
17.11
16.73
15.93
14.88
13.59
12.00
10.09
8.00
6.04
4.55
3.82
3.86
4.44
5.21
5.79
5.94
5.57
4.79
3.79
2.72
1.68
0.69
-0.30
-1.36
-2.45
-3.53
-4.56
-5.53
-6.51
-7.58
-8.80
-10.12
-11.43
-12.67
-13.83
-15.02
-16.32
-17.66
-18.69
-18.91
-17.89
-15.43
-11.74
-7.33
-2.83
1.28
4.81
7.78
10.29
12.40
13.97
14.81
14.81
14.03
12.75
11.33
10.12
9.32
8.94
8.91
9.08
9.33
9.59
9.75
9.78
9.66
9.38
8.98
8.46
7.78
6.87
5.65
4.13
2.42
0.72
-0.77
-1.90
-2.69
-3.28
-3.88
-4.71
-5.88
-7.35
-9.03
-10.78
-12.55
-14.40
-16.38
-18.39
-20.12
-21.04
-20.64
-18.62
-15.11
-10.62
-5.81
-1.29
2.65
6.01
8.93
11.48
13.58
15.01
15.50
14.99
13.73
12.11
10.61
9.53
8.85
8.33
7.60
6.45
4.90
3.21
1.72
0.63
-0.03
-0.47
-0.92
-1.53
-2.25
-2.95
-3.42
-3.60
-3.59
-3.64
-4.00
-4.80
-6.00
-7.35
-8.56
-9.42
-9.87
-10.02
-10.10
-10.37
-10.97
-11.95
-13.18
-14.42
-15.32
-15.49
-14.61
-12.47
-9.15
-4.94
-0.39
3.86
7.30
9.61
10.76
10.97
10.57
9.90
9.18
8.49
7.84
7.21
6.64
6.19
5.97
6.04
6.35
6.76
7.08
7.14
6.89
6.41
5.84
5.36
5.06
4.89
4.75
4.52
4.13
3.58
2.87
1.95
0.73
-0.82
-2.67
-4.61
-6.42
-7.96
-9.25
-10.45
-11.78
-13.31
-14.93
-16.34
-17.14
-17.03
-15.85
-13.62
-10.55
-6.95
-3.16
0.49
3.82
6.71
9.13
11.01
12.27
12.79
12.59
11.81
10.72
9.59
8.60
7.81
7.19
6.72
6.46
6.47
6.71
7.02
7.11
6.72
5.80
4.46
3.04
1.84
1.03
0.54
0.17
-0.34
-1.12
-2.15
-3.32
-4.48
-5.56
-6.55
-7.51
-8.46
-9.45
-10.50
-11.65
-12.88
-14.10
-15.09
-15.51
-15.03
-13.43
-10.70
-7.04
-2.80
1.63
5.86
9.65
12.88
15.55
17.76
19.60
21.07
22.10
22.56
22.38
21.66
20.65
19.76
19.33
19.53
20.28
21.32
22.33
23.07
23.51
23.72
23.83
23.84
23.57
22.79
21.28
18.99
16.04
12.67
9.08
5.35
1.51
-2.44
-6.44
-10.36
-14.08
-17.58
-20.97
-24.39
-27.96
-31.63
-35.18
-38.25
-40.41
-41.28
-40.60
-38.30
-34.54
-29.71
-24.33
-18.95
-14.03
-9.86
-6.52
-4.01
-2.26
-1.22
-0.83
-0.97
-1.50
-2.23
-2.96
-3.58
-4.07
-4.43
-4.66
-4.73
-4.57
-4.16
-3.58
-2.96
-2.46
-2.17
-2.07
-2.11
-2.25
-2.55
-3.08
-3.94
-5.16
-6.67
-8.33
-10.00
-11.57
-13.01
-14.37
-15.70
-17.04
-18.32
-19.41
-20.11
-20.16
-19.39
-17.71
-15.18
-11.94
-8.22
-4.27
-0.34
3.30
6.41
8.86
10.61
11.73
12.31
12.42
12.13
11.53
10.73
9.91
9.26
8.88
8.74
8.70
8.58
8.22
7.60
6.83
6.12
5.62
5.39
5.27
5.00
4.36
3.23
1.74
0.15
-1.34
-2.61
-3.70
-4.77
-5.89
-7.07
-8.22
-9.30
-10.30
-11.33
-12.45
-13.58
-14.45
-14.65
-13.77
-11.56
-8.10
-3.77
0.85
5.15
8.66
11.23
12.92
13.96
14.53
14.71
14.50
13.85
12.80
11.51
10.18
8.99
8.06
7.45
7.19
7.32
7.78
8.44
8.97
9.02
8.35
6.87
4.81
2.54
0.46
-1.18
-2.30
-3.00
-3.47
-3.90
-4.45
-5.29
-6.53
-8.23
-10.29
-12.51
-14.66
-16.47
-17.82
-18.67
-19.00
-18.79
-17.84
-15.94
-12.97
-9.00
-4.38
0.38
4.74
8.38
11.19
13.25
14.67
15.47
15.60
15.07
14.06
12.91
12.04
11.67
11.75
12.03
12.16
11.96
11.49
10.91
10.44
10.09
9.76
9.26
8.51
7.55
6.54
5.54
4.58
3.56
2.36
0.96
-0.53
-1.94
-3.13
-4.06
-4.87
-5.74
-6.88
-8.37
-10.18
-12.07
-13.71
-14.74
-14.89
-14.03
-12.21
-9.57
-6.29
-2.63
1.09
4.52
7.29
9.23
10.39
11.07
11.64
12.33
13.10
13.64
13.63
12.97
11.87
10.77
10.04
9.83
9.93
9.95
9.47
8.32
6.63
4.76
3.20
2.45
2.86
4.61
7.66
11.74
16.40
21.08
25.17
28.14
29.60
29.31
27.21
23.32
17.74
10.63
2.29
-6.80
-15.95
-24.33
-31.15
-35.91
-38.40
-38.77
-37.40
-34.68
-30.94
-26.50
-21.64
-16.78
-12.37
-8.72
-5.88
-3.54
-1.15
1.83
5.59
9.83
13.82
16.72
17.94
17.43
15.66
13.36
11.20
9.47
8.14
7.03
6.02
5.12
4.45
3.97
3.49
2.72
1.46
-0.24
-2.09
-3.65
-4.57
-4.65
-3.91
-2.52
-0.70
1.25
2.98
4.12
4.40
3.72
2.25
0.34
-1.60
-3.24
-4.30
-4.64
-4.19
-2.98
-1.11
1.27
3.91
6.55
8.93
10.74
11.74
11.81
10.98
9.55
7.99
6.80
6.26
6.36
6.68
6.61
5.58
3.20
-0.55
-5.37
-10.68
-15.74
-19.77
-22.13
-22.37
-20.35
-16.27
-10.58
-3.96
2.85
9.20
14.71
19.40
23.55
27.47
31.10
33.84
34.57
32.05
25.44
14.66
0.61
-15.11
-30.59
-44.04
-54.03
-59.69
-60.73
-57.40
-50.42
-40.87
-30.06
-19.38
-10.19
-3.60
-0.33
-0.50
-3.48
-8.06
-12.65
-15.78
-16.44
-14.34
-9.85
-3.79
2.91
9.43
15.14
19.74
23.16
25.60
27.46
29.12
30.85
32.59
34.01
34.65
34.30
33.13
31.70
30.68
30.53
31.20
32.20
32.82
32.45
30.89
28.38
25.52
23.00
21.34
20.77
21.08
21.73
21.98
21.09
18.47
13.72
6.69
-2.60
-13.79
-26.13
-38.38
-48.94
-56.27
-59.27
-57.60
-51.71
-42.63
-31.65
-20.09
-9.29
-0.52
5.21
7.51
6.96
5.10
3.96
5.22
9.39
15.63
22.07
26.70
28.29
26.71
22.68
17.16
10.73
3.38
-5.10
-14.57
-24.27
-32.81
-38.77
-41.35
-40.77
-38.19
-35.23
-33.31
-33.16
-34.66
-37.00
-38.91
-38.99
-36.00
-29.11
-18.19
-3.95
12.14
28.19
42.31
53.12
59.98
62.95
62.53
59.38
54.07
47.06
38.71
29.36
19.43
9.48
0.30
-7.23
-12.24
-14.28
-13.58
-11.22
-8.82
-8.14
-10.38
-15.78
-23.66
-32.70
-41.56
-49.37
-55.81
-60.88
-64.48
-66.18
-65.32
-61.43
-54.61
-45.66
-35.86
-26.50
-18.61
-12.84
-9.62
-9.06
-10.64
-12.84
-13.04
-8.25
3.67
22.71
46.19
69.46
87.54
97.01
97.01
88.99
75.57
59.17
41.36
22.90
4.50
-12.61
-26.57
-35.51
-38.28
-35.17
-27.92
-19.21
-11.74
-7.27
-6.21
-7.60
-9.76
-10.99
-10.24
-7.23
-2.12
4.93
13.92
24.74
36.55
47.59
55.64
59.13
58.06
54.22
50.11
47.35
45.51
42.34
35.24
23.23
7.88
-7.21
-18.37
-23.83
-24.49
-23.17
-22.77
-24.65
-28.12
-31.26
-32.45
-31.46
-29.66
-29.18
-31.62
-37.06
-43.97
-49.94
-52.77
-51.50
-46.64
-39.81
-32.82
-27.04
-23.13
-21.27
-21.43
-23.38
-26.37
-28.97
-29.08
-24.71
-15.04
-1.10
14.29
27.57
35.89
38.17
35.21
28.88
21.05
12.80
4.48
-3.77
-11.38
-17.28
-20.36
-20.21
-17.53
-13.95
-11.50
-11.77
-15.34
-21.62
-28.89
-34.65
-36.21
-31.46
-19.65
-1.82
19.49
41.10
60.29
75.49
86.25
92.47
93.71
89.07
77.81
60.33
38.71
16.26
-3.65
-18.94
-29.36
-36.24
-41.41
-46.22
-50.94
-55.07
-57.85
-58.97
-58.88
-58.58
-59.16
-61.28
-64.73
-68.42
-70.68
-69.86
-65.02
-56.33
-45.14
-33.59
-24.00
-18.25
-17.25
-20.68
-26.99
-33.56
-37.23
-34.95
-24.69
-6.29
18.16
44.72
68.67
86.07
94.87
95.38
89.66
80.34
69.64
58.82
48.42
38.65
29.73
21.90
15.10
8.85
2.41
-4.67
-12.23
-19.37
-24.76
-27.02
-25.06
-18.29
-6.64
9.27
28.24
48.58
68.58
86.84
102.45
114.70
122.69
125.10
120.59
108.56
90.00
67.60
44.96
25.31
10.24
-0.61
-8.96
-16.82
-25.54
-35.34
-45.60
-55.36
-63.78
-70.45
-75.41
-79.14
-82.44
-86.18
-90.89
-96.40
-101.67
-105.09
-105.09
-100.81
-92.44
-81.14
-68.66
-56.98
-48.07
-43.50
-43.79
-47.66
-51.68
-50.93
-40.80
-19.23
11.76
46.43
77.55
99.38
109.94
111.24
107.57
102.95
99.20
95.70
90.57
82.39
71.21
58.47
46.15
35.67
27.46
21.02
15.48
10.20
5.05
0.47
-2.68
-3.51
-1.32
3.98
11.78
20.73
29.02
34.76
36.50
33.48
25.79
14.18
-0.14
-15.64
-30.68
-43.50
-52.49
-56.54
-55.35
-49.65
-41.09
-31.82
-23.96
-19.10
-18.11
-21.09
-27.58
-36.68
-47.20
-57.73
-66.89
-73.67
-77.66
-79.20
-79.17
-78.62
-78.29
-78.34
-78.19
-76.62
-72.24
-64.02
-51.74
-36.26
-19.50
-3.98
7.88
14.59
16.31
14.97
13.71
15.81
23.29
36.15
52.23
68.02
79.85
85.16
83.05
74.43
61.41
46.70
32.94
22.22
15.82
14.01
16.16
20.96
26.84
32.36
36.50
38.61
38.37
35.73
30.85
24.17
16.35
8.13
0.08
-7.50
-14.42
-20.55
-25.47
-28.56
-29.23
-27.32
-23.34
-18.48
-14.13
-11.33
-10.37
-10.68
-11.25
-11.18
-10.24
-9.03
-8.61
-9.97
-13.37
-18.17
-23.00
-26.24
-26.56
-23.27
-16.39
-6.55
5.17
17.40
28.59
37.26
42.31
43.32
40.79
36.01
30.72
26.59
24.85
26.05
29.98
35.74
41.93
46.92
49.23
48.05
43.64
37.37
31.38
27.65
27.11
29.18
31.93
33.15
31.47
27.05
21.34
16.22
13.03
12.11
13.03
15.01
17.29
18.98
18.95
15.89
8.81
-2.12
-15.15
-27.17
-34.83
-35.85
-29.94
-18.92
-5.94
5.76
13.85
17.47
17.06
13.76
8.87
3.42
-1.85
-6.27
-9.14
-9.80
-8.01
-4.15
0.84
5.95
10.63
15.00
19.73
25.33
31.71
37.86
42.34
43.78
41.59
36.04
28.21
19.53
11.28
4.16
-2.03
-8.45
-16.82
-28.70
-44.50
-62.87
-80.87
-95.02
-102.66
-102.78
-96.10
-84.07
-67.97
-48.48
-26.14
-2.27
20.50
38.72
49.36
51.26
45.74
35.98
25.53
16.70
10.01
4.64
-0.46
-5.58
-10.12
-13.04
-13.67
-12.13
-9.24
-5.90
-2.57
0.75
4.12
7.01
8.08
5.46
-2.38
-15.78
-33.47
-52.81
-70.57
-83.88
-90.90
-91.13
-85.45
-75.68
-64.09
-52.71
-42.82
-34.58
-27.24
-19.77
-11.73
-3.97
1.44
1.90
-4.46
-17.63
-35.28
-53.00
-65.48
-68.02
-58.15
-36.70
-7.75
22.55
48.16
65.21
73.38
75.39
75.41
76.83
80.84
86.30
90.79
92.04
88.93
81.71
71.64
60.35
49.36
39.62
31.16
23.09
14.09
3.25
-9.13
-21.34
-31.05
-36.63
-38.08
-37.05
-35.78
-35.72
-36.80
-37.86
-37.84
-36.86
-36.41
-38.34
-43.58
-51.29
-59.14
-64.48
-65.58
-62.36
-56.18
-49.06
-42.86
-38.68
-36.73
-36.45
-36.78
-36.41
-34.21
-29.54
-22.45
-13.62
-4.12
5.04
13.18
20.02
25.62
30.11
33.55
35.72
36.15
34.17
29.30
21.66
12.23
2.75
-4.75
-8.70
-8.57
-4.92
0.88
7.33
13.21
17.86
20.96
22.40
22.05
19.71
15.26
8.79
0.90
-7.31
-14.31
-18.54
-18.98
-15.60
-9.52
-2.58
3.27
6.68
7.37
5.96
3.64
1.59
0.64
1.02
2.32
3.68
3.99
2.36
-1.42
-6.60
-11.50
-14.18
-13.23
-8.48
-1.16
6.52
12.36
15.03
14.46
11.72
8.26
5.25
3.07
1.44
-0.16
-1.90
-3.19
-2.88
0.20
6.21
13.89
20.64
23.74
21.68
15.28
7.52
2.26
2.35
8.14
17.32
25.97
30.52
29.25
22.84
13.76
4.85
-1.85
-5.70
-7.21
-7.37
-6.90
-5.79
-3.51
0.56
6.50
13.58
20.46
25.75
28.68
29.45
29.07
28.72
29.12
30.18
31.17
31.20
29.78
27.00
23.27
18.79
13.32
6.33
-2.38
-12.17
-21.49
-28.48
-31.98
-32.27
-31.24
-31.55
-35.46
-43.68
-55.03
-66.91
-76.41
-81.32
-80.86
-75.67
-67.24
-57.37
-47.68
-39.30
-32.95
-29.02
-27.54
-28.14
-29.94
-31.65
-31.88
-29.51
-24.00
-15.54
-4.90
6.77
18.19
28.17
35.91
41.19
44.47
46.77
49.22
52.50
56.43
59.92
61.56
60.22
55.79
49.27
42.31
36.57
33.07
32.02
32.93
35.07
37.74
40.35
42.38
43.18
42.10
38.63
32.76
25.10
16.80
9.28
3.80
1.18
1.52
4.14
7.70
10.54
11.19
8.83
3.65
-3.28
-10.50
-16.81
-21.63
-24.80
-26.22
-25.58
-22.66
-17.90
-12.51
-7.87
-4.45
-1.15
4.22
13.30
25.46
37.34
44.16
42.28
31.51
15.36
-0.61
-11.71
-16.28
-15.91
-13.89
-13.05
-14.41
-17.24
-20.15
-22.33
-23.99
-25.98
-28.96
-32.72
-36.16
-37.76
-36.42
-32.01
-25.36
-17.85
-10.68
-4.38
1.31
6.99
13.01
18.99
23.78
26.02
24.74
19.90
12.44
3.89
-4.20
-10.76
-15.36
-18.03
-19.07
-18.76
-17.41
-15.42
-13.38
-11.97
-11.72
-12.73
-14.57
-16.36
-17.11
-16.19
-13.72
-10.66
-8.46
-8.53
-11.51
-16.81
-22.70
-26.95
-27.71
-24.31
-17.45
-8.82
-0.35
6.43
10.74
12.48
12.13
10.52
8.90
8.75
11.39
17.35
26.00
35.58
43.84
48.97
50.32
48.37
44.18
38.72
32.42
25.35
17.57
9.46
1.77
-4.65
-9.18
-11.53
-11.78
-10.19
-7.24
-3.73
-0.79
0.29
-1.50
-6.36
-13.40
-20.88
-26.77
-29.44
-28.26
-23.68
-16.82
-8.98
-1.15
6.03
12.17
16.78
19.26
19.15
16.42
11.69
6.09
0.81
-3.29
-5.99
-7.58
-8.48
-9.01
-9.33
-9.58
-10.05
-11.22
-13.44
-16.69
-20.36
-23.39
-24.70
-23.53
-19.80
-14.03
-7.12
-0.05
6.34
11.40
14.71
16.10
15.69
13.91
11.38
8.83
6.85
5.86
5.96
7.03
8.76
10.79
12.80
14.57
16.04
17.26
18.39
19.62
21.05
22.56
23.85
24.47
24.02
22.38
19.83
17.09
14.96
13.95
14.03
14.50
14.37
12.82
9.55
4.94
-0.20
-4.99
-8.84
-11.66
-13.84
-16.06
-19.07
-23.37
-29.08
-35.77
-42.58
-48.47
-52.58
-54.41
-53.82
-50.96
-45.98
-39.11
-30.67
-21.23
-11.52
-2.25
6.10
13.41
19.72
24.98
28.88
31.05
31.38
30.30
28.75
27.74
27.88
29.05
30.56
31.55
31.45
30.11
27.75
24.60
20.84
16.59
12.11
7.94
4.75
3.01
2.63
2.84
2.46
0.51
-3.32
-8.38
-13.36
-16.91
-18.29
-17.61
-15.67
-13.38
-11.31
-9.46
-7.55
-5.41
-3.13
-1.12
0.24
0.72
0.36
-0.80
-2.79
-5.72
-9.57
-13.95
-18.17
-21.43
-23.29
-23.79
-23.38
-22.54
-21.52
-20.24
-18.43
-15.89
-12.62
-8.81
-4.75
-0.80
2.64
5.10
6.10
5.41
3.29
0.56
-1.62
-2.28
-1.03
1.78
5.24
8.42
10.78
12.36
13.58
14.80
16.00
16.78
16.67
15.60
14.17
13.39
14.08
16.18
18.61
19.78
18.71
15.77
12.71
11.77
14.33
20.03
26.76
31.77
32.90
29.52
22.58
13.94
5.48
-1.45
-6.23
-8.78
-9.39
-8.66
-7.47
-6.87
-7.89
-11.26
-17.22
-25.38
-34.64
-43.27
-49.29
-50.97
-47.54
-39.55
-28.82
-17.65
-8.00
-0.85
3.99
7.44
10.49
13.73
17.29
21.06
25.10
29.68
35.05
41.10
47.25
52.62
56.50
58.62
59.39
59.82
60.87
62.83
65.03
65.93
63.86
57.73
47.69
35.07
22.29
11.41
3.25
-2.82
-8.25
-14.18
-20.81
-27.38
-32.57
-34.63
-32.69
-27.44
-20.77
-14.80
-10.92
-9.50
-10.16
-12.17
-13.76
-13.63
-11.76
-9.27
-7.42
-6.71
-6.71
-6.42
-4.59
1.39
13.66
32.64
56.65
82.66
107.33
127.60
141.08
138.18
114.47
74.52
30.28
-7.05
-32.72
-47.72
-55.37
-58.84
-60.04
-58.50
-53.68
-46.36
-38.74
-33.04
-30.17
-29.61
-30.08
-30.38
-28.86
-24.86
-19.20
-13.76
-10.26
-9.29
-10.43
-12.74
-15.47
-17.60
-18.85
-19.88
-22.04
-26.49
-33.43
-41.86
-49.76
-54.74
-54.50
-48.04
-36.21
-21.38
-6.51
6.10
15.35
21.43
25.21
27.76
29.66
30.91
31.27
30.69
29.56
28.49
28.16
28.98
30.93
33.63
36.36
38.41
39.01
38.56
37.08
34.87
32.36
30.00
28.13
26.73
25.49
23.90
21.54
18.08
13.65
8.70
3.77
-0.53
-3.82
-5.81
-6.47
-5.91
-4.54
-2.71
-0.69
1.40
3.61
5.93
8.26
10.35
11.91
12.69
12.64
11.87
10.56
9.00
7.46
6.35
6.07
6.84
8.61
10.90
13.10
14.53
14.90
14.23
12.97
11.58
10.41
9.56
8.88
8.07
6.90
5.22
3.02
0.38
-2.56
-5.73
-9.06
-12.47
-15.86
-19.02
-21.77
-23.97
-25.64
-26.96
-28.15
-29.34
-30.55
-31.60
-32.30
-32.60
-32.65
-32.71
-32.98
-33.49
-33.91
-33.76
-32.63
-30.36
-27.23
-23.78
-20.58
-17.99
-16.12
-14.87
-14.13
-13.88
-14.12
-14.91
-16.17
-17.71
-19.32
-20.73
-21.73
-22.16
-21.95
-21.16
-19.93
-18.48
-17.03
-15.71
-14.54
-13.50
-12.59
-11.79
-11.18
-10.85
-10.82
-11.08
-11.58
-12.32
-13.30
-14.53
-15.91
-17.22
-18.04
-17.83
-16.17
-12.87
-8.13
-2.54
3.11
8.02
11.62
13.66
14.17
13.45
11.88
9.90
7.91
6.17
4.89
4.05
3.60
3.46
3.56
3.87
4.26
4.56
4.51
3.97
3.00
1.80
0.66
-0.32
-1.25
-2.41
-4.01
-5.98
-8.03
-9.83
-11.34
-12.94
-15.17
-18.35
-22.14
-25.56
-27.35
-26.54
-22.93
-17.14
-10.23
-3.35
2.72
7.55
10.98
12.91
13.32
12.42
10.60
8.46
6.58
5.24
4.36
3.56
2.47
0.92
-0.92
-2.67
-3.86
-4.21
-3.74
-2.74
-1.62
-0.82
-0.66
-1.32
-2.86
-5.17
-7.90
-10.66
-13.03
-14.82
-16.10
-17.27
-18.76
-20.93
-23.83
-27.17
-30.39
-32.78
-33.63
-32.31
-28.44
-22.10
-13.98
-5.21
2.96
9.59
14.46
17.93
20.69
23.10
25.02
25.89
25.24
23.10
20.14
17.33
15.40
14.41
13.79
12.69
10.61
7.60
4.28
1.29
-0.95
-2.52
-3.79
-5.17
-6.86
-8.84
-11.00
-13.26
-15.61
-17.95
-20.17
-22.04
-23.40
-24.30
-24.91
-25.53
-26.43
-27.83
-29.84
-32.44
-35.39
-38.13
-39.78
-39.31
-36.04
-29.85
-21.50
-12.23
-3.34
4.25
10.31
15.10
19.06
22.35
24.76
25.88
25.41
23.53
20.83
18.13
15.97
14.58
13.73
13.10
12.53
12.08
12.00
12.47
13.42
14.47
15.17
15.18
14.42
13.07
11.42
9.77
8.28
6.99
5.79
4.63
3.44
2.30
1.32
0.61
0.20
-0.11
-0.65
-1.78
-3.62
-5.81
-7.53
-7.60
-4.89
1.26
10.77
22.91
36.58
50.73
64.72
78.32
91.59
104.56
116.68
127.40
136.49
144.22
151.24
158.43
166.74
177.03
189.71
204.16
219.10
232.63
242.49
246.35
242.77
231.92
215.84
197.70
179.60
162.46
145.62
127.09
104.24
75.33
40.61
2.35
-36.32
-74.94
-113.37
-151.03
-187.44
-223.35
-260.75
-301.89
-348.11
-398.71
-454.56
-511.25
-558.68
-585.77
-586.70
-563.07
-521.68
-470.77
-416.59
-368.90
-330.16
-294.69
-254.64
-207.69
-158.73
-116.63
-90.44
-86.49
-115.98
-179.97
-265.97
-354.16
-427.92
-478.44
-504.10
-508.41
-438.64
-284.96
-88.04
94.14
230.10
318.28
369.41
394.82
403.48
402.38
387.94
360.21
326.40
296.26
274.94
261.91
254.46
250.16
247.59
238.35
217.83
188.52
157.17
129.53
108.26
94.14
86.79
85.35
83.68
78.08
69.73
62.62
59.51
60.37
63.56
67.19
70.67
72.03
70.83
68.44
66.28
64.15
60.47
54.02
41.92
24.96
5.13
-14.44
-30.49
-41.02
-46.05
-47.19
-46.50
-45.55
-44.40
-42.58
-39.59
-35.30
-30.20
-25.08
-20.80
-17.88
-16.55
-16.48
-17.67
-20.52
-25.61
-33.28
-43.11
-53.76
-63.25
-69.82
-72.40
-71.47
-68.86
-67.03
-67.95
-72.41
-79.66
-87.80
-94.57
-98.06
-97.26
-92.01
-82.54
-68.91
-50.70
-27.16
2.46
38.15
78.72
121.44
162.34
196.89
220.97
231.94
229.22
214.57
191.33
163.64
135.19
108.57
85.16
65.46
49.64
37.84
30.08
26.03
24.92
25.57
26.70
27.24
26.50
24.13
20.06
14.44
7.45
-0.64
-9.66
-19.62
-30.68
-43.01
-56.44
-70.38
-83.85
-95.84
-105.91
-114.28
-121.70
-128.75
-135.45
-140.86
-143.45
-141.64
-134.40
-121.58
-103.77
-82.07
-57.78
-32.32
-7.25
15.61
34.32
47.19
53.14
52.22
45.78
36.34
27.15
21.39
21.32
27.56
39.10
53.79
69.45
84.81
99.87
115.37
131.68
147.88
161.42
169.03
168.05
157.65
139.09
115.13
88.93
63.25
40.39
22.47
11.68
9.62
16.30
29.35
44.29
56.03
60.84
57.70
48.25
35.30
21.08
6.16
-9.97
-27.47
-44.60
-57.47
-61.36
-53.08
-33.00
-5.64
21.83
42.25
51.11
48.01
36.18
20.58
5.74
-5.68
-13.05
-16.95
-18.04
-16.49
-11.89
-3.99
6.78
18.99
30.52
39.28
43.98
44.47
41.56
36.38
29.62
21.16
10.26
-3.81
-21.03
-40.35
-59.95
-77.94
-93.17
-105.46
-115.22
-122.57
-126.68
-125.66
-117.33
-100.44
-75.61
-45.37
-13.36
17.11
44.05
66.83
85.43
99.59
108.53
111.56
108.87
102.07
93.45
84.90
76.73
67.66
55.81
40.16
21.42
1.87
-15.79
-29.71
-39.45
-45.71
-49.64
-52.24
-54.38
-56.88
-60.53
-65.55
-71.04
-74.74
-73.66
-65.48
-49.94
-29.41
-8.29
8.64
18.11
19.50
14.79
7.49
1.13
-1.77
-0.21
5.62
14.87
26.40
39.03
51.50
62.37
70.15
73.53
71.77
64.99
54.16
40.94
27.16
14.48
4.07
-3.33
-7.23
-7.20
-2.82
5.91
18.22
32.16
44.77
52.82
53.65
46.17
31.25
11.54
-9.39
-28.18
-42.69
-52.53
-58.83
-63.51
-68.26
-73.84
-79.87
-85.23
-88.72
-89.55
-87.52
-82.85
-75.89
-66.91
-56.11
-43.77
-30.33
-16.45
-2.91
9.59
20.57
30.00
38.33
46.46
55.49
66.20
78.49
91.20
102.34
109.93
113.05
112.52
110.75
110.78
114.81
122.90
132.50
139.08
137.64
124.65
99.53
65.01
26.35
-10.28
-39.51
-57.91
-64.22
-58.96
-44.03
-22.39
1.94
24.26
40.03
46.36
43.07
32.85
20.22
9.61
3.79
3.16
6.38
11.55
17.10
22.01
25.42
26.20
23.08
15.19
2.81
-12.46
-28.19
-42.17
-53.33
-61.97
-69.03
-74.90
-78.74
-78.68
-73.06
-61.88
-47.42
-33.59
-24.07
-20.39
-21.08
-22.39
-20.40
-13.15
-1.73
10.38
19.18
22.28
20.14
15.85
13.70
17.38
28.53
46.22
67.22
86.88
100.14
102.62
91.74
67.67
33.84
-3.48
-36.58
-58.60
-65.44
-56.81
-35.87
-7.97
20.95
45.44
61.11
64.98
55.93
35.12
6.14
-25.64
-54.48
-75.90
-87.98
-91.54
-89.39
-84.98
-81.17
-79.47
-79.95
-81.48
-82.27
-80.32
-74.03
-62.58
-46.33
-26.89
-6.60
12.12
27.62
39.49
48.53
56.14
63.45
70.61
76.66
80.03
79.37
74.33
65.72
55.21
44.58
35.11
27.26
20.90
15.59
10.90
6.49
1.99
-3.02
-8.97
-16.03
-23.99
-32.16
-39.61
-45.46
-49.20
-50.79
-50.60
-49.11
-46.61
-43.14
-38.64
-33.27
-27.74
-23.34
-21.48
-23.15
-28.21
-35.35
-42.39
-47.17
-48.30
-45.58
-39.81
-32.21
-23.80
-15.11
-6.35
2.26
10.09
16.09
19.07
18.12
12.90
3.88
-7.72
-20.10
-31.19
-39.07
-42.48
-41.11
-35.57
-26.89
-16.04
-3.76
8.93
20.19
27.37
28.12
22.00
11.56
1.84
-1.81
3.45
16.49
32.74
46.70
54.71
56.44
54.26
51.26
49.35
48.52
47.41
44.52
38.93
30.34
18.79
4.55
-11.43
-26.81
-37.82
-40.18
-30.87
-9.98
18.53
47.70
69.93
79.92
76.67
63.61
46.80
32.18
23.24
20.19
20.69
21.72
21.26
19.15
16.84
16.46
19.62
26.62
36.33
46.49
54.42
57.60
54.29
44.02
27.92
8.72
-9.83
-23.87
-30.79
-30.05
-23.41
-14.09
-5.18
1.79
7.48
13.98
23.29
35.77
49.42
60.55
65.22
60.87
47.33
26.62
2.10
-22.58
-44.36
-60.98
-70.99
-73.77
-69.83
-60.93
-50.00
-40.39
-34.75
-34.10
-37.35
-41.71
-43.99
-41.92
-35.31
-26.17
-18.06
-14.69
-18.40
-29.18
-44.40
-59.70
-70.73
-74.72
-71.73
-64.39
-56.76
-52.56
-53.76
-60.00
-69.12
-78.29
-84.98
-87.61
-85.57
-78.86
-67.89
-53.51
-37.26
-21.45
-8.94
-2.34
-3.13
-10.77
-22.64
-34.53
-41.84
-40.80
-29.51
-8.38
20.05
51.70
81.67
105.09
117.90
117.54
103.49
77.65
44.00
7.89
-25.28
-51.41
-68.54
-77.07
-79.05
-77.06
-73.25
-68.86
-64.24
-59.30
-53.81
-47.55
-40.21
-31.40
-20.88
-8.93
3.42
14.50
22.53
26.31
25.75
21.84
16.36
11.33
8.54
9.31
14.36
23.59
36.08
50.06
63.09
72.63
76.59
73.96
65.07
51.49
35.70
20.47
8.24
0.58
-2.06
-0.35
4.30
10.22
15.88
19.95
21.32
18.98
12.10
0.42
-15.47
-34.02
-53.05
-70.52
-85.26
-97.34
-107.88
-118.27
-129.31
-140.60
-150.55
-156.87
-157.30
-150.36
-135.79
-114.65
-89.12
-62.07
-36.48
-14.83
1.46
12.37
19.19
24.07
29.24
36.14
44.97
54.61
63.15
68.78
70.60
69.19
66.51
65.29
67.88
75.12
85.79
96.86
104.66
106.43
101.49
91.59
80.20
71.15
67.31
69.65
77.09
86.94
95.63
99.87
97.65
89.01
76.16
62.88
53.02
49.15
51.53
58.20
65.85
71.16
71.80
66.92
56.95
43.31
27.99
13.32
1.67
-5.12
-6.30
-2.82
2.73
6.70
5.46
-3.51
-20.79
-44.85
-72.48
-99.64
-122.65
-139.10
-148.43
-151.86
-151.66
-150.05
-148.14
-145.42
-140.11
-130.20
-114.64
-94.03
-70.45
-46.65
-24.96
-6.71
7.78
18.79
26.70
31.79
34.33
34.76
33.89
32.73
32.27
33.13
35.32
38.16
40.50
40.93
38.35
32.37
23.51
13.24
3.43
-4.17
-8.50
-9.45
-7.66
-4.13
0.16
4.53
8.56
12.01
14.58
16.01
15.95
14.17
10.52
5.02
-2.15
-10.57
-19.61
-28.45
-36.25
-42.45
-46.89
-49.77
-51.55
-52.61
-53.13
-53.19
-52.71
-51.50
-49.06
-44.36
-35.94
-22.36
-3.00
21.16
47.40
71.69
89.99
99.65
100.42
94.48
85.55
77.62
73.56
74.56
80.04
88.28
96.91
103.54
106.17
103.62
95.84
83.96
70.00
56.12
43.81
33.35
23.87
13.96
2.55
-10.62
-24.89
-39.11
-52.19
-63.37
-72.30
-78.96
-83.53
-86.48
-88.54
-90.59
-93.36
-97.11
-101.52
-105.64
-108.34
-108.59
-105.76
-99.61
-90.25
-78.08
-63.77
-48.46
-33.66
-21.07
-12.10
-7.34
-6.28
-7.54
-9.36
-10.16
-8.92
-5.09
1.54
10.93
22.59
35.27
46.89
54.93
57.34
53.44
44.33
32.50
20.88
11.65
5.52
1.70
-1.57
-6.11
-13.13
-22.71
-33.87
-44.81
-53.30
-57.25
-55.19
-46.83
-33.36
-17.48
-2.79
7.27
10.71
7.94
1.74
-3.73
-4.58
1.13
12.69
27.11
40.56
49.81
53.41
51.71
46.43
39.72
33.52
29.17
27.34
28.12
31.10
35.41
39.77
42.69
42.69
38.71
30.52
19.06
6.48
-4.38
-10.78
-11.03
-4.98
5.88
19.15
32.24
43.11
50.63
54.51
55.25
53.86
51.66
49.97
49.70
51.06
53.40
55.45
55.80
53.29
47.42
38.33
26.67
13.42
-0.33
-13.45
-24.84
-33.59
-39.08
-41.22
-40.45
-37.79
-34.60
-32.26
-31.83
-33.79
-37.90
-43.30
-48.82
-53.31
-55.97
-56.55
-55.18
-52.25
-48.11
-43.01
-37.13
-30.68
-23.88
-16.67
-8.28
2.80
18.36
39.45
65.38
93.17
118.12
135.13
140.33
132.31
112.33
83.72
50.71
17.38
-13.04
-38.38
-57.37
-69.53
-75.04
-74.72
-69.95
-62.50
-54.19
-46.53
-40.42
-35.95
-32.57
-29.41
-25.61
-20.67
-14.47
-7.33
0.34
8.24
16.37
25.01
34.37
44.22
53.57
60.96
64.93
64.80
61.11
55.40
49.40
44.25
39.96
35.54
29.81
22.04
12.38
1.53
-9.73
-20.90
-31.72
-41.83
-50.52
-56.69
-59.38
-58.29
-54.04
-48.03
-42.04
-37.73
-36.22
-38.02
-42.96
-50.20
-58.30
-65.45
-69.95
-70.78
-68.13
-63.43
-58.86
-56.43
-57.14
-60.38
-63.99
-64.88
-60.17
-48.27
-29.61
-6.69
16.63
36.32
49.40
54.71
53.03
46.69
38.75
32.11
28.94
30.31
36.10
45.18
55.68
65.37
72.13
74.38
71.37
63.40
51.75
38.36
25.34
14.36
6.16
0.55
-3.26
-5.98
-7.78
-8.27
-6.89
-3.49
1.41
6.75
11.55
15.30
18.18
20.71
23.21
25.34
26.16
24.42
19.16
10.22
-1.59
-14.55
-26.53
-35.52
-40.26
-40.51
-37.14
-31.69
-25.80
-20.74
-17.23
-15.52
-15.69
-17.85
-21.98
-27.79
-34.38
-40.40
-44.43
-45.52
-43.73
-40.25
-37.11
-36.32
-39.15
-45.58
-54.20
-62.71
-68.68
-70.17
-66.27
-57.18
-44.13
-29.08
-14.28
-1.72
7.41
13.08
16.37
18.95
22.48
27.82
34.82
42.48
49.45
54.54
57.07
56.87
54.18
49.43
43.29
36.56
30.18
25.03
21.62
19.96
19.45
19.14
18.09
15.82
12.62
9.52
8.00
9.34
14.08
21.57
30.14
37.52
41.71
41.57
37.18
29.71
20.89
12.51
5.92
1.86
0.50
1.47
3.94
6.75
8.66
8.67
6.33
1.92
-3.68
-9.34
-14.10
-17.51
-19.72
-21.26
-22.90
-25.34
-29.11
-34.47
-41.18
-48.55
-55.49
-60.79
-63.58
-63.66
-61.65
-58.84
-56.67
-56.27
-57.87
-60.79
-63.42
-63.67
-59.37
-48.80
-31.38
-7.91
19.33
47.02
71.74
90.77
102.82
108.09
107.87
103.79
97.16
88.66
78.40
66.46
53.17
39.35
26.10
14.47
5.17
-1.68
-6.49
-10.01
-13.05
-16.09
-19.28
-22.44
-25.37
-27.99
-30.43
-32.79
-34.88
-36.04
-35.29
-31.78
-25.28
-16.47
-6.85
1.87
8.37
12.18
13.66
13.62
12.87
11.90
10.97
10.17
9.61
9.39
9.45
9.60
9.55
9.17
8.71
8.75
9.96
12.67
16.69
21.14
24.76
26.16
24.26
18.57
9.40
-2.16
-14.42
-25.45
-33.64
-37.92
-38.08
-34.48
-27.91
-19.37
-9.95
-0.87
6.60
11.29
12.56
10.52
5.99
0.32
-5.13
-9.38
-12.09
-13.45
-14.08
-14.69
-15.83
-17.81
-20.55
-23.72
-26.77
-29.18
-30.57
-30.91
-30.59
-30.45
-31.50
-34.46
-39.14
-44.01
-46.33
-43.03
-31.88
-12.69
12.44
39.64
64.65
84.07
96.11
100.58
98.22
90.16
77.62
62.01
45.05
28.65
14.49
3.60
-3.83
-8.33
-10.71
-11.70
-11.70
-10.82
-9.08
-6.53
-3.34
0.17
3.52
6.11
7.33
6.81
4.75
2.01
0.03
0.36
4.15
11.72
22.44
35.01
47.77
59.24
68.37
74.71
78.39
79.95
80.09
79.34
77.88
75.48
71.64
65.55
56.19
42.45
23.46
-0.80
-28.94
-58.05
-84.28
-104.04
-115.27
-118.18
-115.03
-109.12
-103.46
-99.72
-97.93
-96.89
-94.90
-90.54
-83.14
-72.86
-60.50
-47.04
-33.39
-20.29
-8.36
1.66
9.00
12.99
13.51
11.21
7.48
3.98
2.15
2.76
5.89
11.23
18.23
26.39
35.16
43.95
52.16
59.36
65.38
70.28
74.08
76.46
76.67
73.77
67.10
56.90
44.45
31.78
20.93
13.10
8.16
4.75
0.96
-4.91
-13.61
-24.79
-37.10
-48.66
-57.55
-62.26
-61.95
-56.78
-47.87
-37.07
-26.53
-18.05
-12.58
-9.99
-9.26
-8.97
-7.78
-4.82
0.22
7.07
15.00
22.93
29.49
33.41
33.82
30.65
24.76
17.70
11.23
6.68
4.65
4.92
6.80
9.44
12.24
14.87
17.16
19.03
20.40
21.31
21.89
22.44
23.20
24.19
25.24
26.06
26.51
26.68
26.87
27.29
27.88
28.12
27.24
24.59
19.98
13.78
6.79
-0.15
-6.43
-11.78
-16.12
-19.42
-21.60
-22.59
-22.45
-21.51
-20.33
-19.56
-19.75
-21.22
-24.04
-28.00
-32.71
-37.71
-42.54
-46.90
-50.65
-53.83
-56.58
-59.06
-61.29
-63.27
-64.87
-65.88
-66.03
-64.97
-62.36
-57.94
-51.67
-43.87
-35.14
-26.28
-18.03
-10.81
-4.58
1.16
7.11
13.80
21.27
28.92
35.68
40.39
42.27
41.21
37.78
33.03
28.17
24.19
21.59
20.34
19.94
19.62
18.62
16.37
12.67
7.67
1.85
-4.11
-9.50
-13.77
-16.64
-18.20
-18.89
-19.29
-19.92
-20.93
-22.06
-22.61
-21.74
-18.67
-13.01
-4.89
5.07
15.81
26.12
34.82
41.05
44.44
45.25
44.23
42.20
39.71
36.82
33.13
28.15
21.69
14.15
6.42
-0.42
-5.57
-8.69
-10.02
-10.03
-9.29
-8.22
-7.15
-6.41
-6.32
-7.18
-9.11
-11.94
-15.18
-18.01
-19.51
-18.97
-16.13
-11.28
-5.21
1.11
6.80
11.34
14.57
16.61
17.63
17.72
16.87
15.05
12.31
8.85
5.04
1.33
-1.86
-4.26
-5.86
-6.89
-7.67
-8.39
-8.96
-9.07
-8.34
-6.75
-4.73
-3.09
-2.69
-3.92
-6.53
-9.64
-12.16
-13.15
-12.21
-9.42
-5.26
-0.30
4.89
9.77
13.81
16.50
17.49
16.81
14.90
12.57
10.66
9.71
9.69
10.05
10.02
9.04
7.02
4.42
1.95
0.15
-0.79
-1.12
-1.28
-1.67
-2.51
-3.89
-5.81
-8.17
-10.70
-12.81
-13.77
-12.79
-9.47
-3.98
2.89
10.01
16.17
20.56
22.79
22.96
21.46
18.80
15.46
11.84
8.28
4.98
2.05
-0.47
-2.66
-4.64
-6.58
-8.67
-11.04
-13.68
-16.49
-19.21
-21.56
-23.40
-24.83
-26.15
-27.66
-29.43
-31.19
-32.31
-32.15
-30.37
-27.09
-22.79
-18.00
-12.99
-7.73
-2.08
3.88
9.71
14.62
17.84
18.94
17.92
15.26
11.58
7.53
3.56
0.07
-2.66
-4.48
-5.37
-5.56
-5.39
-5.18
-5.12
-5.20
-5.31
-5.34
-5.29
-5.09
-4.60
-3.54
-1.65
1.17
4.65
8.31
11.69
14.53
16.87
18.90
20.69
22.09
22.85
22.72
21.70
19.97
17.71
14.93
11.45
7.11
1.96
-3.60
-8.95
-13.47
-16.83
-19.09
-20.49
-21.29
-21.65
-21.48
-20.66
-19.09
-16.77
-13.87
-10.54
-6.86
-2.87
1.38
5.72
9.74
12.89
14.69
14.94
13.90
12.24
10.77
10.13
10.58
11.90
13.59
14.97
15.47
14.68
12.44
8.84
4.27
-0.63
-5.13
-8.53
-10.42
-10.82
-10.14
-9.09
-8.40
-8.55
-9.63
-11.26
-12.72
-13.24
-12.29
-9.76
-5.99
-1.56
2.94
7.10
10.68
13.53
15.49
16.38
16.12
14.74
12.46
9.62
6.59
3.68
1.06
-1.17
-2.94
-4.21
-4.95
-5.21
-5.10
-4.78
-4.48
-4.50
-5.16
-6.68
-9.08
-12.06
-15.01
-17.11
-17.59
-15.98
-12.24
-6.86
-0.71
5.24
10.18
13.69
15.79
16.75
16.96
16.66
15.94
14.76
13.12
11.11
8.90
6.75
4.77
2.97
1.26
-0.44
-2.11
-3.65
-4.95
-5.97
-6.83
-7.81
-9.20
-11.18
-13.62
-16.04
-17.74
-18.10
-16.70
-13.55
-9.05
-3.76
1.74
6.95
11.55
15.30
18.06
19.74
20.35
19.98
18.78
16.96
14.71
12.21
9.66
7.28
5.23
3.62
2.43
1.58
0.98
0.53
0.15
-0.28
-0.92
-1.95
-3.43
-5.29
-7.20
-8.78
-9.59
-9.31
-7.79
-5.08
-1.40
2.92
7.42
11.64
15.11
17.52
18.72
18.73
17.74
15.98
13.68
11.04
8.29
5.61
3.21
1.25
-0.21
-1.18
-1.76
-2.06
-2.22
-2.37
-2.68
-3.38
-4.64
-6.57
-9.05
-11.69
-13.90
-15.00
-14.45
-12.02
-7.79
-2.18
4.20
10.69
16.61
21.40
24.59
25.92
25.37
23.23
20.12
16.73
13.78
11.64
10.38
9.69
9.16
8.39
7.16
5.41
3.19
0.67
-1.97
-4.54
-6.90
-9.04
-11.10
-13.31
-15.76
-18.27
-20.30
-21.15
-20.23
-17.37
-12.94
-7.71
-2.58
1.75
4.85
6.64
7.27
7.00
6.17
5.10
4.05
3.15
2.28
1.20
-0.34
-2.45
-4.97
-7.49
-9.59
-10.99
-11.64
-11.73
-11.55
-11.37
-11.39
-11.76
-12.56
-13.77
-15.15
-16.23
-16.35
-14.88
-11.52
-6.43
-0.24
6.14
11.85
16.29
19.24
20.78
21.19
20.80
19.88
18.65
17.24
15.66
13.86
11.72
9.13
5.99
2.37
-1.49
-5.20
-8.32
-10.46
-11.48
-11.53
-11.05
-10.63
-10.80
-11.89
-13.86
-16.26
-18.37
-19.34
-18.47
-15.41
-10.33
-3.95
2.56
7.92
11.15
11.86
10.43
7.83
5.27
3.78
3.82
5.17
7.20
9.09
10.29
10.67
10.52
10.35
10.57
11.35
12.57
13.91
15.06
15.90
16.48
16.96
17.39
17.71
17.80
17.67
17.54
17.87
19.12
21.68
25.66
30.95
37.18
43.91
50.57
56.51
61.13
64.11
65.54
65.98
66.13
66.68
68.07
70.37
73.33
76.39
78.79
79.70
78.23
73.73
66.29
56.99
47.54
39.23
31.89
23.53
10.96
-8.81
-36.90
-71.23
-106.51
-135.87
-153.44
-156.33
-145.25
-123.80
-97.09
-70.36
-47.82
-32.07
-24.15
-24.24
-31.70
-44.95
-60.40
-72.38
-75.90
-69.76
-56.31
-39.02
-20.99
-4.30
9.73
20.29
26.81
29.02
27.26
22.85
17.76
13.48
10.57
8.63
6.64
3.32
-2.31
-10.27
-19.33
-27.39
-32.98
-35.57
-35.86
-35.63
-37.30
-43.38
-56.04
-76.73
-102.64
-130.49
-155.28
-170.70
-170.61
-151.09
-112.14
-57.92
4.80
69.29
130.77
187.80
241.17
291.78
338.64
378.52
407.28
422.03
422.66
411.54
392.63
369.54
344.29
317.10
287.37
254.85
220.39
185.82
152.93
122.76
95.07
68.58
41.52
12.59
-18.54
-51.34
-84.94
-118.96
-153.63
-189.60
-227.09
-265.04
-300.75
-330.25
-349.48
-355.55
-347.73
-327.42
-297.68
-262.30
-225.14
-189.69
-158.70
-133.80
-114.97
-100.41
-86.88
-70.93
-50.37
-25.34
1.67
26.73
46.24
58.18
62.53
60.90
55.48
48.34
40.81
33.85
28.24
24.51
22.61
21.75
20.66
18.08
13.27
6.11
-2.73
-11.94
-20.11
-26.09
-29.29
-29.77
-28.13
-25.58
-23.99
-24.97
-29.16
-35.97
-44.08
-52.07
-58.93
-64.29
-68.57
-73.79
-81.38
-91.22
-101.88
-111.74
-119.99
-126.62
-131.92
-136.44
-142.93
-152.60
-163.93
-173.32
-177.35
-174.44
-164.66
-148.75
-128.71
-110.82
-99.74
-96.19
-97.11
-98.50
-97.69
-93.33
-84.69
-73.56
-68.31
-75.83
-97.77
-130.15
-167.12
-204.39
-239.53
-271.05
-265.76
-208.20
-109.52
0.29
96.34
169.62
221.23
250.35
266.01
272.86
267.80
248.55
217.02
178.62
142.19
112.35
90.96
78.91
74.34
70.74
63.10
50.72
36.82
25.51
18.70
16.37
17.85
20.83
20.93
15.83
6.70
-2.59
-7.88
-7.05
0.36
13.95
31.70
49.89
64.91
74.27
76.81
72.68
63.09
50.95
40.70
36.50
40.60
52.72
70.09
88.24
102.39
108.64
105.08
92.15
71.75
46.77
20.37
-4.37
-24.84
-39.19
-46.81
-48.35
-45.47
-40.15
-33.97
-27.65
-20.93
-13.07
-3.43
7.95
20.12
31.53
40.46
45.71
47.01
45.18
41.90
39.32
39.42
43.45
51.43
61.83
71.82
77.95
77.30
68.72
53.50
35.11
17.95
5.50
-1.18
-3.89
-6.27
-12.15
-23.55
-39.89
-58.30
-75.04
-86.95
-92.39
-91.26
-84.30
-72.50
-56.78
-38.26
-18.55
0.20
15.73
26.46
32.06
33.40
32.01
29.31
26.01
21.99
16.62
9.28
-0.21
-11.47
-23.58
-35.37
-45.68
-53.72
-59.21
-62.30
-63.39
-62.89
-61.19
-58.78
-56.41
-55.07
-55.70
-58.69
-63.37
-68.05
-70.27
-67.57
-58.03
-40.89
-16.96
11.46
41.01
67.83
88.46
100.63
103.74
99.09
89.25
77.28
65.95
57.40
52.97
53.01
56.84
62.79
68.95
73.30
74.12
70.38
61.99
49.67
34.53
17.78
0.46
-15.37
-27.79
-35.64
-38.80
-37.79
-33.40
-26.48
-17.98
-8.82
2.32
16.60
33.75
51.62
67.38
78.68
84.27
83.92
78.43
72.71
71.42
76.47
86.00
96.42
104.75
109.83
112.34
114.41
123.00
143.80
177.98
221.66
268.83
314.58
356.01
391.70
393.93
345.69
250.88
134.67
25.71
-59.40
-117.69
-154.59
-178.65
-197.61
-212.19
-220.03
-218.67
-207.07
-185.41
-154.93
-119.05
-83.84
-56.76
-41.65
-39.41
-48.55
-65.64
-86.15
-105.81
-122.48
-136.82
-150.73
-164.43
-173.94
-177.94
-176.13
-168.54
-155.61
-138.84
-123.78
-111.37
-100.28
-87.95
-72.28
-52.24
-28.40
-2.97
20.92
39.82
50.25
50.01
40.56
27.03
15.97
11.96
15.50
23.59
31.75
36.87
37.98
36.69
36.87
40.27
46.91
55.06
61.66
63.35
58.08
45.76
28.84
11.11
-3.59
-12.38
-14.01
-8.32
2.94
17.09
31.37
43.72
52.66
57.10
57.00
53.41
48.46
44.49
43.82
47.88
56.29
66.08
72.85
73.06
65.49
51.62
33.85
14.95
-2.79
-18.18
-31.98
-45.61
-59.58
-73.08
-84.19
-92.23
-96.79
-97.29
-93.13
-85.15
-75.53
-66.28
-58.50
-52.12
-48.06
-46.63
-46.89
-39.53
-18.58
13.26
47.41
72.57
89.86
101.08
106.36
105.02
95.54
76.39
45.79
5.95
-36.24
-71.43
-93.90
-102.43
-99.67
-90.62
-81.64
-81.21
-94.38
-120.83
-156.07
-195.97
-236.82
-274.45
-304.09
-302.27
-258.40
-183.04
-100.45
-29.91
21.51
56.01
79.22
95.52
107.28
110.76
102.93
85.24
63.25
42.69
27.21
18.53
17.12
22.46
30.89
39.33
46.84
54.15
61.65
68.75
74.49
78.16
79.62
77.66
72.39
65.86
61.32
61.27
66.34
75.36
86.25
97.05
105.89
112.41
117.80
124.05
132.64
144.04
157.68
172.16
185.47
194.86
197.76
192.51
178.93
158.40
133.50
107.16
81.80
58.66
37.78
18.59
0.56
-16.22
-31.19
-43.73
-53.75
-61.81
-68.80
-75.43
-81.74
-87.15
-91.05
-93.29
-94.57
-96.02
-98.62
-102.40
-106.30
-108.53
-107.25
-101.41
-91.04
-77.24
-61.49
-45.30
-29.78
-15.61
-3.26
6.83
14.22
18.59
19.88
18.42
14.85
9.90
4.32
-1.37
-6.76
-11.58
-15.54
-18.37
-19.82
-19.73
-18.13
-15.26
-11.55
-7.47
-3.44
0.21
3.22
5.26
6.01
5.22
3.04
-0.01
-2.91
-4.67
-4.61
-2.71
0.51
4.20
7.57
10.04
11.17
10.65
8.08
3.25
-3.84
-12.79
-22.93
-33.44
-43.63
-52.93
-61.03
-67.79
-73.28
-77.72
-81.42
-84.64
-87.43
-89.62
-90.85
-90.72
-88.98
-85.50
-80.25
-73.39
-65.20
-56.20
-47.01
-38.01
-29.01
-19.06
-6.68
9.48
29.87
53.59
78.56
102.18
122.36
137.95
148.96
156.02
159.80
160.62
158.47
153.29
145.28
135.09
123.59
111.54
99.30
86.77
73.61
59.53
44.56
29.11
13.85
-0.64
-14.01
-26.32
-37.96
-49.29
-60.49
-71.36
-81.51
-90.53
-98.30
-104.93
-110.51
-114.91
-117.53
-117.58
-114.52
-108.49
-100.46
-91.96
-84.54
-79.06
-75.54
-73.29
-71.36
-69.00
-65.90
-62.02
-57.38
-51.82
-45.06
-36.92
-27.50
-17.31
-7.05
2.65
11.46
19.32
26.22
31.89
35.72
37.04
35.50
31.36
25.47
18.86
12.19
5.53
-1.65
-9.97
-19.59
-29.98
-39.88
-47.76
-52.27
-52.58
-48.48
-40.37
-29.10
-15.78
-1.79
11.55
23.04
31.84
37.52
40.11
39.89
37.39
33.25
28.18
22.92
18.15
14.35
11.57
9.52
7.68
5.60
3.10
0.34
-2.33
-4.70
-6.72
-8.54
-10.40
-12.48
-14.89
-17.82
-21.59
-26.48
-32.53
-39.18
-45.22
-49.11
-49.46
-45.55
-37.54
-26.43
-13.59
-0.43
11.93
22.73
31.50
37.94
41.88
43.38
42.70
40.29
36.73
32.60
28.36
24.30
20.59
17.28
14.44
12.09
10.24
8.72
7.24
5.49
3.26
0.62
-2.24
-5.05
-7.69
-10.26
-13.09
-16.63
-21.24
-27.04
-33.70
-40.41
-45.89
-48.77
-47.91
-42.82
-33.90
-22.27
-9.38
3.37
14.91
24.56
32.02
37.18
40.11
41.08
40.47
38.73
36.28
33.36
30.08
26.51
22.68
18.79
15.07
11.75
8.87
6.35
3.95
1.52
-0.99
-3.47
-5.77
-7.86
-9.94
-12.30
-15.22
-18.79
-22.93
-27.42
-31.94
-36.09
-39.24
-40.56
-39.09
-34.25
-26.01
-15.20
-3.24
8.35
18.36
26.25
32.03
35.96
38.27
38.99
38.10
35.77
32.39
28.59
25.00
22.04
19.75
17.86
15.99
13.84
11.33
8.58
5.85
3.36
1.20
-0.75
-2.78
-5.13
-7.91
-11.02
-14.25
-17.50
-20.90
-24.71
-29.11
-33.78
-37.82
-40.02
-39.21
-34.92
-27.44
-17.79
-7.23
3.04
12.24
19.84
25.55
29.24
30.99
31.05
29.84
27.80
25.27
22.49
19.56
16.58
13.69
10.92
8.26
5.59
2.81
-0.11
-3.12
-6.07
-8.86
-11.38
-13.61
-15.55
-17.30
-19.10
-21.31
-24.34
-28.35
-33.15
-38.00
-41.76
-43.08
-40.79
-34.36
-24.07
-11.08
2.89
16.04
27.02
35.28
40.92
44.44
46.19
46.38
45.01
42.22
38.47
34.40
30.63
27.43
24.63
21.80
18.56
14.75
10.55
6.37
2.66
-0.30
-2.51
-4.25
-5.98
-8.16
-11.18
-15.24
-20.35
-26.38
-32.97
-39.54
-45.24
-49.04
-49.93
-47.25
-40.99
-31.77
-20.75
-9.22
1.73
11.42
19.48
25.79
30.28
32.86
33.54
32.43
29.94
26.64
23.21
20.14
17.56
15.24
12.74
9.61
5.67
1.05
-3.88
-8.68
-12.98
-16.54
-19.17
-20.73
-21.20
-20.77
-19.85
-19.06
-18.93
-19.59
-20.68
-21.33
-20.53
-17.48
-11.86
-3.89
5.75
16.14
26.31
35.31
42.45
47.28
49.76
50.13
48.81
46.25
42.69
38.24
32.98
27.07
20.86
14.77
9.11
4.08
-0.31
-4.16
-7.52
-10.42
-13.03
-15.57
-18.48
-22.16
-26.83
-32.47
-38.87
-45.79
-53.18
-61.07
-69.50
-78.19
-86.42
-93.07
-97.06
-97.62
-94.58
-88.48
-80.26
-71.09
-62.11
-54.35
-48.59
-45.28
-44.35
-44.99
-45.72
-44.67
-40.12
-31.05
-17.33
0.42
20.91
42.71
64.25
84.18
101.51
115.87
127.64
137.82
147.59
157.74
168.31
178.36
186.36
190.73
190.33
184.79
174.50
160.52
144.33
127.63
112.09
99.01
89.13
82.35
77.91
74.48
70.61
65.05
57.09
46.49
33.53
18.81
3.05
-12.87
-28.08
-41.74
-53.20
-62.11
-68.48
-72.65
-75.10
-76.35
-76.78
-76.67
-76.24
-75.61
-74.90
-74.13
-73.33
-72.51
-71.83
-71.56
-72.16
-74.03
-77.22
-81.36
-85.46
-88.20
-88.27
-84.73
-77.35
-66.55
-53.44
-39.32
-25.41
-12.61
-1.45
7.84
15.15
20.40
23.51
24.47
23.54
21.16
17.90
14.34
10.86
7.70
5.00
2.82
1.22
0.17
-0.52
-1.12
-1.93
-3.19
-4.98
-7.26
-9.92
-12.84
-16.03
-19.63
-23.93
-29.09
-35.03
-41.10
-46.07
-48.38
-46.67
-40.29
-29.66
-16.10
-1.36
12.94
25.69
36.41
44.98
51.44
55.73
57.81
57.69
55.58
51.92
47.27
42.28
37.42
33.02
29.22
26.03
23.33
21.00
18.89
16.84
14.62
11.97
8.69
4.66
-0.01
-4.99
-9.91
-14.48
-18.64
-22.66
-27.05
-32.24
-38.30
-44.68
-50.27
-53.72
-53.76
-49.70
-41.55
-30.04
-16.43
-2.18
11.28
22.81
31.68
37.66
40.92
42.00
41.58
40.33
38.71
37.00
35.22
33.30
31.17
28.78
26.23
23.76
21.55
19.77
18.36
17.06
15.42
13.01
9.62
5.36
0.65
-4.01
-8.14
-11.64
-14.76
-17.99
-21.87
-26.73
-32.55
-38.81
-44.68
-48.97
-50.60
-48.70
-42.92
-33.59
-21.69
-8.65
4.05
15.13
23.87
30.06
33.86
35.69
35.97
35.17
33.73
32.04
30.40
28.96
27.76
26.70
25.66
24.54
23.35
22.11
20.89
19.76
18.74
17.76
16.59
14.91
12.35
8.77
4.31
-0.61
-5.39
-9.58
-13.01
-15.95
-18.93
-22.51
-27.03
-32.40
-38.04
-43.03
-46.33
-46.96
-44.30
-38.22
-29.16
-18.08
-6.26
5.02
14.69
22.11
27.12
29.90
30.85
30.44
29.11
27.27
25.27
23.41
21.80
20.40
19.06
17.59
15.98
14.31
12.75
11.37
10.05
8.59
6.74
4.43
1.77
-0.99
-3.63
-5.99
-8.11
-10.13
-12.20
-14.51
-17.14
-20.21
-23.78
-27.90
-32.45
-37.13
-41.38
-44.47
-45.67
-44.37
-40.30
-33.54
-24.53
-14.05
-2.99
7.64
17.04
24.60
29.98
33.17
34.37
33.92
32.23
29.69
26.68
23.55
20.55
17.84
15.51
13.54
11.93
10.66
9.74
9.02
8.29
7.24
5.56
3.17
0.18
-3.06
-6.23
-9.06
-11.63
-14.13
-16.88
-20.18
-24.22
-29.06
-34.50
-40.09
-45.06
-48.38
-49.12
-46.58
-40.70
-31.99
-21.44
-10.17
0.84
10.88
19.56
26.65
32.05
35.67
37.56
37.86
36.87
34.94
32.41
29.57
26.62
23.70
20.91
18.31
15.96
13.86
11.92
10.01
8.01
5.76
3.21
0.32
-2.80
-5.97
-8.98
-11.66
-13.97
-16.07
-18.35
-21.23
-25.10
-30.08
-35.85
-41.68
-46.49
-49.25
-49.13
-45.88
-39.76
-31.40
-21.56
-10.97
-0.21
10.22
19.75
27.83
33.91
37.69
39.19
38.77
36.97
34.38
31.50
28.69
26.21
24.20
22.68
21.51
20.43
19.15
17.55
15.65
13.62
11.61
9.60
7.40
4.79
1.60
-2.10
-6.04
-9.88
-13.41
-16.57
-19.57
-22.74
-26.52
-31.27
-37.10
-43.67
-50.20
-55.55
-58.57
-58.45
-54.94
-48.42
-39.59
-29.28
-18.26
-7.20
3.17
12.14
19.05
23.54
25.65
25.94
25.24
24.45
24.20
24.68
25.63
26.48
26.69
25.95
24.37
22.43
20.70
19.62
19.24
19.22
18.98
17.98
15.86
12.60
8.38
3.60
-1.34
-6.08
-10.39
-14.27
-17.96
-21.87
-26.42
-31.83
-37.97
-44.30
-49.94
-53.82
-55.03
-52.98
-47.62
-39.45
-29.36
-18.47
-7.72
2.25
11.22
19.16
25.99
31.43
35.08
36.63
36.11
34.06
31.26
28.51
26.25
24.51
22.97
21.31
19.44
17.50
15.73
14.17
12.59
10.54
7.66
3.88
-0.42
-4.64
-8.26
-11.11
-13.47
-15.89
-18.94
-23.03
-28.21
-34.26
-40.55
-46.24
-50.21
-51.38
-49.00
-42.92
-33.71
-22.52
-10.60
1.01
11.69
21.10
29.04
35.27
39.54
41.75
42.08
41.03
39.19
37.08
34.98
32.87
30.62
28.14
25.48
22.86
20.59
18.91
17.91
17.39
16.96
16.03
14.14
11.01
6.75
1.77
-3.36
-8.09
-12.13
-15.54
-18.67
-22.03
-26.12
-31.23
-37.27
-43.84
-50.16
-55.18
-57.82
-57.15
-52.72
-44.63
-33.63
-20.88
-7.72
4.68
15.56
24.61
31.92
37.70
42.09
45.09
46.60
46.55
45.07
42.47
39.28
36.03
33.17
30.88
29.20
27.98
27.00
26.12
25.22
24.16
22.80
20.99
18.67
15.86
12.70
9.33
5.85
2.22
-1.72
-6.05
-10.76
-15.57
-20.11
-24.04
-27.21
-29.80
-32.24
-35.12
-38.94
-43.97
-49.96
-56.18
-61.35
-64.06
-63.12
-58.06
-49.21
-37.65
-24.81
-12.07
-0.35
9.90
18.61
25.94
31.92
36.46
39.37
40.48
39.82
37.70
34.70
31.48
28.57
26.31
24.71
23.55
22.52
21.41
20.10
18.63
17.02
15.26
13.30
11.02
8.38
5.42
2.27
-0.95
-4.13
-7.31
-10.56
-14.03
-17.74
-21.66
-25.69
-29.77
-33.97
-38.50
-43.51
-49.07
-54.94
-60.51
-64.87
-67.04
-66.20
-62.04
-54.79
-45.19
-34.33
-23.38
-13.36
-5.04
1.09
4.99
6.89
7.34
6.96
6.30
5.65
5.04
4.38
3.72
3.32
3.73
5.54
9.12
14.53
21.53
29.76
38.91
48.71
58.75
68.28
76.19
81.32
83.00
81.35
77.39
72.61
68.32
65.07
62.49
59.57
55.23
48.75
40.04
29.34
17.05
3.47
-11.06
-25.88
-39.87
-51.46
-59.04
-61.44
-58.50
-51.02
-40.62
-29.10
-17.90
-7.82
0.91
8.34
14.48
19.15
22.17
23.47
23.26
21.93
19.91
17.52
14.93
12.28
9.72
7.52
5.88
4.82
4.09
3.16
1.49
-1.29
-5.20
-9.94
-15.07
-20.07
-24.55
-28.25
-31.14
-33.36
-35.17
-36.92
-38.87
-41.13
-43.63
-46.17
-48.57
-50.72
-52.70
-54.60
-56.35
-57.59
-57.65
-55.79
-51.41
-44.33
-34.82
-23.53
-11.29
1.07
12.78
23.23
31.95
38.56
42.88
44.90
44.81
43.05
40.18
36.88
33.73
31.12
29.06
27.26
25.28
22.79
19.83
16.72
13.99
11.95
10.57
9.43
7.96
5.64
2.31
-1.84
-6.37
-10.76
-14.65
-17.92
-20.67
-23.10
-25.49
-28.18
-31.43
-35.44
-40.13
-45.04
-49.26
-51.62
-51.10
-47.10
-39.77
-29.90
-18.74
-7.55
2.70
11.40
18.29
23.34
26.55
28.00
27.77
26.00
22.97
19.11
15.04
11.41
8.75
7.24
6.60
6.27
5.56
4.07
1.79
-0.91
-3.52
-5.63
-7.14
-8.27
-9.34
-10.64
-12.34
-14.50
-17.11
-20.15
-23.46
-26.61
-28.88
-29.34
-27.19
-22.06
-14.21
-4.51
5.88
15.89
24.78
32.25
38.19
42.57
45.20
45.91
44.60
41.52
37.31
32.83
28.96
26.20
24.60
23.77
23.10
22.01
20.20
17.75
14.97
12.29
10.06
8.37
7.03
5.70
3.97
1.60
-1.44
-4.93
-8.60
-12.18
-15.61
-18.94
-22.35
-25.97
-29.99
-34.48
-39.43
-44.59
-49.39
-53.00
-54.45
-52.97
-48.17
-40.29
-30.03
-18.31
-6.06
6.01
17.36
27.56
36.19
42.89
47.48
50.02
50.83
50.34
48.93
46.87
44.31
41.35
38.08
34.59
31.00
27.34
23.73
20.32
17.25
14.64
12.43
10.32
7.86
4.62
0.48
-4.38
-9.46
-14.25
-18.40
-21.89
-24.98
-28.07
-31.64
-36.01
-41.28
-47.14
-52.79
-57.13
-58.94
-57.29
-51.77
-42.69
-30.95
-17.84
-4.66
7.56
18.14
26.73
33.16
37.43
39.65
40.11
39.31
37.79
36.06
34.41
32.92
31.46
29.89
28.17
26.38
24.72
23.41
22.58
22.21
22.10
21.95
21.37
20.10
18.01
15.23
11.97
8.47
4.84
1.11
-2.72
-6.59
-10.39
-13.99
-17.35
-20.59
-23.99
-27.89
-32.48
-37.57
-42.48
-46.05
-47.08
-44.60
-38.34
-28.86
-17.32
-5.18
6.39
16.67
25.40
32.57
38.20
42.13
44.25
44.60
43.48
41.44
39.09
36.89
34.99
33.28
31.49
29.41
27.10
24.76
22.75
21.28
20.38
19.86
19.40
18.71
17.57
15.92
13.80
11.33
8.60
5.68
2.55
-0.86
-4.58
-8.57
-12.69
-16.81
-20.76
-24.47
-27.90
-30.97
-33.68
-36.07
-38.33
-40.77
-43.67
-47.00
-50.29
-52.65
-52.96
-50.38
-44.56
-35.86
-25.18
-13.66
-2.41
7.79
16.43
23.27
28.30
31.61
33.41
34.07
34.01
33.64
33.20
32.74
32.07
30.83
28.79
25.91
22.45
18.93
15.80
13.30
11.24
9.25
7.02
4.55
2.26
0.76
0.56
1.70
3.74
5.86
7.31
7.67
6.95
5.49
3.74
1.96
0.19
-1.80
-4.38
-7.95
-12.74
-18.66
-25.27
-31.71
-36.94
-39.95
-40.04
-37.01
-31.26
-23.62
-15.18
-6.97
0.20
5.92
10.13
13.05
14.97
16.15
16.72
16.78
16.41
15.73
14.86
13.92
12.96
12.04
11.18
10.42
9.76
9.13
8.46
7.62
6.57
5.30
3.80
2.09
0.11
-2.16
-4.76
-7.61
-10.63
-13.72
-16.79
-19.76
-22.51
-24.85
-26.65
-27.89
-28.66
-29.23
-29.91
-30.91
-32.20
-33.44
-33.97
-33.03
-29.96
-24.50
-16.90
-7.90
1.56
10.57
18.46
24.87
29.66
32.74
34.15
33.97
32.48
30.22
27.77
25.64
24.07
22.98
22.06
20.96
19.48
17.66
15.84
14.41
13.61
13.47
13.65
13.63
12.89
11.16
8.43
4.95
1.01
-3.13
-7.26
-11.18
-14.66
-17.43
-19.37
-20.60
-21.45
-22.43
-23.88
-25.94
-28.54
-31.53
-34.74
-37.98
-40.88
-42.85
-43.15
-41.20
-36.84
-30.52
-23.04
-15.31
-8.00
-1.43
4.33
9.32
13.46
16.58
18.51
19.17
18.73
17.53
15.96
14.42
13.16
12.28
11.78
11.57
11.52
11.49
11.37
11.04
10.40
9.37
7.97
6.29
4.50
2.80
1.33
0.11
-0.96
-2.08
-3.44
-5.24
-7.57
-10.39
-13.54
-16.74
-19.70
-22.16
-24.01
-25.26
-26.19
-27.17
-28.62
-30.78
-33.56
-36.39
-38.34
-38.43
-35.95
-30.79
-23.47
-15.00
-6.51
1.08
7.28
12.04
15.50
17.83
19.12
19.38
18.63
17.09
15.10
13.12
11.53
10.48
9.88
9.50
9.19
8.90
8.75
8.88
9.24
9.66
9.77
9.28
8.07
6.19
3.85
1.29
-1.32
-3.88
-6.35
-8.68
-10.83
-12.73
-14.33
-15.63
-16.72
-17.79
-19.14
-21.06
-23.72
-26.97
-30.32
-33.03
-34.28
-33.44
-30.23
-24.79
-17.57
-9.32
-0.87
7.02
13.70
18.82
22.27
24.24
25.01
24.90
24.17
22.96
21.43
19.68
17.83
15.98
14.24
12.72
11.53
10.82
10.60
10.75
11.01
11.09
10.77
10.01
8.93
7.61
6.15
4.49
2.55
0.31
-2.15
-4.65
-7.02
-9.18
-11.16
-13.10
-15.15
-17.36
-19.70
-22.08
-24.43
-26.80
-29.30
-32.07
-34.98
-37.61
-39.24
-39.06
-36.44
-31.21
-23.77
-14.92
-5.74
2.82
10.01
15.50
19.35
21.81
23.25
23.94
23.98
23.34
21.99
20.00
17.61
15.13
12.88
11.09
9.87
9.33
9.50
10.32
11.61
12.99
14.02
14.26
13.60
12.11
10.14
8.05
6.12
4.41
2.85
1.34
-0.28
-2.06
-4.10
-6.47
-9.22
-12.36
-15.71
-19.10
-22.25
-25.07
-27.54
-29.83
-32.22
-34.98
-38.32
-42.11
-45.95
-49.08
-50.62
-49.77
-46.15
-39.93
-31.77
-22.63
-13.44
-4.90
2.62
8.96
14.08
17.95
20.64
22.30
23.11
23.37
23.29
23.04
22.73
22.42
22.17
22.00
21.98
22.09
22.34
22.71
23.16
23.63
23.91
23.78
22.92
21.18
18.59
15.42
12.12
9.05
6.39
4.08
1.93
-0.28
-2.57
-4.85
-7.01
-9.04
-11.11
-13.45
-16.27
-19.61
-23.45
-27.75
-32.47
-37.44
-42.24
-46.12
-48.12
-47.37
-43.44
-36.58
-27.59
-17.63
-7.79
1.18
8.85
15.10
19.89
23.14
24.83
25.08
24.27
23.04
22.11
21.91
22.49
23.46
24.25
24.47
24.07
23.42
22.94
22.87
23.05
23.07
22.52
21.25
19.40
17.29
15.30
13.57
12.07
10.54
8.76
6.48
3.53
-0.12
-4.42
-9.16
-14.01
-18.56
-22.52
-25.76
-28.48
-31.18
-34.42
-38.69
-44.00
-49.87
-55.26
-58.88
-59.67
-57.01
-51.03
-42.44
-32.30
-21.65
-11.33
-1.86
6.48
13.49
19.02
22.96
25.29
26.20
26.05
25.28
24.33
23.57
23.15
23.11
23.38
23.85
24.42
25.05
25.72
26.35
26.81
26.92
26.52
25.49
23.81
21.53
18.69
15.42
11.84
8.21
4.80
1.86
-0.56
-2.70
-5.02
-7.99
-11.91
-16.79
-22.29
-27.87
-32.95
-36.89
-39.11
-39.04
-36.36
-31.02
-23.41
-14.25
-4.48
4.99
13.51
20.76
26.72
31.49
35.16
37.70
38.99
38.91
37.43
34.88
31.73
28.61
25.99
24.18
23.16
22.76
22.71
22.74
22.64
22.22
21.32
19.86
17.83
15.28
12.33
9.10
5.65
2.03
-1.73
-5.53
-9.21
-12.62
-15.65
-18.38
-21.06
-24.05
-27.69
-32.12
-37.18
-42.41
-47.16
-50.73
-52.54
-52.19
-49.45
-44.29
-36.93
-27.84
-17.77
-7.65
1.69
9.64
15.95
20.58
23.70
25.41
25.80
24.97
23.11
20.57
17.78
15.22
13.27
12.14
11.83
12.11
12.64
13.04
13.09
12.77
12.34
12.09
12.19
12.44
12.36
11.39
9.20
5.93
2.09
-1.60
-4.62
-6.88
-8.73
-10.75
-13.46
-17.12
-21.66
-26.74
-31.88
-36.57
-40.20
-42.12
-41.67
-38.36
-32.11
-23.37
-13.08
-2.38
7.65
16.33
23.42
29.02
33.36
36.63
38.87
40.03
40.08
39.05
37.14
34.70
32.12
29.80
27.98
26.79
26.12
25.79
25.50
25.02
24.16
22.80
20.84
18.26
15.08
11.35
7.21
2.81
-1.67
-6.03
-10.13
-13.80
-17.03
-19.87
-22.54
-25.38
-28.70
-32.78
-37.57
-42.72
-47.55
-51.11
-52.38
-50.56
-45.26
-36.72
-25.75
-13.58
-1.55
9.33
18.50
25.89
31.72
36.16
39.16
40.43
39.76
37.20
33.32
29.07
25.43
23.10
22.22
22.46
23.28
24.25
25.17
26.04
26.82
27.24
26.94
25.60
23.20
20.15
16.99
14.17
11.76
9.45
6.76
3.35
-0.81
-5.45
-10.13
-14.55
-18.55
-22.24
-25.83
-29.62
-33.90
-38.83
-44.30
-49.85
-54.66
-57.67
-57.86
-54.61
-47.85
-38.12
-26.35
-13.64
-0.94
11.03
21.95
31.73
40.42
48.08
54.69
60.22
64.64
68.03
70.55
72.57
74.55
77.14
81.15
87.43
96.61
108.71
122.82
137.07
148.96
155.92
155.94
148.11
132.72
111.28
86.12
60.07
35.79
15.22
-1.07
-14.00
-25.61
-38.23
-53.39
-71.18
-90.19
-108.29
-123.40
-134.37
-141.04
-144.02
-144.24
-142.51
-139.43
-135.42
-130.79
-125.67
-119.85
-112.79
-103.65
-91.77
-76.94
-59.73
-41.29
-23.13
-6.66
7.17
17.89
25.54
30.37
32.80
33.28
32.31
30.42
28.15
25.94
24.07
22.62
21.44
20.25
18.63
16.21
12.79
8.45
3.56
-1.32
-5.64
-9.12
-11.71
-13.66
-15.19
-16.44
-17.33
-17.77
-17.84
-17.79
-18.11
-19.15
-21.04
-23.52
-26.06
-28.12
-29.34
-29.66
-29.32
-28.74
-28.42
-28.83
-30.31
-32.99
-36.67
-40.77
-44.34
-46.31
-45.70
-41.96
-35.24
-26.27
-16.15
-6.06
3.12
10.92
17.28
22.29
26.14
28.83
30.26
30.33
29.03
26.55
23.26
19.57
15.83
12.26
9.00
6.09
3.57
1.41
-0.45
-2.08
-3.51
-4.65
-5.20
-4.73
-2.82
0.69
5.51
10.94
16.01
19.84
21.94
22.38
21.75
20.81
20.25
20.31
20.72
20.83
19.86
17.17
12.45
5.80
-2.22
-10.68
-18.40
-24.15
-26.99
-26.51
-22.88
-16.83
-9.33
-1.33
6.47
13.66
19.99
25.32
29.47
32.34
33.93
34.44
34.16
33.37
32.27
30.86
29.17
27.28
25.44
24.00
23.24
23.28
23.96
24.91
25.70
25.98
25.49
24.17
22.06
19.31
16.19
12.96
9.88
7.07
4.49
1.96
-0.71
-3.67
-6.93
-10.36
-13.81
-17.16
-20.45
-23.80
-27.38
-31.27
-35.43
-39.66
-43.64
-47.00
-49.25
-49.89
-48.38
-44.27
-37.43
-28.17
-17.28
-5.87
4.89
14.08
21.17
26.00
28.77
29.82
29.58
28.54
27.18
25.88
24.95
24.48
24.42
24.56
24.69
24.70
24.60
24.56
24.75
25.38
26.47
27.87
29.24
30.13
30.20
29.22
27.20
24.25
20.62
16.53
12.22
7.93
3.76
-0.27
-4.25
-8.34
-12.67
-17.18
-21.69
-25.90
-29.52
-32.44
-34.70
-36.56
-38.39
-40.63
-43.59
-47.40
-51.75
-55.95
-58.97
-59.76
-57.55
-52.11
-43.81
-33.40
-21.84
-10.13
0.85
10.34
17.83
23.05
26.12
27.45
27.59
27.08
26.27
25.35
24.40
23.48
22.65
21.99
21.54
21.32
21.32
21.54
21.91
22.25
22.35
21.90
20.73
18.76
16.07
12.87
9.44
6.06
2.93
0.15
-2.38
-4.87
-7.58
-10.70
-14.15
-17.62
-20.72
-23.15
-24.93
-26.43
-28.29
-31.04
-34.99
-39.83
-44.80
-48.74
-50.54
-49.34
-44.90
-37.52
-27.91
-17.05
-5.82
4.94
14.62
22.77
29.17
33.82
36.87
38.58
39.11
38.65
37.33
35.37
33.11
30.87
28.86
27.12
25.58
24.22
23.12
22.43
22.20
22.25
22.16
21.48
19.90
17.49
14.60
11.70
9.17
7.11
5.49
4.05
2.55
0.78
-1.40
-4.05
-7.20
-10.72
-14.53
-18.50
-22.55
-26.60
-30.58
-34.47
-38.31
-42.25
-46.42
-50.78
-54.91
-58.02
-59.07
-57.16
-51.88
-43.54
-33.07
-21.71
-10.62
-0.60
7.97
15.03
20.67
24.94
27.90
29.63
30.34
30.34
30.04
29.71
29.42
29.10
28.55
27.70
26.69
25.80
25.37
25.56
26.15
26.65
26.50
25.35
23.31
20.84
18.53
16.72
15.38
14.12
12.52
10.37
7.80
5.11
2.54
0.09
-2.46
-5.41
-8.87
-12.63
-16.33
-19.58
-22.19
-24.25
-26.06
-28.09
-30.75
-34.26
-38.58
-43.23
-47.39
-50.07
-50.36
-47.73
-42.14
-34.04
-24.20
-13.52
-2.88
6.98
15.53
22.47
27.76
31.49
33.83
34.95
34.99
34.11
32.58
30.78
29.13
27.98
27.49
27.70
28.44
29.45
30.40
30.93
30.76
29.75
27.94
25.59
22.99
20.41
17.95
15.59
13.23
10.80
8.33
5.92
3.66
1.61
-0.34
-2.41
-4.81
-7.69
-11.05
-14.67
-18.33
-21.81
-25.15
-28.58
-32.38
-36.76
-41.64
-46.61
-51.01
-54.05
-54.96
-53.18
-48.49
-41.10
-31.64
-21.02
-10.22
-0.06
8.89
16.28
21.90
25.66
27.64
28.08
27.49
26.50
25.74
25.48
25.73
26.18
26.46
26.36
25.88
25.22
24.60
24.19
23.98
23.83
23.56
23.03
22.21
21.10
19.77
18.16
16.23
13.95
11.41
8.82
6.41
4.37
2.64
1.01
-0.85
-3.20
-6.17
-9.65
-13.39
-17.09
-20.45
-23.27
-25.51
-27.34
-29.09
-31.13
-33.84
-37.34
-41.53
-45.95
-49.92
-52.64
-53.41
-51.70
-47.32
-40.46
-31.54
-21.26
-10.45
0.08
9.56
17.42
23.32
27.19
29.19
29.71
29.22
28.19
27.04
26.01
25.23
24.71
24.38
24.16
24.03
23.97
23.97
24.01
24.03
24.00
23.83
23.45
22.73
21.57
19.93
17.86
15.57
13.29
11.16
9.18
7.23
5.12
2.72
0.04
-2.85
-5.83
-8.83
-11.80
-14.76
-17.67
-20.39
-22.74
-24.56
-25.90
-27.07
-28.60
-30.99
-34.50
-38.93
-43.61
-47.59
-49.86
-49.67
-46.67
-40.92
-32.87
-23.23
-12.87
-2.71
6.44
13.99
19.64
23.45
25.71
26.85
27.29
27.35
27.23
26.99
26.66
26.29
25.92
25.65
25.51
25.49
25.52
25.50
25.37
25.08
24.59
23.84
22.75
21.25
19.33
17.05
14.59
12.11
9.72
7.44
5.11
2.49
-0.65
-4.41
-8.63
-12.94
-16.90
-20.18
-22.71
-24.72
-26.59
-28.70
-31.34
-34.61
-38.54
-42.92
-47.28
-50.78
-52.37
-51.09
-46.50
-38.88
-29.20
-18.77
-8.72
0.23
7.86
14.24
19.44
23.43
26.15
27.60
28.01
27.74
27.16
26.54
25.96
25.37
24.69
23.92
23.18
22.64
22.46
22.67
23.13
23.54
23.60
23.01
21.70
19.72
17.25
14.47
11.52
8.50
5.44
2.41
-0.51
-3.21
-5.65
-7.89
-10.05
-12.27
-14.60
-17.00
-19.27
-21.28
-22.99
-24.53
-26.18
-28.23
-31.03
-34.75
-39.34
-44.44
-49.30
-52.90
-54.18
-52.35
-47.15
-38.99
-28.81
-17.78
-7.01
2.67
10.80
17.25
22.02
25.27
27.21
28.12
28.34
28.18
27.84
27.37
26.74
25.85
24.75
23.51
22.31
21.33
20.67
20.32
20.16
19.99
19.62
18.91
17.74
16.02
13.79
11.14
8.31
5.54
3.05
0.91
-0.93
-2.64
-4.42
-6.44
-8.80
-11.44
-14.21
-16.87
-19.16
-20.96
-22.26
-23.22
-24.11
-25.23
-26.86
-29.25
-32.51
-36.58
-41.12
-45.43
-48.55
-49.47
-47.50
-42.43
-34.65
-25.04
-14.68
-4.60
4.52
12.28
18.58
23.44
26.89
28.97
29.77
29.51
28.57
27.42
26.50
26.00
25.86
25.86
25.72
25.31
24.64
23.86
23.12
22.49
21.98
21.44
20.68
19.50
17.70
15.28
12.35
9.20
6.14
3.39
0.99
-1.19
-3.30
-5.53
-7.94
-10.51
-13.17
-15.85
-18.48
-21.03
-23.57
-26.23
-29.30
-33.01
-37.36
-41.97
-46.03
-48.47
-48.36
-45.18
-39.07
-30.69
-21.07
-11.21
-1.89
6.42
13.48
19.12
23.24
25.80
26.97
27.06
26.52
25.78
25.08
24.51
24.03
23.59
23.20
22.92
22.81
22.82
22.87
22.82
22.65
22.38
22.05
21.61
20.89
19.71
17.97
15.78
13.37
11.05
9.04
7.38
5.88
4.31
2.37
-0.09
-3.11
-6.55
-10.17
-13.72
-17.02
-20.02
-22.79
-25.44
-28.12
-31.00
-34.25
-37.97
-42.10
-46.31
-49.93
-52.10
-51.93
-48.85
-42.82
-34.37
-24.37
-13.87
-3.78
5.27
12.95
19.16
23.92
27.32
29.48
30.57
30.79
30.46
29.92
29.37
28.90
28.47
27.98
27.37
26.71
26.18
25.88
25.81
25.79
25.60
25.01
23.94
22.43
20.54
18.41
16.10
13.67
11.12
8.50
5.86
3.25
0.72
-1.63
-3.71
-5.51
-7.11
-8.67
-10.37
-12.35
-14.61
-17.08
-19.63
-22.17
-24.65
-27.07
-29.54
-32.21
-35.29
-38.91
-43.06
-47.37
-51.11
-53.33
-53.05
-49.66
-43.12
-34.02
-23.37
-12.37
-2.08
6.72
13.58
18.47
21.60
23.42
24.46
25.17
25.86
26.62
27.36
27.90
28.12
28.03
27.79
27.61
27.66
28.04
28.65
29.31
29.77
29.83
29.40
28.45
27.02
25.11
22.79
20.09
17.22
14.41
11.91
9.81
7.96
5.99
3.49
0.23
-3.77
-8.17
-12.51
-16.41
-19.67
-22.37
-24.75
-27.14
-29.91
-33.32
-37.55
-42.55
-48.00
-53.25
-57.37
-59.36
-58.40
-54.09
-46.62
-36.74
-25.59
-14.32
-3.86
5.25
12.88
19.17
24.29
28.32
31.27
33.13
33.98
34.05
33.60
32.88
32.01
31.05
30.05
29.10
28.40
28.06
28.06
28.22
28.23
27.77
26.71
25.08
23.05
20.86
18.67
16.55
14.43
12.24
9.88
7.39
4.84
2.33
-0.09
-2.51
-5.06
-7.84
-10.81
-13.81
-16.61
-19.05
-21.13
-23.01
-24.91
-26.95
-29.18
-31.63
-34.40
-37.70
-41.68
-46.24
-50.77
-54.35
-55.87
-54.52
-50.04
-42.80
-33.64
-23.52
-13.25
-3.39
5.64
13.45
19.67
24.00
26.39
27.12
26.77
26.00
25.32
24.95
24.85
24.81
24.70
24.51
24.33
24.25
24.24
24.15
23.82
23.14
22.16
21.05
19.97
18.93
17.75
16.14
13.88
11.06
8.04
5.35
3.38
2.15
1.29
0.18
-1.70
-4.50
-7.92
-11.40
-14.35
-16.47
-17.87
-19.06
-20.65
-23.20
-26.95
-31.79
-37.18
-42.32
-46.23
-48.03
-47.06
-43.09
-36.38
-27.67
-17.93
-8.22
0.63
8.15
14.21
18.90
22.37
24.70
25.93
26.13
25.49
24.39
23.19
22.28
21.77
21.63
21.68
21.72
21.70
21.59
21.44
21.27
21.06
20.77
20.38
19.81
18.98
17.79
16.15
14.09
11.71
9.20
6.74
4.46
2.32
0.17
-2.23
-5.09
-8.48
-12.27
-16.12
-19.65
-22.56
-24.82
-26.65
-28.41
-30.52
-33.28
-36.75
-40.79
-44.96
-48.65
-51.04
-51.39
-49.17
-44.23
-36.95
-28.02
-18.33
-8.74
0.08
7.68
13.82
18.45
21.72
23.86
25.18
25.89
26.17
26.14
25.88
25.48
25.03
24.57
24.11
23.66
23.24
22.96
22.89
22.97
23.01
22.71
21.84
20.34
18.38
16.22
14.12
12.15
10.24
8.26
6.09
3.76
1.34
-1.06
-3.39
-5.66
-7.95
-10.35
-12.84
-15.44
-18.09
-20.73
-23.30
-25.80
-28.27
-30.81
-33.57
-36.68
-40.22
-44.06
-47.77
-50.62
-51.78
-50.51
-46.46
-39.80
-31.13
-21.30
-11.20
-1.58
7.10
14.53
20.59
25.27
28.61
30.72
31.71
31.74
31.04
29.85
28.52
27.34
26.49
26.01
25.80
25.73
25.73
25.73
25.64
25.33
24.56
23.19
21.17
18.67
15.96
13.35
11.00
8.89
6.79
4.47
1.75
-1.40
-4.85
-8.39
-11.80
-14.91
-17.65
-20.08
-22.41
-24.91
-27.90
-31.61
-36.00
-40.77
-45.29
-48.79
-50.49
-49.82
-46.47
-40.49
-32.27
-22.46
-11.96
-1.73
7.36
14.77
20.31
24.12
26.55
28.00
28.70
28.78
28.36
27.58
26.69
25.98
25.61
25.61
25.80
25.95
25.89
25.65
25.38
25.25
25.33
25.46
25.33
24.55
22.86
20.19
16.75
12.88
9.00
5.45
2.45
0.06
-1.84
-3.50
-5.23
-7.32
-9.91
-12.92
-16.05
-18.96
-21.33
-23.15
-24.74
-26.60
-29.26
-32.98
-37.62
-42.63
-47.19
-50.41
-51.54
-50.16
-46.18
-39.88
-31.81
-22.67
-13.18
-3.97
4.50
11.86
17.90
22.50
25.63
27.39
28.03
27.93
27.40
26.76
26.10
25.44
24.73
23.97
23.27
22.87
22.94
23.48
24.25
24.86
24.93
24.29
23.02
21.42
19.81
18.35
16.92
15.26
13.17
10.58
7.73
4.92
2.39
0.11
-2.14
-4.61
-7.41
-10.41
-13.33
-15.92
-18.17
-20.24
-22.45
-25.07
-28.20
-31.86
-35.94
-40.23
-44.35
-47.73
-49.58
-49.19
-46.09
-40.29
-32.32
-22.99
-13.20
-3.70
4.94
12.37
18.35
22.79
25.77
27.49
28.33
28.64
28.70
28.65
28.47
28.05
27.33
26.37
25.30
24.35
23.74
23.56
23.80
24.27
24.74
24.95
24.73
23.98
22.72
21.01
18.92
16.53
13.88
11.03
7.98
4.73
1.20
-2.64
-6.77
-11.01
-15.04
-18.55
-21.33
-23.43
-25.12
-26.85
-29.04
-31.99
-35.81
-40.30
-45.06
-49.44
-52.66
-53.98
-52.82
-48.93
-42.45
-33.92
-24.13
-14.01
-4.37
4.18
11.36
17.12
21.64
25.16
27.86
29.86
31.19
31.86
31.93
31.50
30.73
29.82
28.96
28.31
27.98
27.93
28.09
28.27
28.28
28.01
27.33
26.25
24.79
23.02
20.97
18.65
16.05
13.20
10.25
7.41
4.88
2.68
0.71
-1.20
-3.22
-5.36
-7.55
-9.68
-11.75
-13.85
-16.11
-18.62
-21.34
-24.15
-27.00
-29.99
-33.29
-37.08
-41.32
-45.68
-49.59
-52.31
-53.10
-51.37
-46.93
-39.98
-31.20
-21.54
-11.99
-3.29
4.26
10.69
16.22
