1515721807.00
64.000000
-0.00
-0.00
-0.00
-0.00
-0.00
-0.00
-0.00
-0.00
-0.00
-0.00
0.00
0.01
0.01
-0.00
-0.03
-0.05
-0.05
0.00
0.13
0.36
0.66
1.01
1.37
1.72
2.06
2.40
2.79
3.24
3.80
4.42
5.06
5.66
6.20
6.68
7.15
7.68
8.31
9.14
10.09
11.04
11.88
12.56
13.14
13.76
14.65
15.96
17.91
20.32
22.90
25.38
27.58
29.57
31.68
34.32
37.81
42.54
48.15
54.10
59.83
64.97
69.58
74.14
79.34
85.71
93.76
103.00
112.62
121.73
129.77
136.75
143.30
150.75
157.77
166.64
177.95
191.79
206.97
220.57
228.25
225.36
208.53
176.87
132.76
80.05
23.07
-34.94
-92.44
-149.16
-205.23
-260.37
-313.74
-363.87
-409.83
-450.91
-486.50
-515.74
-537.23
-549.22
-549.96
-538.37
-514.21
-478.67
-433.88
-382.45
-327.02
-269.84
-212.63
-156.66
-102.95
-52.37
-5.90
35.58
71.43
101.35
125.50
144.38
158.69
169.15
176.37
180.75
182.57
182.07
179.51
175.23
169.65
163.18
156.15
148.81
141.30
133.69
126.02
118.33
110.69
103.16
95.80
88.68
81.83
75.25
68.95
62.95
57.25
51.86
46.78
42.03
37.59
33.45
29.61
26.07
22.81
19.83
17.11
14.67
12.48
10.54
8.83
7.35
6.07
4.97
4.05
3.27
2.62
2.09
1.65
1.30
1.01
0.79
0.61
0.48
0.37
0.29
0.22
0.18
0.14
0.11
0.09
0.08
0.07
0.06
0.05
0.05
0.04
0.04
0.04
0.04
0.05
0.05
0.06
0.08
0.10
0.12
0.15
0.18
0.22
0.26
0.30
0.34
0.39
0.44
0.48
0.53
0.58
0.63
0.69
0.75
0.81
0.88
0.96
1.04
1.14
1.24
1.36
1.49
1.64
1.80
1.98
2.19
2.41
2.66
2.94
3.25
3.59
3.96
4.36
4.79
5.27
5.77
6.33
6.91
7.54
8.21
8.92
9.67
10.47
11.31
12.19
13.12
14.10
15.14
16.24
17.39
18.61
19.86
21.10
22.22
23.14
23.73
23.86
23.45
22.41
20.69
18.29
15.22
11.51
7.28
2.67
-2.08
-6.75
-11.09
-14.88
-17.98
-20.33
-21.95
-22.92
-23.35
-23.33
-22.93
-22.16
-21.06
-19.65
-18.09
-16.54
-15.15
-14.06
-13.28
-12.67
-12.05
-11.24
-10.17
-9.00
-8.00
-7.51
-7.76
-8.73
-10.16
-11.59
-12.66
-13.15
-13.26
-13.40
-14.06
-15.60
-17.97
-20.77
-23.36
-25.26
-26.23
-26.45
-26.39
-26.61
-27.65
-30.01
-34.09
-39.93
-46.81
-52.97
-55.88
-53.12
-43.43
-27.63
-8.41
10.58
26.21
36.88
42.77
45.15
45.38
44.41
42.46
39.48
35.63
31.37
27.28
23.63
20.20
16.40
11.78
6.37
0.86
-3.74
-6.63
-7.72
-7.83
-8.41
-10.87
-15.97
-23.36
-31.61
-38.74
-42.93
-43.24
-39.92
-34.25
-27.90
-22.37
-18.43
-16.10
-14.86
-14.09
-13.35
-12.50
-11.59
-10.59
-9.35
-7.52
-4.75
-0.87
4.11
10.12
17.21
25.37
34.30
42.94
49.50
52.05
49.40
41.78
30.88
19.14
8.68
0.60
-4.98
-8.21
-8.87
-6.20
0.42
10.60
22.41
32.82
38.89
39.02
33.55
24.58
14.89
6.96
2.17
0.64
1.50
3.50
5.49
6.78
7.25
7.10
6.72
6.33
5.92
5.25
4.09
2.39
0.32
-1.66
-3.18
-3.99
-4.17
-3.99
-3.73
-3.49
-3.06
-2.06
-0.16
2.73
6.35
10.17
13.79
17.22
20.94
25.73
32.11
39.75
47.24
52.36
53.07
48.47
39.51
28.74
19.54
14.91
16.39
23.57
34.27
45.26
53.22
55.57
51.10
40.33
25.41
9.29
-5.42
-17.41
-26.90
-35.05
-42.78
-50.17
-55.98
-58.20
-55.27
-47.13
-35.30
-22.04
-9.79
-0.73
2.39
-2.48
-15.68
-34.70
-54.16
-66.84
-66.08
-48.80
-17.29
20.56
55.93
83.22
101.65
113.53
121.14
124.15
119.36
102.70
71.03
26.33
-24.13
-70.94
-107.15
-130.76
-144.07
-151.12
-145.83
-125.62
-94.21
-59.08
-25.65
3.52
26.68
41.93
47.96
45.22
34.70
20.12
6.30
-2.57
-5.42
-4.67
-4.67
-9.36
-20.41
-38.13
-57.83
-73.99
-81.37
-77.34
-62.52
-40.11
-14.50
10.07
29.64
42.05
46.64
44.13
35.69
22.72
6.97
-9.34
-23.78
-34.64
-40.94
-42.86
-41.29
-37.57
-32.90
-27.91
-22.59
-16.57
-9.85
-2.77
3.82
9.02
12.17
12.98
11.63
8.54
4.16
-1.23
-7.50
-14.56
-22.08
-29.35
-35.29
-38.72
-38.69
-34.79
-27.30
-17.11
-5.51
6.15
16.67
25.24
31.34
34.82
35.72
34.31
31.11
26.91
22.65
19.31
17.63
17.88
19.75
22.49
25.12
26.82
27.21
26.39
24.82
23.02
21.30
19.59
17.49
14.43
9.88
3.65
-3.98
-12.22
-19.81
-25.32
-27.46
-25.51
-19.59
-10.68
-0.36
9.69
18.14
24.34
28.36
30.61
31.57
31.54
30.54
28.56
25.71
22.41
19.20
16.56
14.70
13.42
12.27
10.75
8.57
5.76
2.60
-0.57
-3.54
-6.30
-9.12
-12.35
-16.38
-21.40
-27.43
-34.16
-40.97
-46.95
-51.05
-52.31
-50.14
-44.57
-36.26
-26.39
-16.26
-6.96
0.83
6.94
11.49
14.72
16.83
17.95
18.14
17.51
16.23
14.53
12.71
11.02
9.70
8.85
8.41
8.16
7.80
7.06
5.76
3.89
1.61
-0.89
-3.46
-5.98
-8.46
-10.97
-13.65
-16.68
-20.24
-24.40
-28.97
-33.40
-36.78
-38.00
-36.11
-30.64
-21.88
-10.84
0.99
12.14
21.54
28.72
33.79
37.20
39.45
40.90
41.70
41.92
41.63
41.01
40.29
39.69
39.27
38.94
38.45
37.60
36.32
34.70
32.91
31.08
29.12
26.80
23.83
20.09
15.70
11.04
6.61
2.77
-0.34
-2.95
-5.50
-8.54
-12.56
-17.79
-24.05
-30.66
-36.50
-40.28
-40.86
-37.69
-31.02
-21.86
-11.64
-1.80
6.64
13.21
17.97
21.18
23.18
24.17
24.24
23.42
21.85
19.78
17.53
15.42
13.67
12.37
11.43
10.70
9.97
9.08
7.88
6.27
4.19
1.58
-1.54
-5.10
-8.92
-12.74
-16.38
-19.72
-22.86
-26.02
-29.53
-33.57
-38.12
-42.74
-46.70
-49.08
-49.00
-45.94
-39.91
-31.55
-21.95
-12.39
-3.96
2.66
7.26
10.05
11.36
11.57
10.96
9.77
8.26
6.72
5.49
4.77
4.63
4.95
5.52
6.12
6.58
6.78
6.63
6.07
4.99
3.39
1.34
-0.97
-3.30
-5.44
-7.29
-8.91
-10.53
-12.47
-15.07
-18.49
-22.65
-27.08
-30.93
-33.17
-32.90
-29.63
-23.51
-15.34
-6.30
2.41
9.93
15.87
20.21
23.18
24.98
25.75
25.60
24.70
23.37
22.03
21.06
20.68
20.84
21.26
21.58
21.54
21.02
20.14
19.07
17.97
16.83
15.52
13.82
11.57
8.76
5.60
2.45
-0.34
-2.59
-4.39
-6.12
-8.30
-11.34
-15.42
-20.32
-25.44
-29.93
-32.83
-33.35
-31.01
-25.85
-18.41
-9.70
-0.92
6.90
13.08
17.47
20.31
21.98
22.83
23.04
22.66
21.76
20.54
19.33
18.48
18.21
18.53
19.23
19.98
20.45
20.43
19.78
18.50
16.68
14.46
11.97
9.39
6.79
4.19
1.50
-1.36
-4.40
-7.50
-10.49
-13.19
-15.47
-17.43
-19.22
-21.12
-23.36
-26.14
-29.60
-33.70
-38.16
-42.33
-45.29
-45.98
-43.62
-38.02
-29.72
-19.86
-9.85
-0.85
6.47
12.04
16.20
19.38
21.85
23.68
24.85
25.38
25.44
25.31
25.25
25.34
25.48
25.44
25.01
24.16
23.05
21.92
20.95
20.12
19.21
17.91
15.99
13.43
10.49
7.54
4.94
2.84
1.15
-0.40
-2.11
-4.15
-6.48
-8.89
-11.13
-13.04
-14.65
-16.14
-17.80
-19.89
-22.58
-25.89
-29.66
-33.54
-36.94
-39.09
-39.20
-36.66
-31.32
-23.57
-14.34
-4.78
3.99
11.24
16.73
20.63
23.31
25.14
26.36
27.05
27.27
27.11
26.76
26.44
26.29
26.35
26.51
26.61
26.52
26.17
25.54
24.57
23.18
21.27
18.83
15.99
12.98
10.05
7.39
5.00
2.76
0.53
-1.81
-4.26
-6.75
-9.15
-11.39
-13.40
-15.24
-17.02
-18.96
-21.30
-24.28
-28.00
-32.32
-36.77
-40.56
-42.73
-42.44
-39.27
-33.45
-25.77
-17.44
-9.61
-3.13
1.67
4.87
6.76
7.64
7.68
6.98
5.66
3.95
2.18
0.77
0.06
0.22
1.17
2.61
4.07
5.13
5.47
5.06
4.02
2.62
1.03
-0.67
-2.53
-4.64
-7.07
-9.70
-12.32
-14.67
-16.54
-17.90
-18.90
-19.91
-21.31
-23.48
-26.57
-30.44
-34.56
-38.14
-40.24
-40.03
-37.06
-31.41
-23.72
-14.98
-6.23
1.66
8.19
13.19
16.70
18.89
19.93
20.05
19.53
18.73
18.02
17.63
17.64
17.94
18.30
18.46
18.25
17.55
16.38
14.81
12.93
10.90
8.83
6.83
4.93
3.10
1.19
-0.90
-3.25
-5.83
-8.45
-10.86
-12.83
-14.27
-15.28
-16.15
-17.29
-19.03
-21.59
-24.94
-28.74
-32.43
-35.17
-36.09
-34.48
-30.05
-23.08
-14.38
-5.06
3.81
11.43
17.45
21.88
24.97
27.00
28.23
28.85
28.99
28.75
28.25
27.58
26.88
26.28
25.86
25.64
25.49
25.25
24.71
23.74
22.34
20.62
18.79
17.02
15.41
13.90
12.35
10.61
8.66
6.60
4.68
3.13
2.08
1.52
1.26
1.01
0.44
-0.76
-2.82
-5.86
-9.84
-14.44
-19.08
-22.94
-25.15
-25.01
-22.29
-17.31
-10.92
-4.25
1.61
5.97
8.60
9.69
9.61
8.66
6.98
4.60
1.59
-1.85
-5.35
-8.52
-11.11
-13.05
-14.43
-15.37
-15.97
-16.31
-16.43
-16.52
-16.85
-17.71
-19.24
-21.34
-23.69
-25.87
-27.53
-28.54
-29.01
-29.20
-29.32
-29.48
-29.60
-29.50
-28.98
-27.94
-26.44
-24.76
-23.33
-22.64
-23.13
-24.98
-27.93
-31.25
-33.80
-34.33
-31.83
-25.90
-16.88
-5.76
6.10
17.35
27.04
34.75
40.54
44.78
47.87
50.06
51.42
51.99
51.85
51.27
50.59
50.12
49.95
49.95
49.87
49.55
48.98
48.39
47.92
47.54
46.98
45.77
43.56
40.23
36.00
31.28
26.50
21.99
17.93
14.38
11.37
8.90
6.86
5.01
2.95
0.22
-3.60
-8.73
-15.14
-22.48
-30.05
-36.92
-42.03
-44.45
-43.64
-39.65
-33.17
-25.36
-17.52
-10.69
-5.47
-1.97
0.03
0.83
0.66
-0.32
-1.98
-4.07
-6.26
-8.20
-9.65
-10.61
-11.31
-12.09
-13.22
-14.80
-16.77
-18.92
-21.11
-23.35
-25.79
-28.68
-32.19
-36.31
-40.77
-45.14
-48.98
-51.98
-54.14
-55.78
-57.50
-59.86
-63.20
-67.47
-72.16
-76.38
-79.12
-79.44
-76.67
-70.60
-61.56
-50.38
-38.20
-26.22
-15.38
-6.15
1.50
7.89
13.35
18.06
22.07
25.41
28.28
31.05
34.18
37.96
42.31
46.82
50.88
53.99
55.93
56.80
56.90
56.56
55.93
54.94
53.32
50.83
47.36
43.05
38.30
33.57
29.31
25.72
22.74
20.03
17.08
13.31
8.22
1.59
-6.39
-15.09
-23.49
-30.35
-34.55
-35.35
-32.61
-26.81
-18.96
-10.28
-1.91
5.35
11.12
15.49
18.74
21.26
23.30
24.97
26.26
27.18
27.85
28.48
29.30
30.41
31.71
32.96
33.85
34.15
33.84
33.08
32.08
30.95
29.60
27.78
25.22
21.84
17.80
13.45
9.22
5.44
2.24
-0.50
-3.01
-5.63
-8.67
-12.40
-16.94
-22.27
-28.07
-33.75
-38.44
-41.13
-40.98
-37.57
-31.13
-22.50
-12.97
-3.83
3.95
9.98
14.35
17.48
19.81
21.61
22.97
23.90
24.40
24.56
24.54
24.52
24.67
25.10
25.82
26.79
27.84
28.75
29.25
29.14
28.29
26.70
24.50
21.93
19.28
16.73
14.36
12.09
9.75
7.18
4.34
1.34
-1.69
-4.62
-7.41
-10.11
-12.85
-15.85
-19.41
-23.84
-29.33
-35.70
-42.29
-47.88
-51.10
-50.80
-46.57
-38.92
-29.13
-18.77
-9.27
-1.47
4.40
8.59
11.52
13.55
14.86
15.46
15.38
14.73
13.80
12.94
12.45
12.41
12.65
12.80
12.48
11.46
9.77
7.69
5.55
3.59
1.86
0.20
-1.67
-3.93
-6.60
-9.47
-12.18
-14.38
-15.86
-16.67
-17.06
-17.44
-18.24
-19.79
-22.26
-25.61
-29.54
-33.50
-36.66
-38.08
-36.96
-32.92
-26.17
-17.57
-8.33
0.37
7.66
13.28
17.38
20.36
22.55
24.10
25.03
25.32
25.12
24.66
24.30
24.32
24.81
25.65
26.59
27.35
27.70
27.56
26.91
25.79
24.20
22.15
19.62
16.64
13.28
9.66
5.91
2.17
-1.43
-4.77
-7.72
-10.17
-12.10
-13.66
-15.14
-16.98
-19.62
-23.35
-28.25
-34.02
-39.98
-45.17
-48.51
-49.07
-46.35
-40.45
-32.10
-22.43
-12.68
-3.90
3.34
8.89
13.02
16.15
18.64
20.72
22.41
23.65
24.35
24.57
24.49
24.34
24.37
24.66
25.17
25.70
26.09
26.15
25.77
24.87
23.37
21.26
18.60
15.54
12.34
9.26
6.50
4.13
2.07
0.07
-2.11
-4.65
-7.48
-10.34
-12.88
-14.84
-16.22
-17.34
-18.75
-21.05
-24.64
-29.55
-35.35
-41.16
-45.83
-48.16
-47.25
-42.79
-35.17
-25.45
-14.98
-5.03
3.50
10.28
15.38
19.12
21.81
23.74
25.09
25.97
26.49
26.71
26.74
26.66
26.55
26.39
26.17
25.83
25.32
24.64
23.85
22.97
21.97
20.75
19.17
17.12
14.65
11.93
9.22
6.78
4.76
3.11
1.61
-0.02
-2.04
-4.54
-7.38
-10.25
-12.80
-14.91
-16.75
-18.78
-21.58
-25.61
-30.99
-37.37
-43.94
-49.61
-53.18
-53.70
-50.71
-44.36
-35.45
-25.20
-14.92
-5.65
1.98
7.85
12.16
15.25
17.42
18.82
19.54
19.60
19.08
18.13
16.98
15.90
15.09
14.65
14.46
14.29
13.88
13.04
11.76
10.11
8.23
6.20
4.01
1.63
-0.94
-3.63
-6.31
-8.86
-11.19
-13.24
-15.01
-16.50
-17.72
-18.74
-19.64
-20.64
-21.97
-23.95
-26.82
-30.62
-35.03
-39.27
-42.23
-42.73
-39.93
-33.66
-24.55
-13.79
-2.82
7.12
15.29
21.45
25.78
28.67
30.49
31.54
32.01
32.02
31.67
31.08
30.43
29.90
29.61
29.64
29.89
30.12
30.06
29.43
28.11
26.12
23.66
20.96
18.26
15.65
13.12
10.55
7.82
4.88
1.75
-1.44
-4.55
-7.44
-10.08
-12.45
-14.58
-16.58
-18.59
-20.90
-23.90
-27.91
-32.98
-38.64
-43.88
-47.32
-47.72
-44.42
-37.60
-28.23
-17.72
-7.47
1.56
8.90
14.57
18.85
22.04
24.37
25.98
26.94
27.31
27.20
26.77
26.18
25.61
25.16
24.85
24.60
24.31
23.83
23.07
21.96
20.47
18.62
16.43
14.00
11.43
8.90
6.52
4.36
2.38
0.49
-1.40
-3.35
-5.35
-7.29
-9.12
-10.82
-12.43
-14.11
-16.09
-18.66
-22.07
-26.41
-31.43
-36.41
-40.24
-41.65
-39.67
-33.97
-25.06
-14.18
-2.91
7.39
15.83
22.23
26.90
30.32
32.89
34.81
36.09
36.72
36.79
36.48
36.04
35.60
35.17
34.61
33.74
32.50
30.93
29.22
27.48
25.69
23.64
21.02
17.66
13.61
9.22
4.97
1.25
-1.81
-4.41
-6.92
-9.71
-12.94
-16.53
-20.21
-23.69
-26.80
-29.59
-32.29
-35.26
-38.81
-43.14
-48.14
-53.34
-57.94
-60.93
-61.31
-58.45
-52.25
-43.25
-32.54
-21.40
-10.98
-2.02
5.29
11.12
15.78
19.54
22.51
24.75
26.40
27.76
29.26
31.30
34.04
37.35
40.84
44.02
46.50
48.16
49.05
49.32
49.00
47.92
45.64
41.57
35.18
26.27
15.13
2.63
-9.99
-21.62
-31.61
-40.08
-47.85
-56.07
-65.74
-77.21
-90.05
-103.06
-114.45
-122.10
-123.95
-118.54
-105.80
-87.61
-67.79
-51.08
-41.59
-41.10
-48.41
-59.78
-70.39
-76.13
-74.64
-65.65
-50.47
-31.30
-10.59
9.23
26.03
38.26
45.23
47.33
45.70
41.93
37.44
33.25
29.75
26.88
24.26
21.32
17.69
13.26
8.44
3.92
0.48
-1.36
-1.62
-0.75
0.52
1.58
2.07
1.97
1.39
0.39
-1.11
-3.26
-6.11
-9.47
-12.90
-15.81
-17.60
-17.84
-16.26
-12.86
-7.83
-1.57
5.36
12.34
18.78
24.25
28.52
31.56
33.49
34.49
34.75
34.47
33.86
33.11
32.41
31.89
31.62
31.55
31.60
31.67
31.64
31.39
30.80
29.78
28.26
26.26
23.83
21.08
18.14
15.08
11.99
8.90
5.81
2.74
-0.30
-3.27
-6.07
-8.60
-10.82
-12.78
-14.67
-16.77
-19.33
-22.51
-26.21
-30.06
-33.45
-35.55
-35.57
-32.91
-27.36
-19.22
-9.27
1.37
11.59
20.53
27.80
33.46
37.88
41.53
44.68
47.42
49.58
50.95
51.46
51.30
50.86
50.63
50.91
51.79
53.17
54.92
57.00
59.50
62.47
65.75
69.00
71.77
73.73
74.80
75.01
74.24
72.01
67.47
59.87
49.18
36.58
24.43
15.56
12.04
14.27
20.53
27.62
32.04
31.21
24.23
11.86
-4.02
-21.15
-37.35
-50.89
-60.51
-65.59
-66.31
-63.64
-59.10
-54.32
-50.49
-48.16
-47.20
-47.16
-47.52
-47.92
-48.10
-47.87
-47.04
-45.51
-43.36
-40.84
-38.36
-36.27
-34.78
-33.84
-33.21
-32.58
-31.73
-30.66
-29.54
-28.64
-28.21
-28.34
-28.99
-29.93
-30.94
-31.78
-32.36
-32.69
-32.87
-33.10
-33.63
-34.74
-36.63
-39.30
-42.42
-45.25
-46.87
-46.38
-43.23
-37.43
-29.51
-20.35
-10.97
-2.29
4.99
10.45
13.99
15.82
16.40
16.28
15.97
15.75
15.69
15.66
15.53
15.23
14.75
14.18
13.52
12.78
11.96
11.10
10.24
9.38
8.42
7.22
5.57
3.41
0.78
-2.15
-5.16
-8.06
-10.78
-13.30
-15.70
-18.11
-20.65
-23.44
-26.57
-29.96
-33.32
-36.11
-37.64
-37.29
-34.71
-29.91
-23.34
-15.71
-7.84
-0.40
6.17
11.67
16.11
19.56
22.12
23.80
24.64
24.70
24.17
23.31
22.40
21.67
21.20
20.94
20.81
20.68
20.46
20.11
19.61
18.91
17.98
16.82
15.47
14.01
12.48
10.89
9.19
7.27
5.09
2.67
0.11
-2.48
-5.08
-7.82
-10.95
-14.78
-19.49
-25.01
-30.91
-36.43
-40.63
-42.59
-41.69
-37.73
-31.05
-22.38
-12.69
-2.89
6.29
14.48
21.58
27.70
33.03
37.68
41.65
44.71
46.61
47.12
46.22
44.17
41.40
38.37
35.44
32.79
30.47
28.54
27.12
26.37
26.36
26.96
27.76
28.26
27.97
26.65
24.37
21.44
18.28
15.20
12.34
9.61
6.75
3.48
-0.44
-5.03
-10.11
-15.28
-19.94
-23.40
-25.01
-24.31
-21.16
-15.84
-8.88
-0.93
7.45
15.93
24.40
32.78
40.88
48.34
54.61
59.24
62.05
63.30
63.63
63.93
65.07
67.78
72.48
79.26
87.71
96.93
105.50
111.81
114.46
112.78
107.17
98.87
89.44
80.10
71.30
62.82
54.09
44.56
33.80
21.38
6.64
-11.30
-33.20
-59.30
-88.95
-120.69
-152.49
-182.17
-207.62
-226.91
-238.35
-240.60
-232.99
-215.75
-190.08
-157.97
-121.91
-84.65
-48.91
-17.13
9.02
29.01
43.60
54.55
63.88
72.83
81.50
88.93
94.04
96.52
97.19
97.50
98.39
99.38
98.41
92.55
79.34
57.82
29.11
-3.64
-35.75
-62.01
-78.05
-81.98
-75.66
-64.82
-57.58
-61.67
-81.44
-116.05
-159.69
-203.76
-239.77
-261.82
-267.60
-257.90
-235.34
-203.22
-164.80
-123.19
-81.45
-42.50
-8.89
17.73
37.01
50.20
59.92
69.33
81.03
95.86
112.35
127.27
136.98
139.12
133.87
124.00
113.75
107.09
106.19
110.73
118.51
126.64
132.98
136.96
139.71
143.43
150.52
162.62
179.80
200.21
220.16
234.73
238.82
228.62
203.05
164.67
119.50
75.46
39.86
16.92
6.28
3.43
1.71
-4.91
-19.68
-42.28
-69.70
-97.87
-123.29
-143.73
-158.23
-166.50
-168.51
-164.50
-155.14
-141.80
-126.34
-110.79
-96.66
-84.52
-73.90
-63.73
-52.94
-41.09
-28.61
-16.65
-6.59
0.58
4.51
5.65
4.85
3.02
0.76
-1.82
-4.96
-8.90
-13.53
-18.15
-21.59
-22.60
-20.36
-14.92
-7.23
1.17
8.74
14.42
17.92
19.50
19.76
19.23
18.31
17.22
16.16
15.26
14.57
14.04
13.43
12.50
11.02
8.98
6.51
3.82
1.11
-1.57
-4.22
-6.90
-9.61
-12.29
-14.86
-17.22
-19.38
-21.37
-23.28
-25.21
-27.35
-29.90
-33.07
-36.88
-41.07
-44.97
-47.54
-47.67
-44.51
-37.73
-27.62
-15.10
-1.56
11.34
21.96
29.01
31.93
31.14
27.92
24.01
20.93
19.47
19.42
19.89
19.83
18.64
16.41
13.79
11.63
10.63
11.15
13.12
16.00
18.71
19.65
17.08
9.63
-2.95
-19.35
-36.92
-52.52
-63.63
-69.34
-70.58
-69.56
-68.72
-69.63
-72.53
-76.41
-79.76
-81.23
-80.21
-76.84
-71.73
-65.52
-58.60
-51.06
-42.91
-34.36
-25.95
-18.42
-12.32
-7.63
-3.70
0.41
5.46
11.62
18.61
26.05
33.78
41.94
50.60
59.34
67.08
72.46
74.42
72.75
68.13
61.65
54.25
46.34
37.87
28.79
19.34
10.16
1.95
-4.84
-10.18
-14.36
-17.64
-19.97
-20.92
-19.80
-16.03
-9.37
-0.06
11.36
24.16
37.37
49.66
59.36
64.78
64.95
60.30
52.97
46.14
42.83
44.52
50.57
58.59
65.78
70.20
71.59
71.02
69.87
68.76
67.11
63.46
56.41
45.46
31.25
15.18
-1.41
-17.89
-34.41
-51.41
-68.83
-85.64
-99.99
-109.92
-114.32
-113.55
-109.37
-104.30
-100.66
-99.89
-102.38
-107.77
-115.22
-123.40
-130.23
-132.91
-128.80
-117.13
-100.36
-83.99
-74.33
-75.12
-84.94
-97.21
-103.00
-95.35
-72.64
-39.22
-3.19
27.46
47.93
57.61
58.99
55.65
50.49
45.14
40.20
35.82
32.00
28.54
24.87
19.94
12.61
2.30
-9.94
-21.07
-26.57
-22.11
-5.50
21.91
55.33
88.17
114.60
131.53
139.30
140.66
138.83
135.83
131.75
125.33
115.31
101.43
84.85
67.47
51.10
36.67
24.15
12.92
2.43
-7.35
-16.01
-22.95
-27.95
-31.47
-34.53
-38.32
-43.70
-50.79
-58.75
-66.11
-71.40
-73.95
-74.36
-74.28
-75.64
-79.76
-86.69
-95.18
-103.10
-108.07
-107.97
-101.49
-88.13
-68.45
-44.36
-19.06
3.68
20.55
29.78
31.44
26.72
17.50
5.52
-7.96
-21.94
-35.24
-46.34
-53.64
-56.01
-53.57
-47.12
-37.82
-26.86
-15.37
-4.25
5.64
13.58
21.24
28.55
34.45
37.71
38.19
37.10
36.58
38.15
43.26
52.66
65.78
81.38
98.01
114.59
128.58
138.22
142.63
141.91
136.88
127.86
115.09
99.06
81.05
62.96
46.82
33.48
22.31
11.68
-1.00
-17.54
-37.97
-60.43
-80.37
-92.83
-96.28
-94.41
-93.15
-97.36
-107.84
-121.62
-134.11
-141.61
-142.99
-139.71
-136.67
-134.47
-132.40
-128.92
-122.40
-111.90
-97.62
-80.88
-63.56
-47.14
-31.68
-16.69
-2.27
11.18
23.23
33.89
43.74
53.97
66.10
81.73
101.14
123.16
145.52
165.43
180.33
188.35
188.66
181.61
168.98
153.27
137.44
124.28
115.56
111.35
109.78
107.61
101.30
88.43
68.22
41.76
11.49
-19.59
-48.75
-73.84
-93.48
-106.98
-114.26
-115.97
-113.32
-107.92
-101.37
-95.00
-89.54
-85.03
-80.86
-75.98
-69.33
-60.14
-48.19
-33.90
-18.25
-2.38
12.60
25.96
37.32
46.52
53.39
57.72
59.22
57.73
53.45
46.95
39.09
30.82
22.97
16.15
10.51
5.76
1.18
-4.16
-10.90
-18.95
-27.18
-33.67
-36.36
-33.93
-26.48
-15.54
-3.41
7.70
16.47
22.64
26.69
29.28
30.88
31.77
32.23
32.82
34.34
37.49
42.49
48.76
54.94
59.47
61.11
59.55
55.43
50.17
45.28
41.93
40.53
40.70
41.53
41.91
40.83
37.66
32.18
24.56
15.20
4.62
-6.71
-18.44
-30.28
-41.99
-53.19
-63.33
-71.70
-77.57
-80.37
-79.97
-76.80
-71.82
-66.28
-61.34
-57.54
-54.62
-51.59
-47.13
-40.15
-30.35
-18.56
-6.80
2.29
6.18
3.47
-5.32
-17.53
-28.96
-35.25
-33.47
-23.23
-6.94
11.22
26.80
36.74
40.17
38.26
33.35
27.72
22.90
19.41
17.10
15.53
14.35
13.26
11.92
10.02
7.43
4.44
1.91
1.01
2.71
7.27
14.13
22.19
30.42
38.20
45.31
51.54
56.31
58.60
57.26
51.72
42.26
30.11
16.87
3.99
-7.55
-17.24
-24.90
-30.43
-34.02
-36.13
-37.67
-39.71
-43.18
-48.45
-55.14
-62.13
-67.82
-70.57
-69.10
-63.00
-53.01
-41.14
-30.29
-23.44
-22.66
-28.18
-38.06
-48.60
-55.42
-55.01
-45.94
-29.32
-8.31
13.14
31.69
45.55
54.59
59.80
62.34
62.99
61.94
59.18
54.97
50.10
45.77
43.20
43.10
45.41
49.34
53.64
57.03
58.54
57.66
54.46
49.56
44.03
39.09
35.76
34.38
34.36
34.37
32.71
28.03
19.79
8.48
-4.66
-18.12
-30.59
-41.15
-49.19
-54.29
-56.21
-55.01
-51.20
-45.77
-40.08
-35.65
-33.67
-34.72
-38.52
-43.96
-49.39
-53.05
-53.55
-50.28
-43.65
-35.12
-26.86
-21.22
-19.97
-23.62
-31.00
-39.47
-45.72
-46.95
-42.00
-31.76
-18.83
-6.49
2.51
6.79
6.58
3.23
-1.54
-6.25
-10.05
-12.52
-13.49
-12.73
-9.92
-4.89
2.23
10.83
20.00
28.78
36.53
42.98
48.16
52.20
55.23
57.45
59.14
60.65
62.17
63.52
64.04
63.00
59.85
54.63
47.91
40.41
32.68
24.87
16.94
8.99
1.42
-5.17
-10.51
-14.91
-19.31
-24.89
-32.55
-42.54
-54.36
-67.00
-79.22
-89.82
-97.77
-102.15
-102.36
-98.29
-90.57
-80.57
-69.96
-60.09
-51.50
-43.73
-35.68
-26.22
-14.89
-2.20
10.65
22.14
31.26
37.57
41.41
43.79
45.94
48.97
53.35
58.78
64.24
68.70
71.14
71.14
69.12
65.92
62.47
59.53
57.58
57.07
58.87
63.15
68.94
74.02
75.21
69.86
57.26
39.18
19.19
1.37
-12.49
-23.35
-33.81
-45.08
-56.43
-65.55
-70.60
-75.04
-80.94
-89.80
-102.13
-114.55
-123.83
-127.42
-124.42
-115.83
-103.84
-90.19
-76.27
-62.65
-49.17
-35.77
-22.59
-9.98
1.57
11.76
21.02
29.80
38.42
47.11
55.60
63.44
70.20
75.56
79.56
82.77
85.67
88.60
91.70
94.96
98.39
102.06
106.05
110.16
113.93
116.46
116.72
113.99
107.95
98.82
86.94
72.46
55.32
35.56
13.51
-9.93
-33.40
-55.40
-74.60
-90.25
-102.33
-111.35
-118.11
-123.54
-128.49
-133.59
-139.17
-145.13
-151.06
-156.59
-161.31
-164.71
-166.26
-165.31
-161.16
-153.12
-140.61
-123.47
-102.59
-79.00
-53.53
-27.00
-0.20
25.85
49.76
70.41
86.66
96.78
100.03
97.33
90.49
81.72
72.95
65.05
58.34
51.90
42.83
29.22
11.58
-7.86
-25.77
-38.74
-44.32
-40.52
-26.98
-6.70
17.04
42.05
66.30
88.32
107.50
118.33
117.51
115.52
117.46
119.84
119.57
113.61
100.42
80.75
57.75
37.16
24.32
20.76
26.01
38.73
56.22
75.40
93.21
107.10
116.15
119.69
115.75
103.28
83.17
57.56
29.73
2.85
-21.75
-40.84
-52.40
-58.50
-63.18
-69.23
-78.70
-89.64
-99.40
-106.27
-109.96
-112.00
-112.50
-112.30
-111.77
-110.48
-107.43
-102.27
-95.36
-87.75
-80.64
-75.43
-69.46
-61.07
-49.89
-36.68
-23.12
-10.61
-2.05
2.67
3.98
2.48
-1.36
-6.97
-12.68
-17.64
-21.50
-24.81
-27.90
-31.20
-34.85
-38.94
-43.21
-46.85
-48.84
-45.36
-34.14
-15.24
8.68
34.38
59.31
82.01
101.67
117.50
131.25
142.54
151.08
157.12
161.51
165.12
168.34
171.12
173.13
170.28
160.67
144.53
123.94
102.11
82.23
66.34
55.07
47.79
43.37
40.77
39.24
38.06
36.31
32.84
26.65
17.51
6.32
-5.18
-14.87
-21.31
-24.20
-24.39
-23.40
-22.95
-24.47
-28.90
-36.73
-47.91
-62.08
-78.60
-96.56
-114.86
-132.23
-147.32
-158.79
-165.48
-166.46
-161.39
-150.65
-135.29
-116.81
-96.79
-76.67
-57.40
-39.49
-22.99
-7.69
6.65
20.21
32.98
44.77
55.22
63.97
70.68
75.12
77.29
77.37
75.76
72.96
69.37
65.17
60.17
53.90
45.94
36.28
25.55
14.91
5.52
-1.91
-7.53
-12.19
-16.94
-22.37
-28.25
-33.64
-37.35
-38.71
-37.98
-36.45
-35.96
-38.22
-44.28
-54.33
-68.01
-84.70
-103.56
-123.29
-141.56
-155.17
-161.17
-158.68
-149.99
-139.97
-133.42
-131.80
-131.58
-125.53
-106.69
-72.66
-27.68
18.99
57.36
81.28
90.38
88.96
82.74
75.65
68.83
61.52
53.07
44.36
37.88
36.46
41.74
53.24
68.38
83.72
96.35
104.85
109.30
110.43
108.67
103.60
94.51
81.10
64.34
46.34
29.46
15.40
4.54
-3.60
-9.56
-12.92
-12.47
-6.90
3.97
18.26
32.35
41.91
43.60
36.38
21.91
3.82
-13.84
-28.02
-37.59
-43.05
-45.65
-46.30
-45.19
-42.05
-36.83
-30.20
-23.37
-17.57
-13.22
-9.78
-6.01
-0.74
6.36
14.58
22.40
28.27
31.25
31.47
29.90
27.90
26.60
26.41
27.07
27.79
27.80
26.69
24.51
21.63
18.36
14.69
10.18
4.34
-3.03
-11.39
-19.44
-25.54
-28.32
-27.46
-23.93
-19.71
-16.94
-16.98
-19.72
-23.58
-26.18
-25.36
-20.13
-11.10
-0.46
8.64
12.81
9.41
-2.64
-22.38
-46.86
-71.90
-93.17
-107.43
-113.24
-111.06
-102.68
-90.44
-76.60
-63.05
-51.32
-42.49
-37.14
-35.10
-35.48
-36.96
-38.35
-39.17
-39.76
-41.15
-44.40
-50.12
-58.02
-67.01
-75.43
-81.56
-84.15
-82.79
-78.21
-72.17
-67.02
-64.97
-67.21
-73.35
-81.33
-88.06
-90.46
-86.59
-76.20
-60.70
-42.42
-23.73
-6.31
9.16
22.62
34.20
43.74
50.69
54.45
54.62
51.47
45.82
38.84
31.80
25.72
21.38
19.27
19.57
22.16
26.44
31.47
36.02
38.84
38.98
36.01
30.23
22.75
15.48
10.82
11.30
18.74
33.74
55.09
80.12
105.23
126.96
142.87
151.92
154.45
151.64
145.03
136.04
125.90
115.52
105.60
96.65
88.81
81.96
75.68
69.56
63.36
57.08
50.84
44.77
38.85
32.87
26.61
19.93
12.95
5.99
-0.51
-6.20
-10.87
-14.41
-16.82
-18.17
-18.64
-18.53
-18.28
-18.46
-19.47
-21.54
-24.54
-28.02
-31.24
-33.42
-33.93
-32.54
-29.53
-25.47
-21.05
-16.64
-12.13
-6.93
-0.30
8.26
18.76
30.56
42.62
53.61
62.34
67.84
69.45
66.91
60.14
49.48
35.62
19.87
3.90
-10.60
-22.43
-31.48
-38.49
-44.63
-50.55
-55.83
-59.00
-58.26
-52.49
-42.04
-28.84
-15.84
-6.17
-2.20
-4.96
-13.90
-27.14
-42.07
-55.96
-66.87
-73.92
-77.40
-78.26
-77.64
-76.43
-75.04
-73.54
-71.63
-68.88
-64.75
-58.85
-51.06
-41.63
-31.29
-20.99
-11.69
-4.09
1.45
4.98
6.84
7.55
7.75
7.91
8.35
9.10
10.04
10.92
11.54
11.72
11.40
10.63
9.46
8.07
6.59
5.17
3.81
2.43
0.87
-1.04
-3.41
-6.35
-9.94
-14.29
-19.35
-24.89
-30.39
-35.06
-38.06
-38.68
-36.62
-32.01
-25.37
-17.44
-8.99
-0.74
6.76
13.07
17.95
21.35
23.39
24.35
24.55
24.29
23.80
23.25
22.75
22.41
22.30
22.46
22.81
23.18
23.38
23.26
22.82
22.20
21.59
21.07
20.46
19.37
17.31
13.94
9.25
3.58
-2.58
-8.81
-14.90
-20.83
-26.45
-31.36
-34.80
-35.89
-33.98
-28.96
-21.37
-12.23
-2.65
6.51
14.74
21.95
28.17
33.46
37.72
40.73
42.36
42.56
41.52
39.56
37.06
34.29
31.42
28.60
25.96
23.75
22.20
21.42
21.31
21.51
21.54
20.95
19.50
17.08
13.68
9.29
3.93
-2.27
-9.03
-15.85
-22.18
-27.58
-31.80
-34.75
-36.46
-36.88
-35.80
-32.95
-28.05
-21.03
-12.13
-1.97
8.50
18.18
26.09
31.65
34.81
36.08
36.25
36.20
36.52
37.43
38.82
40.32
41.67
42.77
43.82
45.17
47.19
49.98
53.22
56.26
58.14
57.98
55.20
49.72
42.02
33.02
23.86
15.62
9.15
4.84
2.63
2.01
2.18
2.21
1.20
-1.55
-6.41
-13.29
-21.70
-30.72
-39.21
-45.94
-49.87
-50.39
-47.44
-41.58
-33.77
-25.18
-16.82
-9.34
-2.96
2.46
7.12
11.15
14.46
16.92
18.33
18.71
18.26
17.30
16.20
15.27
14.70
14.52
14.66
14.92
15.10
15.03
14.63
13.98
13.18
12.40
11.65
10.86
9.81
8.23
5.99
3.04
-0.45
-4.23
-8.02
-11.65
-15.09
-18.47
-22.04
-25.98
-30.39
-35.10
-39.68
-43.42
-45.50
-45.21
-42.15
-36.45
-28.72
-19.95
-11.12
-3.01
3.91
9.51
13.75
16.61
18.07
18.17
17.11
15.33
13.32
11.54
10.24
9.43
9.01
8.83
8.79
8.84
8.88
8.82
8.41
7.41
5.60
2.89
-0.72
-5.04
-9.82
-14.81
-19.78
-24.61
-29.26
-33.83
-38.47
-43.33
-48.47
-53.73
-58.71
-62.73
-65.02
-64.83
-61.72
-55.66
-47.11
-36.95
-26.28
-16.18
-7.45
-0.54
4.53
8.04
10.44
12.17
13.58
14.87
16.08
17.15
17.90
18.16
17.77
16.68
15.01
13.00
11.06
9.56
8.76
8.71
9.14
9.58
9.46
8.31
5.95
2.53
-1.53
-5.74
-9.75
-13.51
-17.25
-21.40
-26.38
-32.41
-39.30
-46.41
-52.74
-57.09
-58.47
-56.32
-50.69
-42.19
-31.85
-20.74
-9.76
0.42
9.48
17.18
23.43
28.11
31.28
33.06
33.80
33.84
33.45
32.74
31.60
30.03
28.15
26.50
25.80
26.60
28.93
32.15
35.12
36.60
35.77
32.35
26.66
19.33
11.14
2.92
-4.62
-10.91
-15.78
-19.53
-22.87
-26.64
-31.35
-36.97
-42.76
-47.70
-50.79
-51.48
-49.76
-45.97
-40.60
-33.99
-26.39
-17.90
-8.79
0.54
9.47
17.34
23.69
28.24
31.00
32.11
32.06
31.90
33.41
38.61
48.81
63.56
80.22
94.77
103.50
104.88
100.31
93.38
88.08
86.85
89.85
95.36
101.10
105.21
106.50
103.95
96.19
81.59
58.93
28.35
-8.38
-48.21
-87.88
-124.78
-157.46
-185.49
-208.81
-227.31
-240.58
-248.05
-249.25
-244.07
-232.79
-215.92
-194.10
-167.94
-138.18
-105.81
-72.02
-38.05
-5.01
26.08
54.05
77.29
93.91
102.30
102.00
94.34
82.36
69.79
59.78
53.81
51.53
51.41
51.74
51.34
49.71
46.71
42.16
35.84
27.70
18.16
8.09
-1.39
-9.29
-15.01
-18.39
-19.54
-18.71
-16.13
-12.02
-6.67
-0.38
6.56
14.00
21.90
30.35
39.23
48.14
56.27
62.46
65.60
64.98
60.61
53.29
44.45
35.64
28.16
22.68
19.09
16.65
14.23
10.68
5.13
-2.73
-12.67
-23.92
-35.41
-45.99
-54.67
-60.77
-64.03
-64.61
-63.07
-60.20
-56.92
-53.95
-51.61
-49.59
-47.01
-42.67
-35.49
-24.96
-11.49
3.67
18.76
32.06
42.42
49.45
53.53
55.47
56.20
56.62
57.46
59.31
62.43
66.54
70.61
72.93
71.53
64.83
52.31
34.81
14.34
-6.56
-25.57
-41.23
-53.08
-61.48
-67.20
-70.93
-73.07
-73.68
-72.54
-69.32
-63.62
-55.11
-43.60
-29.21
-12.55
5.28
22.80
38.38
50.56
58.34
61.32
59.74
54.48
46.94
38.85
31.98
27.73
26.68
28.44
31.59
34.21
34.43
31.16
24.39
15.21
5.27
-3.78
-10.86
-15.62
-18.33
-19.69
-20.51
-21.40
-22.55
-23.39
-22.61
-18.54
-9.96
2.97
18.22
32.22
41.15
42.52
36.43
25.62
14.40
6.87
5.35
9.76
18.03
27.36
35.43
41.20
44.86
47.22
48.94
50.14
50.37
48.99
45.67
40.55
34.27
27.60
21.18
15.45
10.65
6.87
4.13
2.34
1.28
0.69
0.47
0.73
1.76
3.84
6.98
10.83
14.76
18.13
20.48
21.59
21.30
19.24
14.77
7.14
-4.06
-18.49
-34.93
-51.56
-66.46
-78.24
-86.27
-90.63
-91.86
-90.69
-87.93
-84.28
-80.28
-76.04
-71.26
-65.30
-57.61
-48.13
-37.44
-26.57
-16.55
-7.97
-0.81
5.34
10.92
16.13
21.03
25.83
30.97
36.92
43.64
50.13
54.57
55.07
50.64
41.86
30.75
19.93
11.55
6.50
4.48
4.48
5.51
7.01
8.63
10.01
10.49
9.26
5.79
0.18
-6.76
-13.79
-19.61
-23.34
-24.58
-23.47
-20.40
-15.91
-10.51
-4.62
1.39
7.23
12.61
17.30
21.03
23.65
25.06
25.34
24.72
23.57
22.33
21.32
20.72
20.44
20.25
19.88
19.14
17.97
16.48
14.77
12.90
10.79
8.28
5.23
1.60
-2.48
-6.73
-10.88
-14.75
-18.34
-21.87
-25.64
-29.95
-34.94
-40.45
-46.07
-51.11
-54.78
-56.34
-55.28
-51.44
-45.10
-36.85
-27.53
-17.93
-8.72
-0.37
6.87
12.86
17.56
20.95
23.12
24.23
24.51
24.20
23.48
22.46
21.13
19.50
17.66
15.77
14.03
12.56
11.34
10.13
8.66
6.72
4.25
1.40
-1.58
-4.50
-7.31
-10.10
-13.10
-16.56
-20.68
-25.54
-30.95
-36.47
-41.36
-44.74
-45.76
-43.89
-39.09
-31.81
-22.93
-13.45
-4.31
3.84
10.60
15.86
19.64
22.09
23.38
23.76
23.47
22.76
21.87
20.93
20.01
19.08
18.03
16.80
15.36
13.83
12.35
11.07
9.96
8.88
7.54
5.72
3.27
0.26
-3.13
-6.64
-10.06
-13.29
-16.41
-19.60
-23.19
-27.48
-32.64
-38.54
-44.67
-50.17
-53.95
-55.03
-52.81
-47.28
-39.08
-29.24
-18.97
-9.26
-0.73
6.40
12.18
16.76
20.24
22.64
24.01
24.48
24.34
23.93
23.58
23.43
23.45
23.44
23.16
22.51
21.50
20.32
19.15
18.16
17.35
16.56
15.51
13.90
11.55
8.44
4.78
0.82
-3.12
-6.89
-10.45
-13.91
-17.43
-21.17
-25.24
-29.72
-34.69
-40.11
-45.71
-50.87
-54.67
-56.12
-54.49
-49.54
-41.65
-31.75
-21.04
-10.55
-0.96
7.52
14.93
21.42
27.08
31.88
35.62
38.10
39.46
40.22
41.12
42.75
45.34
48.78
52.67
56.29
58.96
60.49
61.31
62.18
63.64
65.91
68.91
72.24
74.94
75.89
74.52
71.15
66.64
61.62
56.37
50.77
44.37
36.05
24.45
8.83
-10.52
-32.54
-56.04
-79.50
-100.87
-114.35
-113.93
-98.45
-73.58
-47.75
-27.26
-14.86
-10.36
-10.78
-13.53
-17.30
-21.95
-27.60
-33.99
-39.22
-42.13
-42.18
-39.44
-34.59
-29.01
-24.22
-21.04
-19.13
-17.40
-15.00
-11.50
-7.04
-2.34
1.43
3.17
2.39
-0.37
-3.95
-7.28
-9.57
-10.51
-10.33
-9.72
-9.47
-10.13
-11.83
-14.30
-17.22
-20.18
-22.72
-24.34
-24.59
-23.13
-19.80
-14.65
-8.03
-0.56
7.08
14.26
20.58
25.78
29.77
32.53
34.08
34.45
33.78
32.25
30.16
27.89
25.82
24.19
23.11
22.46
21.98
21.40
20.54
19.37
18.04
16.69
15.40
14.06
12.45
10.39
7.84
5.02
2.27
-0.11
-2.02
-3.62
-5.31
-7.47
-10.36
-13.97
-18.09
-22.28
-26.04
-28.78
-29.92
-28.97
-25.70
-20.23
-13.12
-5.21
2.58
9.49
15.07
19.27
22.27
24.31
25.62
26.26
26.26
25.61
24.45
23.01
21.60
20.47
19.73
19.28
18.89
18.28
17.24
15.73
13.85
11.80
9.74
7.76
5.84
3.86
1.73
-0.61
-3.14
-5.78
-8.43
-11.05
-13.61
-16.13
-18.56
-20.91
-23.17
-25.43
-27.74
-30.08
-32.20
-33.58
-33.55
-31.55
-27.36
-21.24
-13.87
-6.10
1.28
7.80
13.29
17.82
21.49
24.32
26.26
27.22
27.22
26.44
25.17
23.72
22.34
21.11
19.97
18.83
17.59
16.20
14.68
13.09
11.44
9.78
8.08
6.37
4.60
2.75
0.76
-1.40
-3.72
-6.10
-8.41
-10.49
-12.24
-13.67
-14.92
-16.21
-17.77
-19.77
-22.18
-24.85
-27.42
-29.44
-30.36
-29.70
-27.15
-22.68
-16.55
-9.30
-1.58
6.00
13.00
19.14
24.26
28.24
31.01
32.55
33.02
32.72
32.08
31.49
31.14
31.02
30.93
30.58
29.80
28.61
27.20
25.83
24.65
23.58
22.33
20.56
18.02
14.64
10.49
5.79
0.76
-4.34
-9.31
-13.96
-18.27
-22.48
-27.07
-32.62
-39.44
-47.35
-55.49
-62.60
-67.37
-68.99
-67.28
-62.76
-56.28
-48.73
-40.79
-32.91
-25.42
-18.62
-12.82
-8.28
-5.09
-3.13
-2.04
-1.44
-0.98
-0.47
0.09
0.58
0.87
0.97
0.99
1.19
1.78
2.79
4.04
5.14
5.74
5.57
4.66
3.24
1.62
0.04
-1.39
-2.74
-4.20
-6.01
-8.36
-11.36
-14.97
-18.94
-22.83
-26.02
-27.84
-27.77
-25.54
-21.27
-15.41
-8.65
-1.65
5.02
10.99
16.04
20.05
22.90
24.54
25.00
24.51
23.43
22.18
21.08
20.28
19.71
19.19
18.54
17.70
16.76
15.89
15.25
14.86
14.56
14.08
13.16
11.60
9.42
6.81
4.05
1.38
-1.07
-3.31
-5.49
-7.83
-10.50
-13.62
-17.16
-20.91
-24.42
-27.12
-28.42
-27.87
-25.35
-21.12
-15.68
-9.69
-3.75
1.72
6.41
10.18
12.93
14.63
15.35
15.27
14.69
13.93
13.26
12.87
12.77
12.85
12.90
12.72
12.18
11.32
10.25
9.17
8.22
7.41
6.65
5.75
4.53
2.89
0.84
-1.49
-3.93
-6.33
-8.60
-10.73
-12.83
-15.09
-17.69
-20.72
-24.10
-27.45
-30.21
-31.72
-31.46
-29.18
-25.03
-19.48
-13.19
-6.83
-0.99
3.94
7.75
10.40
11.94
12.54
12.45
11.90
11.12
10.31
9.59
9.03
8.66
8.48
8.45
8.46
8.40
8.18
7.71
7.02
6.15
5.14
4.05
2.86
1.51
-0.06
-1.91
-4.01
-6.34
-8.86
-11.58
-14.55
-17.79
-21.19
-24.45
-27.06
-28.42
-28.02
-25.67
-21.53
-16.08
-9.97
-3.81
1.92
6.97
11.20
14.54
16.93
18.32
18.74
18.33
17.38
16.20
15.10
14.24
13.63
13.19
12.74
12.20
11.51
10.74
9.95
9.18
8.38
7.41
6.13
4.42
2.27
-0.16
-2.66
-5.01
-7.08
-8.90
-10.72
-12.83
-15.51
-18.80
-22.46
-25.94
-28.52
-29.54
-28.56
-25.54
-20.78
-14.86
-8.47
-2.19
3.49
8.29
12.06
14.82
16.67
17.81
18.44
18.71
18.74
18.52
18.10
17.51
16.83
16.12
15.35
14.48
13.45
12.26
10.99
9.77
8.66
7.58
6.37
4.81
2.76
0.21
-2.67
-5.63
-8.40
-10.76
-12.69
-14.30
-15.86
-17.69
-19.99
-22.76
-25.68
-28.24
-29.77
-29.66
-27.57
-23.54
-17.98
-11.55
-4.99
1.12
6.44
10.92
14.63
17.68
20.09
21.84
22.91
23.39
23.43
23.22
22.93
22.56
22.09
21.45
20.61
19.61
18.50
17.30
16.01
14.61
13.07
11.40
9.55
7.45
5.02
2.26
-0.74
-3.74
-6.48
-8.83
-10.89
-12.89
-15.12
-17.78
-20.82
-23.98
-26.85
-28.95
-29.81
-29.07
-26.54
-22.29
-16.73
-10.48
-4.29
1.25
5.79
9.30
11.90
13.82
15.16
15.94
16.15
15.84
15.12
14.20
13.31
12.56
12.00
11.56
11.14
10.67
10.12
9.45
8.62
7.54
6.13
4.34
2.21
-0.08
-2.34
-4.39
-6.19
-7.81
-9.46
-11.34
-13.62
-16.33
-19.31
-22.25
-24.65
-26.00
-25.81
-23.85
-20.17
-15.14
-9.36
-3.47
1.96
6.61
10.32
13.10
15.02
16.11
16.43
16.10
15.32
14.34
13.41
12.68
12.14
11.65
11.06
10.27
9.31
8.29
7.34
6.49
5.68
4.74
3.51
1.90
-0.08
-2.31
-4.64
-6.88
-8.97
-10.92
-12.88
-15.04
-17.60
-20.65
-24.02
-27.34
-29.99
-31.33
-30.89
-28.54
-24.49
-19.28
-13.54
-7.80
-2.42
2.41
6.65
10.19
12.94
14.79
15.76
15.98
15.71
15.26
14.83
14.54
14.34
14.10
13.69
13.03
12.11
11.01
9.84
8.68
7.59
6.50
5.34
3.95
2.23
0.12
-2.30
-4.86
-7.36
-9.61
-11.58
-13.40
-15.34
-17.66
-20.49
-23.67
-26.80
-29.26
-30.48
-30.06
-27.98
-24.46
-19.95
-14.93
-9.80
-4.84
-0.20
3.96
7.51
10.30
12.22
13.25
13.51
13.24
12.74
12.28
11.99
11.83
11.68
11.37
10.87
10.21
9.54
8.92
8.32
7.59
6.55
5.11
3.31
1.32
-0.65
-2.49
-4.19
-5.89
-7.73
-9.85
-12.40
-15.38
-18.73
-22.27
-25.58
-28.15
-29.39
-28.83
-26.28
-21.95
-16.38
-10.28
-4.40
0.73
4.83
7.88
9.99
11.28
11.86
11.77
11.13
10.10
8.94
7.94
7.32
7.16
7.38
7.78
8.17
8.36
8.26
7.85
7.11
6.06
4.72
3.10
1.22
-0.88
-3.17
-5.59
-8.05
-10.52
-13.07
-15.83
-18.95
-22.45
-26.05
-29.19
-31.11
-31.12
-28.90
-24.66
-19.06
-12.96
-7.13
-2.02
2.26
5.76
8.58
10.66
11.94
12.40
12.18
11.58
10.97
10.59
10.50
10.60
10.68
10.58
10.25
9.73
9.11
8.44
7.70
6.79
5.59
3.99
1.96
-0.39
-2.87
-5.26
-7.44
-9.43
-11.41
-13.65
-16.37
-19.63
-23.23
-26.74
-29.53
-30.95
-30.50
-27.95
-23.45
-17.44
-10.64
-3.73
2.69
8.27
12.89
16.56
19.36
21.36
22.65
23.31
23.49
23.33
23.02
22.66
22.34
22.06
21.79
21.47
21.04
20.51
19.86
19.06
18.05
16.72
14.98
12.80
10.27
7.57
4.96
2.64
0.75
-0.77
-2.09
-3.51
-5.33
-7.82
-11.06
-14.87
-18.79
-22.11
-24.02
-23.88
-21.41
-16.79
-10.62
-3.75
3.01
9.05
14.06
17.96
20.82
22.77
23.92
24.44
24.49
24.27
23.96
23.62
23.23
22.67
21.80
20.54
18.99
17.31
15.73
14.45
13.47
12.64
11.70
10.42
8.68
6.51
4.10
1.64
-0.65
-2.72
-4.56
-6.28
-8.08
-10.14
-12.64
-15.64
-19.05
-22.58
-25.71
-27.79
-28.25
-26.70
-23.15
-17.95
-11.79
-5.39
0.65
5.93
10.33
13.85
16.52
18.34
19.29
19.43
18.94
18.05
17.04
16.10
15.37
14.90
14.70
14.76
15.01
15.30
15.40
15.08
14.13
12.51
10.30
7.68
4.85
1.97
-0.83
-3.47
-5.91
-8.13
-10.23
-12.37
-14.77
-17.54
-20.61
-23.56
-25.74
-26.42
-25.06
-21.53
-16.19
-9.72
-2.94
3.45
9.01
13.52
16.93
19.28
20.61
21.01
20.68
19.90
18.97
18.14
17.50
17.01
16.50
15.85
15.01
14.06
13.12
12.29
11.58
10.85
9.89
8.50
6.63
4.35
1.90
-0.49
-2.64
-4.50
-6.21
-7.93
-9.91
-12.29
-15.09
-18.14
-21.03
-23.21
-24.02
-22.96
-19.83
-14.85
-8.63
-1.95
4.46
10.12
14.83
18.56
21.39
23.33
24.40
24.68
24.33
23.64
22.89
22.25
21.74
21.20
20.47
19.46
18.21
16.90
15.73
14.78
13.95
13.04
11.79
10.06
7.85
5.29
2.53
-0.30
-3.14
-5.93
-8.63
-11.20
-13.66
-16.15
-18.86
-21.93
-25.30
-28.56
-31.05
-32.00
-30.81
-27.34
-21.89
-15.17
-8.06
-1.28
4.65
9.56
13.44
16.36
18.33
19.36
19.48
18.86
17.81
16.70
15.86
15.41
15.28
15.21
14.95
14.30
13.28
12.07
10.90
9.90
9.08
8.26
7.20
5.74
3.87
1.72
-0.49
-2.64
-4.69
-6.75
-8.91
-11.23
-13.67
-16.17
-18.72
-21.35
-24.06
-26.73
-28.97
-30.23
-29.88
-27.49
-22.97
-16.70
-9.40
-1.96
4.82
10.42
14.65
17.62
19.57
20.77
21.35
21.37
20.88
20.01
18.97
18.08
17.54
17.41
17.52
17.58
17.32
16.57
15.39
13.95
12.46
11.05
9.67
8.20
6.45
4.35
1.93
-0.64
-3.12
-5.31
-7.09
-8.54
-9.86
-11.34
-13.23
-15.65
-18.52
-21.55
-24.28
-26.16
-26.65
-25.41
-22.43
-18.01
-12.70
-7.14
-1.82
2.94
7.02
10.38
12.97
14.69
15.49
15.46
14.81
13.89
12.96
12.20
11.60
11.08
10.55
9.99
9.43
8.92
8.48
8.04
7.47
6.61
5.34
3.61
1.49
-0.91
-3.43
-5.93
-8.33
-10.58
-12.71
-14.78
-16.86
-18.98
-21.09
-22.98
-24.29
-24.58
-23.44
-20.66
-16.39
-11.08
-5.36
0.18
5.16
9.40
12.87
15.53
17.31
18.11
18.03
17.32
16.43
15.72
15.35
15.19
14.91
14.20
12.91
11.11
9.00
6.74
4.38
1.95
-0.55
-2.98
-5.13
-6.78
-7.79
-8.12
-7.85
-7.16
-6.27
-5.52
-5.29
-5.91
-7.59
-10.21
-13.34
-16.28
-18.29
-18.81
-17.70
-15.25
-12.13
-9.08
-6.71
-5.24
-4.52
-4.09
-3.41
-2.03
0.29
3.52
7.35
11.15
14.23
15.97
16.17
15.20
13.93
13.34
14.02
15.92
18.26
19.92
19.97
18.06
14.53
10.23
6.06
2.65
0.19
-1.50
-2.79
-4.06
-5.59
-7.58
-10.17
-13.46
-17.47
-21.94
-26.34
-29.83
-31.57
-30.97
-27.97
-23.04
-17.01
-10.81
-5.17
-0.48
3.18
5.92
7.89
9.24
10.05
10.39
10.33
9.96
9.38
8.60
7.65
6.51
5.21
3.82
2.42
1.11
-0.07
-1.05
-1.83
-2.46
-3.10
-3.96
-5.27
-7.19
-9.70
-12.65
-15.84
-19.14
-22.61
-26.42
-30.82
-35.89
-41.47
-47.08
-52.02
-55.51
-56.79
-55.38
-51.08
-44.11
-35.05
-24.73
-14.06
-3.82
5.48
13.67
20.85
27.34
33.48
39.53
45.60
51.63
57.43
62.71
67.12
70.32
72.07
72.15
70.49
67.07
62.00
55.44
47.67
39.11
30.26
21.69
13.89
7.17
1.66
-2.73
-6.21
-9.04
-11.45
-13.61
-15.57
-17.30
-18.70
-19.64
-19.99
-19.65
-18.51
-16.51
-13.63
-10.01
-5.97
-2.07
0.95
2.35
1.72
-0.82
-4.47
-7.94
-9.88
-9.28
-5.85
-0.11
6.90
13.91
19.84
24.02
26.30
26.98
26.93
27.36
29.47
34.00
40.70
48.28
54.88
58.82
59.27
56.48
51.35
44.76
37.06
28.04
17.46
5.57
-6.59
-17.45
-25.54
-30.05
-31.12
-29.64
-26.78
-23.59
-20.70
-18.33
-16.41
-14.80
-13.47
-12.51
-12.13
-12.47
-13.46
-14.78
-15.92
-16.34
-15.71
-13.98
-11.48
-8.64
-5.92
-3.62
-1.86
-0.71
-0.23
-0.54
-1.69
-3.59
-5.96
-8.35
-10.35
-11.72
-12.54
-13.13
-14.02
-15.70
-18.48
-22.38
-27.10
-32.02
-36.31
-39.15
-39.92
-38.39
-34.74
-29.53
-23.51
-17.40
-11.75
-6.83
-2.71
0.69
3.48
5.74
7.49
8.78
9.62
10.09
10.25
10.13
9.72
9.02
8.06
6.91
5.67
4.50
3.47
2.53
1.59
0.51
-0.79
-2.30
-3.93
-5.51
-6.86
-7.89
-8.55
-8.93
-9.18
-9.57
-10.37
-11.82
-14.05
-16.93
-20.09
-22.92
-24.70
-24.85
-23.13
-19.67
-14.98
-9.74
-4.60
0.02
3.94
7.14
9.66
11.50
12.65
13.15
13.09
12.71
12.27
11.99
11.96
12.11
12.28
12.25
11.87
11.11
10.05
8.84
7.66
6.57
5.50
4.26
2.62
0.44
-2.19
-4.98
-7.54
-9.58
-11.04
-12.17
-13.39
-15.05
-17.32
-20.00
-22.65
-24.76
-25.83
-25.60
-24.01
-21.16
-17.29
-12.72
-7.85
-3.09
1.16
4.65
7.33
9.30
10.81
12.01
12.99
13.70
14.01
13.87
13.35
12.61
11.80
10.96
10.03
8.92
7.57
6.12
4.76
3.68
2.90
2.25
1.44
0.24
-1.39
-3.28
-5.17
-6.81
-8.13
-9.21
-10.28
-11.55
-13.17
-15.16
-17.38
-19.60
-21.42
-22.41
-22.19
-20.55
-17.55
-13.47
-8.81
-4.06
0.33
4.09
7.08
9.31
10.86
11.83
12.35
12.55
12.52
12.33
12.04
11.69
11.32
10.91
10.43
9.85
9.16
8.38
7.53
6.62
5.60
4.39
2.93
1.19
-0.72
-2.67
-4.50
-6.11
-7.47
-8.65
-9.79
-11.08
-12.66
-14.61
-16.87
-19.19
-21.18
-22.39
-22.42
-21.06
-18.34
-14.52
-10.00
-5.25
-0.73
3.20
6.34
8.62
10.11
10.98
11.41
11.56
11.52
11.36
11.12
10.86
10.63
10.47
10.33
10.13
9.77
9.17
8.33
7.32
6.21
5.05
3.85
2.59
1.23
-0.22
-1.73
-3.24
-4.72
-6.19
-7.73
-9.46
-11.47
-13.76
-16.16
-18.37
-19.96
-20.52
-19.75
-17.60
-14.22
-10.01
-5.44
-0.97
3.01
6.25
8.63
10.12
10.75
10.63
9.88
8.69
7.27
5.79
4.43
3.28
2.45
1.99
1.91
2.16
2.63
3.15
3.59
3.87
3.99
4.04
4.09
4.22
4.44
4.68
4.86
4.87
4.49
3.49
1.64
-1.14
-4.69
-8.56
-12.11
-14.69
-15.91
-15.68
-14.36
-12.63
-11.21
-10.74
-11.51
-13.44
-16.14
-19.01
-21.49
-23.10
-23.63
-22.98
-21.21
-18.38
-14.60
-10.02
-4.93
0.24
4.97
8.69
10.94
11.35
9.83
6.48
1.68
-3.95
-9.51
-14.06
-16.77
-17.22
-15.52
-12.30
-8.56
-5.22
-2.96
-1.94
-1.88
-2.21
-2.30
-1.62
0.11
2.92
6.63
10.88
15.21
19.15
22.22
24.07
24.46
23.32
20.77
17.10
12.76
8.21
3.95
0.31
-2.56
-4.66
-6.14
-7.16
-7.83
-8.21
-8.30
-8.14
-7.87
-7.74
-8.08
-9.23
-11.38
-14.50
-18.31
-22.39
-26.22
-29.38
-31.56
-32.59
-32.45
-31.15
-28.80
-25.52
-21.52
-17.07
-12.48
-8.11
-4.34
-1.54
-0.03
0.07
-1.15
-3.23
-5.42
-6.70
-6.03
-2.52
4.29
14.24
26.46
39.53
51.77
61.75
68.61
72.25
73.16
72.17
70.02
67.17
63.75
59.67
54.71
48.73
41.65
33.62
25.00
16.39
8.55
2.18
-2.19
-4.46
-5.03
-4.70
-4.51
-5.40
-7.86
-11.59
-15.54
-18.18
-18.24
-15.30
-10.18
-4.77
-1.12
-0.66
-3.44
-8.26
-13.24
-16.87
-18.56
-18.86
-18.92
-19.83
-22.09
-25.50
-29.47
-33.46
-37.20
-40.74
-44.18
-47.54
-50.56
-52.78
-53.77
-53.29
-51.40
-48.54
-45.41
-42.73
-41.05
-40.50
-40.84
-41.60
-42.35
-42.90
-43.25
-43.46
-43.28
-42.11
-39.08
-33.43
-24.76
-13.12
1.13
17.52
35.49
54.07
71.56
85.68
94.23
96.13
92.19
84.92
77.55
72.54
70.41
69.72
67.97
63.06
54.38
43.09
31.37
21.40
14.38
10.36
8.58
8.10
8.33
9.17
10.85
13.62
17.48
22.17
27.15
31.78
35.41
37.76
39.13
40.50
43.09
47.71
54.03
60.42
64.42
63.79
57.64
46.87
33.87
21.49
11.92
6.02
3.32
2.55
2.26
1.23
-1.32
-5.74
-11.96
-19.49
-27.56
-35.30
-41.95
-47.10
-50.81
-53.47
-55.54
-57.25
-58.47
-58.92
-58.48
-57.44
-56.42
-56.09
-56.70
-57.85
-58.43
-57.03
-52.37
-43.76
-31.35
-16.07
0.54
16.78
31.14
42.53
50.46
54.89
56.11
54.67
51.21
46.54
41.64
37.68
35.81
37.06
41.89
50.04
60.41
71.17
80.15
85.45
85.99
82.01
75.07
67.52
61.52
58.07
56.29
53.72
47.26
34.60
15.36
-8.57
-33.75
-56.49
-74.16
-85.89
-92.41
-95.27
-96.03
-95.72
-94.78
-93.23
-91.02
-88.08
-84.51
-80.37
-75.64
-70.15
-63.68
-56.01
-47.21
-37.68
-28.19
-19.73
-13.13
-8.82
-6.74
-6.37
-7.11
-8.52
-10.47
-13.06
-16.39
-20.28
-24.19
-27.29
-28.67
-27.58
-23.65
-16.94
-7.98
2.30
12.75
22.21
29.80
35.16
38.59
40.81
42.71
44.85
47.21
49.31
50.38
49.81
47.47
43.71
39.26
34.89
31.16
28.37
26.61
25.77
25.64
25.85
25.84
24.97
22.66
18.61
13.03
6.56
0.08
-5.65
-10.23
-13.78
-16.74
-19.69
-22.95
-26.53
-30.05
-32.90
-34.44
-34.17
-31.94
-27.90
-22.53
-16.46
-10.31
-4.58
0.40
4.53
7.83
10.39
12.30
13.64
14.42
14.65
14.30
13.38
11.93
10.06
7.93
5.75
3.74
2.02
0.55
-0.89
-2.67
-5.05
-8.17
-12.01
-16.39
-20.99
-25.48
-29.65
-33.46
-37.11
-40.82
-44.87
-49.50
-54.89
-60.88
-67.12
-73.09
-78.20
-82.03
-84.17
-84.53
-83.36
-81.17
-78.11
-74.22
-69.60
-64.60
-60.05
-56.32
-53.64
-52.09
-51.53
-50.93
-49.21
-45.78
-40.81
-35.60
-30.48
-25.51
-20.70
-15.87
-9.53
-0.23
12.67
28.57
44.96
60.75
75.48
88.95
101.59
115.56
132.98
154.72
179.91
205.14
228.85
250.35
269.21
275.42
261.95
228.75
183.90
147.03
121.02
104.75
96.92
93.57
93.09
95.36
99.85
104.90
107.93
105.25
96.49
83.05
66.65
49.10
32.65
18.90
8.43
0.62
-6.80
-14.41
-22.11
-29.64
-36.33
-41.05
-43.16
-43.10
-42.50
-44.00
-48.62
-55.93
-64.43
-71.99
-76.49
-76.75
-72.76
-65.46
-56.45
-46.57
-36.17
-25.36
-14.23
-2.89
8.32
18.89
28.17
35.31
39.64
40.52
37.46
30.25
19.25
5.51
-9.22
-22.83
-33.50
-40.20
-43.12
-43.48
-42.99
-43.08
-44.37
-46.55
-48.74
-50.11
-50.29
-49.48
-48.17
-46.79
-45.48
-44.19
-42.87
-41.77
-41.36
-42.13
-44.26
-47.35
-50.54
-52.75
-53.14
-51.48
-48.24
-44.44
-41.29
-39.81
-40.42
-42.81
-45.98
-48.56
-49.21
-46.99
-41.59
-33.39
-23.20
-12.09
-1.05
9.23
18.49
26.88
34.74
42.39
49.84
56.73
62.43
66.21
67.50
65.94
61.47
54.17
44.31
32.35
18.99
5.09
-8.50
-21.12
-32.49
-42.66
-51.88
-60.35
-68.16
-75.26
-81.54
-86.86
-91.19
-94.49
-96.73
-97.90
-98.00
-97.15
-95.56
-93.48
-91.20
-88.86
-86.44
-83.63
-79.99
-74.99
-68.27
-59.78
-49.76
-38.79
-27.58
-16.93
-7.57
-0.12
5.03
7.83
8.69
8.55
8.69
10.43
14.73
21.80
30.99
40.96
50.02
56.76
60.37
60.92
59.26
56.62
54.28
53.16
53.63
55.49
58.02
60.32
61.48
61.00
58.91
55.70
52.10
48.69
45.61
42.48
38.60
33.30
26.32
17.94
8.94
0.31
-7.13
-12.91
-17.08
-20.01
-22.33
-24.56
-27.12
-30.11
-33.42
-36.75
-39.68
-41.83
-42.85
-42.55
-40.91
-38.11
-34.52
-30.71
-27.35
-24.99
-23.92
-23.98
-24.60
-25.06
-24.77
-23.59
-21.84
-20.11
-18.89
-18.40
-18.45
-18.70
-18.88
-18.94
-19.09
-19.60
-20.59
-21.94
-23.21
-23.86
-23.34
-21.32
-17.71
-12.72
-6.76
-0.40
5.84
11.48
16.29
20.24
23.49
26.20
28.46
30.21
31.26
31.49
30.92
29.68
28.02
26.13
24.08
21.86
19.49
17.06
14.74
12.69
10.98
9.50
8.02
6.23
3.92
0.98
-2.53
-6.44
-10.49
-14.47
-18.25
-21.80
-25.20
-28.49
-31.63
-34.37
-36.32
-37.03
-36.17
-33.63
-29.64
-24.70
-19.41
-14.34
-9.83
-5.96
-2.55
0.64
3.76
6.77
9.42
11.42
12.62
13.09
13.16
13.21
13.51
14.12
14.84
15.41
15.63
15.45
15.01
14.42
13.76
12.93
11.74
10.06
7.85
5.24
2.47
-0.26
-2.78
-5.07
-7.21
-9.29
-11.44
-13.86
-16.70
-20.08
-23.96
-27.98
-31.57
-34.01
-34.72
-33.44
-30.30
-25.77
-20.42
-14.75
-9.12
-3.70
1.40
6.02
9.98
13.12
15.33
16.69
17.37
17.65
17.81
18.07
18.54
19.14
19.73
20.11
20.17
19.92
19.42
18.74
17.85
16.67
15.11
13.17
11.01
8.80
6.73
4.85
3.10
1.33
-0.59
-2.68
-4.93
-7.33
-9.93
-12.85
-16.20
-19.99
-24.03
-27.88
-30.91
-32.48
-32.13
-29.71
-25.46
-19.91
-13.75
-7.60
-1.94
2.99
7.12
10.53
13.38
15.82
18.01
20.01
21.84
23.43
24.69
25.53
25.90
25.85
25.48
24.99
24.54
24.21
23.98
23.73
23.30
22.57
21.50
20.11
18.46
16.58
14.47
12.18
9.72
7.17
4.63
2.15
-0.22
-2.48
-4.68
-6.92
-9.31
-11.97
-14.97
-18.22
-21.44
-24.13
-25.72
-25.71
-23.83
-20.17
-15.13
-9.30
-3.25
2.49
7.66
12.11
15.75
18.52
20.33
21.15
21.08
20.38
19.43
18.57
18.04
17.87
17.94
18.03
18.03
17.87
17.62
17.36
17.11
16.76
16.17
15.14
13.51
11.27
8.53
5.53
2.54
-0.20
-2.65
-4.88
-7.13
-9.64
-12.57
-15.93
-19.61
-23.35
-26.84
-29.72
-31.60
-32.15
-31.11
-28.45
-24.34
-19.16
-13.46
-7.77
-2.54
1.93
5.48
8.06
9.69
10.48
10.61
10.35
10.00
9.81
9.89
10.22
10.70
11.20
11.64
12.01
12.27
12.39
12.22
11.63
10.57
9.11
7.44
5.76
4.17
2.66
1.11
-0.60
-2.54
-4.74
-7.23
-10.05
-13.22
-16.64
-20.05
-22.97
-24.82
-25.09
-23.51
-20.18
-15.46
-9.98
-4.36
0.83
5.25
8.75
11.33
13.13
14.32
15.06
15.44
15.58
15.58
15.54
15.54
15.59
15.62
15.53
15.18
14.56
13.69
12.70
11.68
10.69
9.68
8.54
7.15
5.42
3.39
1.13
-1.21
-3.51
-5.68
-7.72
-9.73
-11.88
-14.40
-17.46
-21.08
-25.09
-29.06
-32.37
-34.37
-34.51
-32.56
-28.70
-23.40
-17.32
-11.07
-5.10
0.34
5.15
9.25
12.60
15.17
17.00
18.25
19.12
19.83
20.53
21.29
22.08
22.83
23.48
23.94
24.16
24.09
23.71
22.98
21.94
20.60
19.02
17.22
15.26
13.15
10.94
8.61
6.15
3.58
0.91
-1.82
-4.62
-7.58
-10.90
-14.73
-19.05
-23.56
-27.66
-30.60
-31.79
-30.99
-28.38
-24.48
-19.89
-15.07
-10.25
-5.55
-1.06
3.01
6.40
8.89
10.41
11.04
10.95
10.39
9.55
8.63
7.74
6.98
6.33
5.67
4.88
3.85
2.59
1.14
-0.42
-2.13
-4.12
-6.60
-9.63
-13.13
-16.89
-20.57
-23.96
-26.98
-29.69
-32.29
-34.97
-37.89
-41.17
-44.82
-48.72
-52.55
-55.71
-57.29
-56.26
-51.79
-43.60
-32.19
-18.84
-5.15
7.36
17.77
25.83
31.79
36.10
39.04
40.72
41.18
40.60
39.39
38.11
37.18
36.69
36.38
35.80
34.55
32.51
29.83
26.88
23.97
21.27
18.75
16.21
13.45
10.32
6.81
3.01
-0.94
-4.90
-8.75
-12.44
-15.95
-19.35
-22.73
-26.26
-30.02
-33.97
-37.86
-41.20
-43.38
-43.82
-42.22
-38.64
-33.48
-27.36
-20.87
-14.48
-8.40
-2.77
2.34
6.80
10.43
13.13
14.90
15.93
16.50
16.94
17.52
18.37
19.50
20.83
22.23
23.58
24.78
25.79
26.55
27.05
27.28
27.26
27.02
26.66
26.19
25.63
24.93
24.02
22.86
21.41
19.70
17.70
15.43
12.89
10.11
7.14
4.01
0.68
-2.93
-6.90
-11.21
-15.61
-19.63
-22.68
-24.23
-24.01
-22.04
-18.61
-14.11
-9.00
-3.64
1.65
6.65
11.18
15.15
18.48
21.19
23.31
24.92
26.08
26.86
27.33
27.49
27.33
26.81
25.97
24.93
23.89
23.03
22.39
21.91
21.39
20.63
19.58
18.31
16.97
15.76
14.76
13.98
13.30
12.61
11.77
10.69
9.28
7.51
5.38
2.94
0.19
-2.85
-6.21
-9.90
-13.87
-17.83
-21.38
-23.97
-25.03
-24.23
-21.48
-16.96
-11.09
-4.37
2.67
9.63
16.17
22.03
27.07
31.15
34.19
36.10
36.86
36.48
35.07
32.86
30.21
27.49
24.98
22.74
20.61
18.32
15.61
12.41
8.87
5.28
1.96
-0.87
-3.12
-4.85
-6.14
-7.05
-7.65
-7.99
-8.15
-8.27
-8.51
-9.01
-9.86
-11.15
-12.86
-15.02
-17.63
-20.73
-24.22
-27.87
-31.21
-33.69
-34.77
-34.10
-31.67
-27.77
-22.96
-17.84
-13.01
-8.91
-5.81
-3.75
-2.56
-2.00
-1.76
-1.61
-1.47
-1.34
-1.27
-1.22
-1.08
-0.70
0.02
1.06
2.30
3.55
4.67
5.60
6.34
6.87
7.18
7.20
6.87
6.20
5.23
4.06
2.82
1.55
0.24
-1.14
-2.66
-4.28
-5.98
-7.66
-9.32
-11.01
-12.94
-15.27
-18.06
-21.07
-23.78
-25.47
-25.49
-23.53
-19.72
-14.60
-8.84
-3.05
2.36
7.20
11.43
15.05
18.02
20.27
21.72
22.40
22.41
21.93
21.16
20.28
19.51
18.90
18.31
17.52
16.33
14.69
12.69
10.46
8.26
6.32
4.60
2.63
-0.18
-4.18
-9.37
-15.48
-22.04
-28.34
-33.52
-37.24
-40.13
-43.31
-47.74
-53.73
-60.77
-67.68
-72.68
-74.08
-71.53
-66.86
-62.79
-61.49
-63.65
-68.32
-73.55
-76.43
-73.49
-61.89
-40.68
-10.29
27.33
68.54
108.35
138.05
148.34
136.85
111.81
85.98
69.34
65.34
71.97
84.70
98.82
111.21
120.30
127.35
129.51
124.03
110.10
89.34
65.41
42.63
25.05
15.26
13.45
16.88
21.90
26.05
27.62
25.77
20.35
12.19
3.00
-5.39
-12.30
-18.00
-23.96
-32.21
-44.04
-58.76
-73.18
-82.60
-83.11
-74.12
-58.75
-42.72
-31.90
-29.70
-35.86
-46.91
-58.21
-66.16
-69.47
-68.58
-64.35
-57.00
-45.90
-30.43
-11.17
9.67
28.84
43.42
52.22
56.31
58.25
60.74
65.34
71.92
78.93
84.41
86.95
86.05
82.03
75.60
67.63
59.05
50.66
42.71
34.47
23.90
8.09
-15.36
-46.87
-83.80
-120.69
-150.94
-169.14
-172.89
-163.37
-144.36
-120.32
-94.77
-69.46
-44.78
-20.71
2.26
22.83
39.27
50.19
55.24
55.27
51.91
46.89
41.41
35.99
30.78
26.02
22.42
20.94
22.29
26.31
31.73
36.53
38.87
38.02
34.80
31.21
29.35
30.28
33.34
36.48
37.25
34.00
26.59
16.29
5.05
-5.35
-13.88
-20.36
-25.13
-28.72
-31.60
-34.18
-36.81
-39.78
-43.18
-46.74
-49.84
-51.83
-52.20
-50.91
-48.30
-44.91
-41.15
-37.37
-33.89
-31.23
-29.97
-30.28
-31.61
-32.71
-32.40
-30.42
-27.80
-26.46
-28.04
-32.77
-39.08
-44.37
-46.32
-44.22
-39.19
-33.49
-29.27
-27.66
-28.57
-31.07
-34.15
-37.06
-39.50
-41.48
-43.09
-44.31
-45.00
-44.87
-43.69
-41.47
-38.49
-35.18
-31.79
-28.14
-23.64
-17.48
-9.18
0.99
12.00
22.17
29.87
34.08
34.80
33.13
30.82
29.63
30.65
33.92
38.38
42.43
44.47
43.55
39.43
32.47
23.21
12.21
-0.04
-12.96
-25.85
-38.03
-48.90
-57.93
-64.38
-67.07
-64.57
-55.99
-41.93
-25.10
-10.00
-1.48
-2.88
-14.94
-35.66
-61.12
-86.68
-107.84
-120.72
-122.59
-112.52
-92.00
-65.10
-37.43
-14.34
1.06
8.74
11.29
12.27
14.51
19.23
26.29
35.07
45.17
56.59
69.32
82.78
95.68
106.23
112.71
114.27
111.43
106.12
101.16
99.31
102.15
109.23
117.95
124.41
124.87
117.37
102.60
83.66
64.81
49.74
40.36
36.35
35.69
35.74
34.19
29.63
21.67
10.65
-2.57
-16.62
-29.50
-38.69
-41.80
-37.52
-26.63
-12.36
0.69
8.47
9.50
5.46
0.17
-2.52
-0.62
5.62
14.63
25.03
36.31
48.43
60.72
71.20
77.10
76.06
67.41
52.46
33.82
14.23
-4.33
-21.02
-35.86
-49.48
-62.94
-77.38
-93.46
-110.82
-127.92
-142.35
-151.52
-153.40
-146.90
-132.02
-109.60
-81.29
-49.28
-15.97
16.49
46.71
74.09
98.54
119.87
137.30
149.37
154.47
151.64
140.98
123.72
101.80
77.46
52.92
30.52
12.55
0.69
-4.85
-6.06
-6.81
-11.53
-23.16
-41.67
-64.00
-85.48
-101.83
-110.67
-111.90
-106.68
-96.40
-82.08
-64.70
-45.84
-27.94
-13.87
-5.80
-4.20
-7.55
-13.14
-18.27
-21.26
-21.96
-21.27
-20.47
-20.37
-21.08
-22.07
-22.64
-22.31
-20.95
-18.82
-16.28
-13.76
-11.62
-10.21
-9.74
-10.19
-11.25
-12.13
-11.91
-9.71
-5.08
1.92
10.70
20.29
29.49
37.11
42.20
44.21
43.21
39.88
35.26
30.47
26.40
23.57
22.10
22.03
23.24
25.57
28.56
31.50
33.38
33.32
30.96
26.74
21.98
18.36
17.39
19.65
24.53
30.41
35.20
37.12
35.10
28.96
19.16
6.55
-7.78
-22.45
-35.92
-46.64
-53.54
-56.37
-55.77
-52.99
-49.30
-45.59
-42.10
-38.74
-35.38
-32.19
-29.64
-28.18
-28.05
-29.08
-30.86
-33.00
-35.32
-37.90
-40.98
-44.68
-48.78
-52.66
-55.43
-56.22
-54.49
-50.23
-44.06
-37.04
-30.34
-24.87
-20.95
-18.28
-16.12
-13.80
-11.13
-8.51
-6.66
-6.16
-7.00
-8.58
-9.95
-10.38
-9.79
-8.71
-8.01
-8.34
-9.78
-11.88
-13.86
-15.02
-15.03
-13.94
-12.14
-10.17
-8.58
-7.77
-7.99
-9.17
-11.04
-13.23
-15.39
-17.24
-18.48
-18.67
-17.16
-13.29
-6.71
2.22
12.37
21.98
29.21
32.73
32.08
27.84
21.41
14.58
9.09
6.31
7.11
11.69
19.74
30.48
42.84
55.67
68.01
79.28
89.32
98.20
105.97
112.49
117.40
120.42
121.52
121.03
119.33
116.59
112.59
106.87
99.08
89.29
78.00
65.94
53.80
42.04
30.93
20.67
11.43
3.23
-4.00
-10.45
-16.03
-20.31
-22.55
-22.00
-18.38
-12.13
-4.46
3.06
8.92
12.06
12.08
9.23
4.26
-1.80
-7.90
-13.27
-17.57
-21.00
-24.01
-27.08
-30.39
-33.81
-37.06
-39.96
-42.67
-45.58
-49.15
-53.69
-59.15
-65.16
-71.21
-76.90
-82.01
-86.50
-90.34
-93.37
-95.36
-96.25
-96.37
-96.50
-97.57
-100.21
-104.33
-109.00
-112.78
-114.27
-112.52
-107.20
-98.41
-86.30
-70.94
-52.38
-31.00
-7.69
16.20
39.22
60.20
78.58
94.34
107.87
119.66
130.10
139.39
147.36
153.50
156.91
156.39
150.72
139.10
121.45
98.66
72.55
45.44
19.75
-2.51
-19.93
-31.75
-37.79
-38.40
-34.64
-28.34
-22.00
-18.18
-18.66
-23.61
-31.40
-39.24
-44.41
-45.41
-42.46
-37.14
-31.33
-26.27
-22.13
-18.38
-14.53
-10.68
-7.52
-5.89
-6.24
-8.34
-11.46
-14.76
-17.62
-19.77
-21.14
-21.68
-21.30
-19.93
-17.64
-14.67
-11.33
-7.77
-3.87
0.70
6.23
12.72
19.75
26.54
32.20
36.05
37.80
37.47
35.28
31.46
26.28
20.17
13.82
8.21
4.42
3.21
4.81
8.79
14.26
20.19
25.67
30.04
32.88
33.95
33.18
30.63
26.62
21.63
16.28
11.19
6.88
3.69
1.76
1.08
1.41
2.43
3.74
4.94
5.67
5.73
5.05
3.69
1.79
-0.44
-2.85
-5.36
-7.98
-10.79
-13.86
-17.23
-20.78
-24.22
-27.12
-28.98
-29.40
-28.15
-25.26
-20.99
-15.79
-10.16
-4.57
0.65
5.29
9.31
12.70
15.46
17.52
18.74
19.06
18.59
17.72
17.00
17.10
18.53
21.47
25.80
31.07
36.76
42.39
47.63
52.24
56.11
59.13
61.26
62.55
63.23
63.70
64.50
66.11
68.80
72.58
77.17
82.19
87.33
92.32
96.93
100.91
103.80
104.98
103.65
99.07
90.72
78.54
63.03
45.29
26.84
9.31
-5.93
-18.06
-26.92
-33.07
-37.53
-41.61
-46.49
-52.87
-60.72
-69.19
-76.90
-82.49
-85.17
-84.95
-82.58
-79.11
-75.43
-72.04
-68.96
-65.99
-62.90
-59.59
-56.06
-52.43
-48.92
-45.83
-43.47
-42.02
-41.46
-41.49
-41.71
-41.70
-41.22
-40.12
-38.16
-34.96
-29.99
-22.91
-13.80
-3.43
6.94
15.89
22.37
26.05
27.21
26.55
24.84
22.67
20.41
18.27
16.29
14.24
11.57
7.43
1.12
-7.64
-18.32
-29.73
-40.56
-50.03
-58.38
-66.63
-75.76
-85.71
-94.89
-100.49
-99.52
-90.00
-71.70
-46.14
-16.02
15.43
45.04
69.76
86.97
94.95
93.43
83.96
69.64
54.23
40.98
31.77
27.03
26.05
27.62
30.27
32.45
32.45
28.77
20.59
8.23
-6.61
-21.28
-33.07
-40.09
-41.81
-38.97
-33.10
-25.75
-17.98
-10.25
-2.70
4.58
11.43
17.67
23.31
28.55
33.68
38.76
43.56
47.61
50.59
52.47
53.49
53.88
53.50
51.74
47.84
41.46
33.03
23.86
15.71
10.09
7.78
8.41
10.73
13.03
13.88
12.62
9.57
5.75
2.22
-0.45
-2.71
-5.80
-11.35
-20.57
-33.50
-48.65
-63.17
-73.59
-77.03
-72.33
-60.64
-45.23
-30.41
-20.04
-16.26
-19.11
-26.90
-37.30
-48.34
-58.76
-67.88
-75.06
-79.42
-80.06
-76.49
-69.23
-59.77
-50.22
-42.45
-37.45
-35.02
-34.02
-32.99
-30.84
-27.24
-22.72
-18.37
-15.28
-14.09
-14.63
-15.93
-16.54
-15.01
-10.43
-2.61
7.78
19.50
30.91
40.25
45.91
46.66
42.02
32.42
19.17
4.24
-10.22
-22.29
-30.62
-34.48
-33.81
-29.15
-21.63
-12.88
-4.80
0.88
3.14
2.05
-1.22
-4.77
-6.66
-5.55
-1.07
6.26
15.28
24.79
33.77
41.53
47.64
51.75
53.69
53.44
51.33
48.07
44.57
41.71
39.90
39.01
38.41
37.40
35.66
33.49
31.71
31.21
32.49
35.25
38.43
40.56
40.17
36.30
28.73
17.95
5.05
-8.66
-21.86
-33.54
-43.09
-50.28
-55.14
-57.89
-58.79
-58.24
-56.65
-54.46
-51.97
-49.21
-45.90
-41.63
-36.08
-29.29
-21.80
-14.57
-8.68
-4.92
-3.36
-3.27
-3.20
-1.72
1.99
7.67
14.02
19.44
22.80
24.08
24.50
26.00
30.53
39.30
52.21
67.62
82.43
92.54
93.72
83.00
60.03
28.05
-6.49
-35.67
-52.91
-55.50
-45.61
-29.22
-13.37
-3.02
0.69
0.17
-0.68
0.97
5.43
10.73
14.25
14.69
13.00
11.86
14.19
21.51
33.07
46.23
57.54
63.99
63.95
57.32
45.02
28.39
8.59
-13.46
-36.63
-59.07
-77.94
-89.95
-92.56
-85.34
-70.67
-53.26
-38.57
-31.22
-33.80
-46.65
-68.32
-95.80
-124.74
-149.28
-162.82
-159.68
-137.49
-99.00
-52.04
-7.30
25.19
39.46
35.20
17.02
-7.98
-32.94
-53.24
-66.99
-74.41
-76.67
-74.95
-69.99
-62.38
-52.75
-42.11
-31.62
-22.28
-14.54
-7.98
-1.59
5.80
14.90
25.73
37.72
50.05
62.05
73.26
83.26
91.44
96.99
99.17
97.78
93.34
87.01
80.13
73.69
68.02
62.96
58.20
53.58
49.23
45.33
41.89
38.70
35.56
32.55
30.04
28.35
27.15
25.23
20.66
11.79
-1.72
-18.25
-34.53
-46.68
-51.72
-48.62
-38.59
-24.38
-9.13
4.63
15.44
22.91
27.32
29.24
29.34
28.32
26.95
26.04
26.18
27.55
29.80
32.24
34.11
34.92
34.60
33.45
32.18
31.43
31.43
31.82
31.88
30.76
27.80
22.74
15.81
8.07
0.79
-5.20
-9.78
-13.49
-17.13
-21.42
-26.85
-33.38
-39.73
-44.13
-45.03
-41.61
-33.83
-22.40
-8.70
5.27
17.46
27.16
34.67
40.93
47.02
53.96
62.43
72.36
82.60
86.39
78.59
58.76
31.80
4.13
-19.58
-37.19
-48.31
-54.15
-56.94
-58.52
-60.45
-63.72
-68.54
-74.05
-79.48
-83.05
-83.73
-81.38
-75.94
-67.66
-57.20
-45.74
-34.69
-25.34
-18.50
-14.69
-13.88
-15.18
-17.43
-19.93
-22.33
-24.54
-26.25
-26.67
-24.93
-20.23
-12.16
-1.11
11.68
24.38
35.23
43.05
47.48
48.74
47.37
44.04
39.42
34.16
28.92
24.40
21.11
19.27
18.57
18.30
17.59
15.74
12.45
7.89
2.55
-2.94
-8.03
-12.39
-15.91
-18.65
-20.72
-22.22
-23.27
-23.91
-24.12
-23.82
-22.87
-21.18
-18.81
-16.03
-13.30
-11.16
-10.05
-10.14
-11.27
-12.92
-14.35
-14.72
-13.35
-9.91
-4.55
2.11
9.20
15.89
21.69
26.65
31.28
36.26
42.05
48.53
54.89
59.81
61.83
59.94
54.01
45.01
34.78
25.38
18.47
14.74
13.92
15.07
17.07
19.03
20.29
20.37
18.76
15.05
9.11
1.39
-7.02
-14.73
-20.51
-23.74
-24.64
-24.05
-23.05
-22.51
-22.89
-24.19
-26.14
-28.39
-30.71
-32.96
-35.06
-36.81
-37.86
-37.79
-36.22
-33.01
-28.22
-22.13
-15.08
-7.52
-0.00
6.75
11.81
14.31
13.74
10.35
5.27
0.34
-2.50
-1.88
2.55
10.00
18.95
27.71
34.96
40.04
42.90
43.90
43.66
42.88
42.28
42.43
43.56
45.36
47.02
47.40
45.43
40.48
32.65
22.68
11.79
1.23
-8.20
-16.29
-23.61
-31.13
-39.60
-48.95
-58.13
-65.39
-69.19
-69.06
-66.05
-62.65
-61.94
-66.48
-77.29
-93.51
-112.62
-130.97
-144.55
-149.40
-142.69
-123.51
-93.67
-57.51
-21.02
9.96
31.77
43.97
49.57
52.64
56.21
61.03
65.92
69.04
69.34
67.27
64.23
62.28
61.96
62.32
62.16
61.72
63.02
68.95
81.59
100.59
124.18
148.15
167.56
179.01
182.28
179.88
175.71
173.44
174.81
180.97
190.18
198.34
200.66
193.68
175.80
147.50
110.94
58.84
-6.26
-73.70
-131.14
-172.07
-196.97
-210.21
-218.11
-223.73
-228.28
-230.37
-229.31
-225.79
-221.39
-214.91
-206.16
-194.94
-181.44
-166.79
-150.93
-134.03
-116.42
-98.16
-78.64
-57.29
-32.86
-4.48
27.52
62.92
100.40
137.08
168.92
192.12
204.30
206.80
203.05
196.15
188.24
179.44
168.43
154.06
136.63
112.03
81.34
48.60
16.93
-13.08
-42.55
-71.95
-99.94
-123.94
-141.45
-152.31
-156.16
-154.09
-147.90
-139.34
-129.72
-119.99
-110.77
-102.72
-95.76
-88.65
-81.62
-74.94
-68.41
-61.35
-53.04
-43.27
-32.45
-21.04
-9.63
0.71
9.26
15.91
20.97
24.89
27.99
30.31
31.98
33.08
33.42
32.85
31.47
29.52
27.30
25.09
23.00
21.14
19.53
17.94
16.16
14.03
11.54
8.76
5.78
2.65
-0.57
-3.86
-7.29
-10.93
-14.87
-19.11
-23.49
-27.63
-30.95
-32.78
-32.63
-30.33
-26.12
-20.58
-14.40
-8.21
-2.44
2.70
7.11
10.79
13.72
15.91
17.37
18.18
18.41
18.15
17.49
16.55
15.46
14.37
13.41
12.63
11.97
11.30
10.42
9.19
7.54
5.51
3.23
0.84
-1.56
-3.94
-6.38
-8.98
-11.94
-15.43
-19.59
-24.37
-29.45
-34.22
-37.83
-39.48
-38.72
-35.56
-30.55
-24.50
-18.20
-12.23
-6.83
-2.01
2.30
6.12
9.40
12.10
14.20
15.77
16.88
17.65
18.17
18.51
18.74
18.92
19.09
19.20
19.17
18.79
17.93
16.49
14.53
12.25
9.93
7.82
6.06
4.53
2.97
1.02
-1.62
-5.11
-9.39
-14.25
-19.33
-24.17
-28.20
-30.77
-31.35
-29.63
-25.73
-20.17
-13.78
-7.38
-1.58
3.38
7.55
11.09
14.09
16.52
18.27
19.28
19.66
19.64
19.50
19.48
19.63
19.83
19.94
19.80
19.36
18.66
17.78
16.73
15.48
13.96
12.10
9.90
7.44
4.85
2.30
-0.12
-2.39
-4.60
-6.95
-9.69
-12.99
-16.88
-21.12
-25.26
-28.68
-30.75
-31.04
-29.36
-25.84
-20.86
-14.93
-8.63
-2.46
3.19
8.09
12.16
15.41
17.95
19.89
21.36
22.46
23.28
23.88
24.33
24.69
24.96
25.08
24.94
24.33
23.15
21.38
19.18
16.78
14.41
12.18
10.09
8.02
5.85
3.54
1.12
-1.30
-3.64
-5.89
-8.13
-10.49
-13.16
-16.29
-19.92
-23.91
-27.86
-31.13
-33.02
-32.92
-30.60
-26.25
-20.44
-13.95
-7.47
-1.45
3.95
8.74
12.95
16.48
19.17
20.82
21.39
21.08
20.28
19.46
18.96
18.88
19.08
19.24
19.10
18.57
17.73
16.79
15.89
15.02
14.07
12.81
11.09
8.88
6.34
3.70
1.16
-1.12
-3.19
-5.20
-7.47
-10.22
-13.59
-17.46
-21.44
-24.90
-27.16
-27.64
-26.08
-22.58
-17.56
-11.65
-5.48
0.44
5.79
10.44
14.38
17.67
20.35
22.45
23.99
24.99
25.52
25.67
25.61
25.46
25.34
25.26
25.16
24.87
24.27
23.29
22.01
20.56
19.09
17.64
16.17
14.57
12.75
10.66
8.38
5.96
3.50
1.03
-1.48
-4.04
-6.67
-9.38
-12.17
-15.09
-18.21
-21.53
-24.96
-28.18
-30.69
-31.90
-31.25
-28.53
-23.86
-17.77
-10.98
-4.24
1.94
7.31
11.83
15.62
18.71
21.14
22.88
24.00
24.66
25.10
25.54
25.98
26.28
26.12
25.29
23.79
21.83
19.79
18.01
16.63
15.51
14.41
13.12
11.54
9.76
7.99
6.39
5.07
3.98
3.04
2.16
1.26
0.30
-0.73
-1.86
-3.10
-4.44
-5.89
-7.48
-9.28
-11.39
-13.84
-16.53
-19.19
-21.33
-22.43
-22.07
-20.13
-16.83
-12.64
-8.14
-3.75
0.31
4.01
7.48
10.77
13.86
16.64
18.96
20.72
21.89
22.54
22.81
22.85
22.75
22.57
22.35
22.08
21.77
21.40
20.99
20.48
19.81
18.90
17.70
16.21
14.52
12.76
11.06
9.47
7.97
6.47
4.90
3.22
1.47
-0.26
-1.89
-3.42
-4.94
-6.62
-8.63
-11.03
-13.72
-16.45
-18.86
-20.57
-21.22
-20.59
-18.57
-15.22
-10.83
-5.82
-0.69
4.12
8.33
11.84
14.64
16.80
18.30
19.15
19.34
18.95
18.16
17.21
16.33
15.72
15.43
15.40
15.45
15.39
15.07
14.45
13.57
12.48
11.26
9.88
8.32
6.53
4.57
2.59
0.75
-0.82
-2.15
-3.38
-4.68
-6.25
-8.14
-10.35
-12.80
-15.43
-18.11
-20.67
-22.80
-24.09
-24.11
-22.56
-19.45
-15.10
-10.08
-5.01
-0.38
3.56
6.80
9.45
11.57
13.16
14.13
14.45
14.16
13.44
12.57
11.80
11.29
11.03
10.90
10.76
10.48
10.02
9.45
8.85
8.31
7.84
7.34
6.69
5.76
4.46
2.81
0.90
-1.12
-3.14
-5.06
-6.87
-8.62
-10.37
-12.21
-14.16
-16.25
-18.46
-20.78
-23.12
-25.31
-27.05
-27.92
-27.59
-25.85
-22.76
-18.66
-14.01
-9.29
-4.81
-0.77
2.78
5.83
8.35
10.33
11.77
12.74
13.33
13.65
13.76
13.74
13.63
13.49
13.37
13.28
13.16
12.93
12.48
11.77
10.85
9.79
8.69
7.58
6.44
5.20
3.81
2.29
0.73
-0.73
-2.03
-3.17
-4.28
-5.48
-6.85
-8.36
-9.85
-11.15
-12.16
-12.96
-13.80
-14.98
-16.76
-19.21
-22.15
-25.18
-27.78
-29.44
-29.74
-28.41
-25.38
-20.82
-15.12
-8.86
-2.73
2.63
6.77
9.53
11.04
11.64
11.71
11.59
11.50
11.57
11.88
12.45
13.28
14.29
15.27
16.01
16.29
16.02
15.23
14.06
12.71
11.33
10.03
8.83
7.69
6.57
5.45
4.42
3.62
3.17
3.09
3.22
3.30
3.09
2.46
1.44
0.19
-1.12
-2.43
-3.75
-5.17
-6.76
-8.52
-10.43
-12.49
-14.64
-16.79
-18.74
-20.19
-20.78
-20.26
-18.53
-15.73
-12.19
-8.29
-4.38
-0.72
2.59
5.51
8.02
10.06
11.57
12.50
12.88
12.82
12.52
12.16
11.90
11.79
11.81
11.90
12.02
12.16
12.32
12.46
12.49
12.30
11.75
10.82
9.54
8.06
6.55
5.10
3.71
2.32
0.82
-0.87
-2.75
-4.69
-6.51
-8.04
-9.14
-9.83
-10.30
-10.93
-12.18
-14.39
-17.60
-21.49
-25.50
-28.95
-31.19
-31.85
-30.87
-28.51
-25.23
-21.55
-17.90
-14.49
-11.38
-8.32
-5.05
-1.47
2.31
5.94
9.06
11.41
13.01
14.03
15.12
16.89
19.57
22.87
26.04
28.23
28.78
27.40
24.15
20.28
17.11
15.56
15.68
16.68
17.38
16.83
14.62
10.86
7.52
6.73
9.86
16.89
26.44
36.57
45.64
52.75
57.38
61.22
66.05
73.16
83.07
95.64
110.71
128.20
147.70
158.31
150.99
121.43
73.87
19.30
-30.89
-69.45
-94.31
-105.68
-108.85
-106.81
-101.20
-92.92
-82.75
-72.03
-62.22
-55.61
-53.33
-56.12
-62.56
-70.55
-78.80
-85.28
-88.31
-87.40
-83.69
-79.00
-74.95
-70.98
-65.45
-56.86
-45.04
-31.79
-20.12
-12.78
-10.72
-12.92
-16.24
-17.11
-13.08
-3.82
8.78
21.62
31.73
37.57
39.74
39.22
37.43
35.40
33.61
31.93
30.05
27.82
25.57
23.90
23.27
23.83
25.31
27.07
28.40
28.87
28.40
27.45
26.72
26.72
27.61
29.08
30.44
30.81
30.31
29.01
27.26
25.56
24.28
23.61
23.46
23.47
23.29
22.70
21.60
20.15
18.59
17.07
15.58
14.00
12.12
9.90
7.44
4.85
2.22
-0.44
-3.23
-6.31
-9.70
-13.29
-16.75
-19.72
-21.92
-23.23
-23.66
-23.35
-22.55
-21.47
-20.31
-19.18
-18.14
-17.25
-16.56
-16.17
-16.19
-16.72
-17.80
-19.35
-21.15
-22.90
-24.21
-24.69
-24.08
-22.24
-19.19
-15.10
-10.28
-5.11
-0.09
4.17
7.11
8.26
7.46
4.83
0.71
-4.41
-9.97
-15.32
-19.62
-21.88
-21.22
-17.14
-9.87
-0.41
9.66
18.68
25.29
28.77
28.99
26.25
21.07
14.12
6.16
-1.93
-9.23
-15.00
-19.02
-21.67
-23.86
-26.59
-30.56
-35.80
-41.77
-47.61
-52.51
-55.86
-57.30
-56.63
-53.70
-48.48
-41.27
-32.70
-23.68
-15.15
-7.79
-1.97
2.23
4.83
5.84
5.16
2.67
-1.71
-7.89
-15.62
-24.39
-33.53
-42.37
-50.33
-57.15
-62.86
-67.74
-72.02
-75.75
-78.69
-80.45
-80.75
-79.58
-77.33
-74.69
-72.38
-70.94
-70.52
-70.81
-71.14
-70.68
-68.65
-64.48
-57.84
-48.70
-37.35
-24.36
-10.65
2.68
14.58
24.42
32.24
38.79
45.19
52.34
60.45
68.81
76.15
81.15
83.12
82.21
79.28
75.40
71.29
67.06
62.33
56.60
49.68
41.99
34.39
27.87
23.19
20.49
19.34
18.86
18.13
16.48
13.83
10.59
7.57
5.72
5.71
7.81
11.61
16.10
19.84
21.43
20.11
16.13
10.87
6.29
4.36
6.17
11.68
19.88
29.41
39.07
48.14
56.16
62.49
66.23
66.38
62.47
55.01
45.50
35.74
26.87
18.68
9.62
-2.25
-18.12
-37.49
-58.15
-76.94
-90.90
-98.19
-98.51
-92.88
-83.23
-71.81
-61.06
-53.30
-50.41
-53.03
-59.78
-67.02
-69.68
-63.23
-45.90
-20.16
7.69
29.69
39.38
34.30
16.63
-8.13
-33.78
-55.51
-70.78
-78.70
-78.89
-70.95
-54.90
-32.23
-6.46
17.28
34.02
40.79
37.92
28.83
18.37
10.91
8.63
11.22
16.51
21.77
24.96
25.22
22.90
18.88
14.12
9.18
4.25
-0.79
-6.09
-11.71
-17.58
-23.59
-29.69
-35.91
-42.30
-48.73
-54.75
-59.64
-62.56
-62.87
-60.32
-55.20
-48.12
-39.84
-31.01
-22.11
-13.39
-5.03
2.74
9.61
15.24
19.43
22.21
23.89
25.00
26.09
27.60
29.67
32.19
34.92
37.57
39.91
41.83
43.36
44.58
45.57
46.23
46.30
45.30
42.79
38.62
33.18
27.29
21.98
17.99
15.38
13.53
11.29
7.57
1.71
-6.22
-15.54
-25.25
-34.33
-42.04
-47.96
-51.91
-53.81
-53.54
-50.88
-45.59
-37.59
-27.17
-15.03
-2.26
10.02
20.94
30.05
37.33
42.96
47.12
49.90
51.35
51.69
51.36
50.88
50.63
50.60
50.35
49.22
46.77
43.05
38.63
34.36
30.90
28.47
26.71
25.01
22.81
19.93
16.56
13.05
9.60
6.08
2.04
-2.98
-9.20
-16.36
-23.75
-30.34
-35.07
-36.97
-35.37
-30.00
-21.16
-9.77
2.66
14.33
23.65
29.73
32.63
33.15
32.51
31.69
31.17
30.85
30.35
29.42
28.04
26.46
24.92
23.41
21.57
18.92
15.10
10.06
4.15
-2.03
-7.76
-12.37
-15.34
-16.33
-15.27
-12.44
-8.56
-4.64
-1.77
-0.73
-1.76
-4.49
-8.12
-11.86
-15.18
-18.15
-21.20
-25.01
-30.07
-36.40
-43.39
-49.82
-54.09
-54.62
-50.35
-41.21
-28.32
-13.83
-0.27
10.29
17.04
20.72
23.23
26.73
32.58
40.70
49.64
57.29
61.79
62.28
59.00
52.94
45.20
36.59
27.53
18.33
9.48
1.73
-4.12
-7.66
-9.17
-9.62
-10.37
-12.53
-16.52
-21.83
-27.33
-31.68
-34.02
-34.27
-33.09
-31.54
-30.56
-30.63
-31.78
-33.64
-35.75
-37.56
-38.46
-37.76
-34.85
-29.44
-21.81
-12.88
-3.89
3.99
10.01
14.03
16.42
17.74
18.61
19.36
20.13
20.79
21.16
21.23
21.32
22.09
24.21
27.99
33.04
38.26
42.27
43.90
42.60
38.62
32.71
25.85
18.99
12.95
8.36
5.70
5.05
6.07
7.94
9.58
9.88
8.01
3.54
-3.52
-12.69
-23.12
-33.54
-42.44
-48.28
-49.86
-46.65
-38.97
-27.94
-15.13
-2.20
9.55
19.26
26.49
31.12
33.22
33.09
31.22
28.40
25.54
23.50
22.85
23.71
25.76
28.33
30.70
32.27
32.84
32.51
31.63
30.63
29.79
29.22
28.78
28.30
27.51
26.23
24.36
21.83
18.67
14.96
10.85
6.54
2.19
-2.12
-6.41
-10.78
-15.38
-20.18
-25.00
-29.38
-32.71
-34.36
-33.91
-31.30
-26.83
-21.08
-14.68
-8.16
-1.82
4.26
10.09
15.65
20.84
25.46
29.23
31.96
33.56
34.13
33.89
33.14
32.20
31.36
30.81
30.56
30.53
30.53
30.38
29.93
29.03
27.56
25.41
22.44
18.55
13.73
8.10
1.84
-4.81
-11.67
-18.60
-25.53
-32.39
-39.24
-46.16
-53.25
-60.47
-67.46
-73.51
-77.67
-79.02
-77.05
-71.90
-64.32
-55.51
-46.64
-38.56
-31.72
-26.08
-21.37
-17.27
-13.54
-10.07
-6.86
-4.01
-1.58
0.40
1.95
3.18
4.28
5.33
6.42
7.68
9.27
11.25
13.49
15.70
17.42
18.12
17.22
14.41
9.91
4.40
-1.23
-6.27
-10.47
-13.96
-17.05
-20.26
-23.91
-28.11
-32.85
-38.25
-44.47
-51.32
-58.05
-63.39
-66.67
-67.45
-65.28
-59.64
-50.26
-37.48
-22.25
-6.05
9.34
20.78
26.06
25.26
20.76
15.75
12.61
12.27
14.43
17.82
18.72
14.15
4.10
-8.44
-19.55
-26.50
-28.48
-26.45
-22.66
-22.86
-32.22
-52.74
-82.74
-118.88
-157.76
-195.70
-228.42
-233.52
-197.83
-128.08
-49.04
14.13
48.64
54.82
41.44
20.35
2.03
-9.79
-15.07
-14.13
-6.17
9.01
29.29
50.37
67.39
76.86
75.52
63.59
44.79
25.13
9.74
0.88
-1.95
-0.71
2.25
3.71
1.48
-4.27
-11.15
-16.04
-16.38
-10.81
0.83
17.65
37.51
56.95
73.32
85.59
94.20
100.46
105.86
111.44
117.21
121.88
123.37
119.89
110.45
94.86
73.66
47.82
18.67
-12.19
-42.91
-71.66
-96.76
-117.01
-131.98
-141.76
-146.72
-147.06
-142.60
-132.84
-117.35
-96.06
-69.64
-39.55
-7.86
23.17
51.58
76.21
96.97
114.82
131.23
147.43
163.54
178.40
189.95
196.10
195.71
189.07
177.73
163.79
148.99
134.19
119.36
104.01
87.69
70.33
52.24
33.89
15.60
-2.59
-20.92
-39.68
-58.89
-78.18
-96.78
-113.82
-128.56
-140.52
-149.37
-154.67
-155.73
-151.79
-142.38
-127.82
-109.45
-89.43
-70.17
-53.56
-40.44
-30.45
-22.31
-14.37
-5.21
6.07
19.65
35.07
51.21
66.52
79.23
87.80
91.40
90.23
85.60
79.34
73.34
68.82
66.06
64.51
63.22
61.27
58.19
54.03
49.21
44.34
39.91
36.16
33.05
30.33
27.76
25.14
22.56
20.23
18.50
17.63
17.64
18.21
18.62
17.82
14.66
8.27
-1.58
-14.34
-28.78
-43.44
-57.08
-69.01
-79.13
-87.68
-95.05
-101.56
-107.40
-112.64
-117.04
-120.02
-120.55
-117.36
-109.47
-96.65
-79.89
-61.24
-43.18
-27.83
-16.17
-7.83
-1.33
5.09
12.68
21.62
30.99
39.36
45.67
49.89
53.22
57.48
64.11
73.38
84.19
94.62
102.87
108.12
110.71
111.84
112.80
114.31
116.30
118.06
118.72
117.65
114.73
110.30
104.87
98.83
92.23
84.76
75.88
65.19
52.55
38.21
22.52
5.73
-12.21
-31.52
-52.42
-74.84
-98.30
-121.98
-144.92
-166.28
-185.51
-202.34
-216.67
-228.36
-236.96
-241.63
-241.18
-234.46
-220.83
-200.57
-175.04
-146.35
-116.86
-88.47
-62.12
-37.82
-14.92
7.46
30.04
53.15
76.54
99.29
119.94
136.76
148.26
153.68
153.30
148.46
141.32
134.27
129.24
127.36
128.60
131.76
134.80
135.57
132.76
126.51
118.44
110.44
104.15
100.08
97.33
94.00
88.27
79.18
67.19
53.69
39.49
25.16
10.92
-3.37
-18.26
-34.45
-52.68
-73.15
-95.58
-120.45
-147.40
-175.05
-201.43
-224.75
-243.70
-257.71
-266.27
-269.10
-267.83
-263.69
-256.96
-247.02
-232.89
-213.75
-189.48
-160.33
-118.64
-64.75
-6.43
45.20
82.87
105.70
119.62
129.39
137.90
146.38
152.29
153.84
150.86
144.59
136.95
129.72
123.71
119.31
116.46
113.67
109.89
105.03
99.47
93.69
87.85
81.37
73.89
65.68
56.85
48.02
39.94
32.33
24.07
13.57
-0.88
-19.98
-43.10
-67.16
-87.35
-99.50
-103.67
-103.27
-102.32
-103.42
-106.61
-109.91
-110.95
-110.54
-107.80
-103.30
-97.87
-91.90
-85.29
-77.27
-66.71
-53.03
-36.07
-15.03
9.10
35.40
63.49
91.88
117.62
137.87
151.07
157.99
160.48
159.20
154.10
144.78
131.04
113.67
97.02
82.12
70.21
62.38
58.47
57.65
58.69
60.32
61.80
63.07
64.12
64.33
63.41
60.70
55.73
48.62
40.24
32.16
26.17
23.17
23.47
26.29
29.87
32.21
31.68
27.42
19.39
8.24
-5.17
-19.65
-34.04
-47.60
-59.98
-71.27
-81.79
-91.94
-101.92
-111.78
-121.28
-130.12
-138.16
-145.43
-152.02
-157.82
-162.52
-165.66
-166.77
-165.57
-161.99
-156.20
-148.45
-138.96
-127.83
-115.09
-100.78
-85.02
-67.95
-49.71
-30.33
-9.85
11.51
33.17
54.11
72.94
88.35
99.51
106.45
110.14
112.11
113.90
116.37
119.41
121.97
122.57
119.92
113.44
103.42
90.77
76.58
61.70
46.60
31.52
16.71
2.53
-10.57
-22.22
-32.39
-41.34
-49.45
-57.00
-63.97
-70.01
-74.65
-77.42
-78.05
-76.52
-72.99
-67.80
-61.35
-54.08
-46.30
-38.26
-30.04
-21.63
-13.04
-4.31
4.36
12.71
20.45
27.31
33.14
37.88
41.58
44.28
46.07
46.95
46.88
45.72
43.33
39.61
34.66
28.77
22.45
16.38
11.17
7.28
4.88
3.83
3.79
4.33
5.03
5.60
5.90
5.87
5.57
5.04
4.36
3.58
2.77
2.06
1.55
1.36
1.51
1.94
2.54
3.19
3.82
4.45
5.14
5.89
6.68
7.35
7.70
7.51
6.67
5.22
3.36
1.33
-0.69
-2.74
-5.02
-7.89
-11.61
-16.23
-21.50
-26.94
-31.97
-36.04
-38.74
-39.86
-39.35
-37.34
-34.10
-30.02
-25.61
-21.35
-17.65
-14.68
-12.41
-10.56
-8.80
-6.94
-5.10
-3.63
-2.95
-3.31
-4.61
-6.50
-8.60
-10.68
-12.86
-15.35
-18.16
-20.88
-22.73
-22.94
-21.20
-18.02
-14.44
-11.79
-10.95
-11.98
-14.05
-15.93
-16.64
-16.03
-14.81
-14.07
-14.97
-18.06
-22.93
-28.19
-32.02
-32.82
-30.02
-24.18
-16.37
-8.22
-1.11
4.58
9.60
15.50
23.89
35.67
50.86
69.55
90.52
111.41
128.87
139.41
140.80
133.52
121.01
108.66
102.51
104.86
113.33
121.97
124.44
116.93
99.80
76.27
44.98
8.21
-30.55
-67.82
-101.60
-131.28
-157.09
-177.72
-192.09
-200.45
-200.75
-193.12
-178.56
-158.73
-135.33
-110.20
-84.30
-58.32
-34.48
-14.18
1.46
12.79
20.50
28.48
37.29
46.71
55.96
63.97
70.91
73.85
73.18
71.42
72.26
78.42
90.82
107.43
124.04
136.61
142.70
143.13
140.73
138.91
139.71
143.63
149.62
155.86
160.67
162.48
160.22
152.68
138.81
117.98
90.89
59.50
26.71
-4.31
-30.90
-51.14
-64.39
-71.23
-73.23
-72.26
-69.94
-67.19
-64.18
-60.86
-57.56
-55.58
-56.68
-62.07
-71.35
-82.38
-92.11
-97.90
-98.37
-93.50
-84.12
-71.33
-56.33
-40.71
-26.54
-16.05
-10.77
-10.87
-14.91
-20.69
-26.31
-31.10
-35.73
-41.50
-49.40
-59.41
-70.20
-79.46
-84.71
-84.29
-78.27
-68.68
-58.75
-51.44
-47.91
-46.91
-45.63
-41.43
-33.37
-22.74
-12.10
-3.71
1.55
4.18
5.17
5.18
4.26
2.44
0.18
-1.46
-1.57
-0.14
1.55
1.51
-1.89
-9.00
-18.65
-28.63
-36.40
-39.72
-37.03
-27.76
-12.72
5.83
24.66
40.90
53.37
63.22
73.03
84.88
98.65
111.43
118.92
117.68
106.77
87.50
61.73
30.23
-7.35
-50.62
-95.94
-135.34
-158.57
-157.38
-129.94
-82.74
-28.53
18.89
50.57
65.49
69.37
69.94
71.73
73.72
70.99
59.21
38.80
15.84
-0.86
-4.70
4.94
22.37
38.98
47.83
46.83
38.92
29.72
24.48
26.15
35.20
50.50
70.40
92.88
115.57
135.46
148.98
152.50
142.93
118.58
79.89
29.93
-25.75
-80.08
-126.13
-158.99
-176.86
-180.88
-173.61
-157.14
-132.17
-98.69
-58.08
-14.92
22.98
47.11
51.83
37.28
9.51
-22.10
-48.94
-66.17
-73.49
-73.57
-69.36
-62.40
-52.69
-39.86
-24.60
-8.93
4.42
13.32
17.10
16.62
13.55
9.34
4.69
-0.39
-6.02
-11.91
-17.15
-20.57
-21.31
-19.37
-15.53
-10.79
-5.69
0.07
7.29
16.45
26.79
36.05
41.18
39.69
31.13
17.56
2.94
-8.75
-15.09
-15.83
-11.93
-4.04
8.52
27.07
51.61
79.06
103.14
116.72
115.29
99.64
75.79
52.02
34.79
25.97
23.16
22.23
20.46
17.77
15.37
13.34
9.42
-0.00
-17.34
-41.74
-69.11
-93.98
-112.30
-122.83
-126.76
-126.08
-122.09
-115.08
-104.76
-91.16
-74.84
-56.77
-38.01
-19.57
-2.76
10.91
20.02
23.97
23.28
19.30
13.53
7.07
0.77
-4.72
-8.71
-10.65
-10.29
-8.00
-4.37
0.08
5.13
10.68
16.35
21.30
24.38
24.57
21.51
15.73
8.59
1.73
-3.32
-5.59
-4.73
-1.10
4.35
10.24
15.06
17.53
16.85
13.02
6.86
-0.15
-6.16
-9.45
-8.91
-4.53
2.49
10.11
16.34
20.07
21.72
23.24
27.29
36.15
50.70
69.76
90.37
108.61
120.83
125.02
121.55
113.02
103.38
96.27
93.47
94.21
95.80
94.73
88.11
74.53
53.93
27.25
-3.43
-34.54
-60.99
-77.46
-80.75
-72.02
-57.17
-44.58
-41.05
-48.16
-61.57
-73.50
-77.33
-71.12
-58.22
-44.76
-35.65
-31.93
-30.86
-28.32
-21.75
-11.67
-1.03
6.92
10.58
10.83
10.40
12.18
17.46
25.36
33.06
37.22
35.50
27.75
16.35
5.27
-1.42
-1.31
5.56
16.86
29.14
39.20
44.85
44.88
38.43
24.56
2.41
-27.99
-64.97
-105.11
-143.89
-177.04
-201.68
-216.78
-222.92
-221.55
-214.33
-202.74
-187.98
-170.95
-152.23
-131.95
-109.99
-86.25
-61.00
-35.11
-9.88
13.21
32.96
48.55
59.69
66.46
69.15
68.31
64.74
59.68
54.85
52.33
54.08
61.32
73.88
90.13
107.33
122.58
133.72
139.75
140.80
137.50
130.63
121.01
109.79
98.72
89.90
85.05
84.60
87.25
90.14
89.90
83.80
70.73
51.50
28.58
5.29
-15.23
-30.97
-41.63
-48.53
-53.84
-59.61
-66.92
-75.59
-84.58
-92.68
-98.94
-102.83
-103.98
-101.96
-96.52
-88.01
-77.53
-66.78
-57.32
-49.88
-44.11
-39.01
-33.71
-28.07
-22.64
-17.93
-13.71
-8.74
-1.48
8.86
21.41
33.78
43.07
47.24
46.08
41.18
35.12
30.30
28.01
28.27
30.26
32.92
35.64
38.36
41.48
45.57
50.91
57.18
63.28
67.44
67.72
62.77
52.34
37.47
20.18
2.63
-13.67
-28.30
-41.90
-55.72
-70.86
-87.83
-106.17
-124.54
-140.91
-152.94
-158.32
-155.46
-144.24
-126.54
-106.03
-87.07
-73.10
-65.06
-60.85
-56.06
-45.72
-26.27
3.04
39.86
79.55
116.56
146.01
164.78
172.19
169.82
160.81
148.76
136.78
126.92
120.19
116.95
117.20
120.52
125.82
131.04
133.30
129.46
117.11
95.47
65.69
30.58
-6.37
-41.97
-74.27
-102.86
-128.38
-151.82
-173.63
-193.43
-210.07
-222.37
-229.71
-232.44
-231.72
-229.08
-225.66
-221.82
-216.94
-209.72
-198.76
-182.97
-161.87
-135.48
-104.23
-68.87
-30.52
9.05
47.47
81.94
109.79
129.23
139.81
142.62
139.83
134.11
127.70
122.06
117.62
114.08
110.78
106.99
102.17
95.96
88.19
79.04
69.11
59.45
51.36
45.84
43.18
42.72
43.10
42.84
40.88
36.72
30.30
21.67
10.89
-1.75
-15.30
-27.94
-37.18
-40.56
-36.75
-26.12
-10.96
5.28
18.89
26.94
27.72
20.73
6.39
-14.22
-39.23
-65.84
-90.20
-107.95
-115.30
-110.48
-94.59
-71.47
-46.35
-23.95
-6.93
4.56
11.98
17.06
20.62
22.37
21.56
17.91
12.13
5.60
-0.38
-5.30
-9.54
-13.91
-18.95
-24.46
-29.56
-33.12
-34.21
-32.45
-28.01
-21.48
-13.69
-5.59
2.00
8.41
13.37
16.97
19.66
22.30
26.16
32.79
43.76
60.12
81.78
107.09
132.90
155.24
170.29
175.32
169.16
152.45
127.42
97.58
67.15
40.47
20.99
10.47
8.57
13.21
21.63
31.46
41.27
50.43
58.40
64.22
66.55
64.22
57.05
46.08
33.19
20.33
8.76
-1.28
-10.47
-20.02
-31.12
-44.34
-59.24
-74.36
-87.50
-96.58
-100.52
-99.66
-95.55
-89.98
-84.03
-77.61
-69.90
-60.19
-48.71
-36.74
-26.02
-17.81
-12.41
-9.24
-7.35
-6.03
-5.09
-4.71
-5.11
-6.26
-7.98
-10.12
-12.78
-16.40
-21.56
-28.61
-37.33
-46.80
-55.50
-61.70
-64.01
-61.87
-55.73
-46.86
-36.85
-27.00
-17.93
-9.44
-0.85
8.62
19.38
31.32
43.85
56.08
67.16
76.48
83.82
89.44
94.10
98.95
105.44
114.94
128.20
144.80
162.82
179.15
190.18
193.07
186.64
171.64
150.27
125.04
97.84
69.62
40.86
12.38
-14.15
-36.52
-52.81
-62.30
-65.93
-65.90
-64.66
-63.75
-63.23
-61.68
-57.21
-48.50
-35.69
-20.62
-6.07
5.02
10.60
9.77
2.57
-10.41
-28.36
-50.13
-73.91
-97.01
-116.24
-128.71
-132.82
-128.76
-118.45
-104.90
-91.21
-79.74
-71.59
-66.56
-63.44
-60.68
-56.95
-51.64
-44.77
-36.72
-27.77
-17.93
-7.13
4.42
16.05
26.74
35.59
42.29
47.12
50.67
53.31
55.06
55.84
55.91
55.94
56.76
58.60
60.72
61.52
59.46
54.00
46.00
37.20
29.10
22.03
14.90
6.04
-5.59
-19.55
-33.99
-46.54
-55.57
-60.90
-63.78
-66.12
-69.48
-74.40
-80.26
-85.66
-89.10
-89.60
-86.96
-81.68
-74.68
-66.90
-59.02
-51.43
-44.27
-37.65
-31.70
-26.60
-22.52
-19.62
-17.91
-17.33
-17.71
-18.79
-20.30
-22.00
-23.72
-25.37
-26.90
-28.25
-29.29
-29.80
-29.59
-28.57
-26.79
-24.43
-21.72
-18.85
-15.91
-12.90
-9.82
-6.83
-4.24
-2.48
-1.80
-2.16
-3.02
-3.52
-2.78
-0.23
4.14
9.81
15.90
21.53
26.18
29.73
32.38
34.41
35.96
36.93
37.13
36.40
34.81
32.60
30.14
27.74
25.54
23.49
21.43
19.20
16.73
14.05
11.29
8.62
6.19
4.09
2.30
0.68
-1.06
-3.19
-5.97
-9.45
-13.49
-17.67
-21.42
-24.05
-24.97
-23.81
-20.56
-15.62
-9.74
-3.81
1.39
5.46
8.38
10.49
12.20
13.75
15.07
15.87
15.84
14.84
13.05
10.86
8.78
7.16
6.12
5.57
5.31
5.06
4.70
4.10
3.26
2.14
0.70
-1.07
-3.16
-5.49
-7.97
-10.53
-13.23
-16.13
-19.20
-22.20
-24.64
-25.87
-25.36
-22.91
-18.73
-13.41
-7.68
-2.20
2.59
6.44
9.27
11.03
11.71
11.42
10.32
8.76
7.12
5.73
4.76
4.21
3.92
3.69
3.31
2.67
1.74
0.58
-0.68
-1.90
-2.93
-3.71
-4.30
-4.88
-5.65
-6.88
-8.74
-11.37
-14.76
-18.69
-22.68
-26.03
-27.98
-27.91
-25.65
-21.49
-16.11
-10.31
-4.77
0.11
4.25
7.73
10.69
13.21
15.26
16.71
17.38
17.13
15.99
14.12
11.87
9.65
7.83
6.63
6.03
5.85
5.77
5.55
5.01
4.24
3.38
2.63
2.03
1.40
0.46
-1.14
-3.59
-6.91
-10.92
-15.40
-20.05
-24.56
-28.51
-31.41
-32.78
-32.31
-30.01
-26.35
-22.05
-17.91
-14.58
-12.42
-11.51
-11.75
-12.96
-14.95
-17.50
-20.28
-22.97
-25.30
-27.18
-28.70
-30.08
-31.46
-32.86
-34.13
-35.16
-35.92
-36.50
-36.97
-37.21
-36.88
-35.40
-32.31
-27.44
-21.16
-14.30
-7.99
-3.29
-0.91
-1.08
-3.59
-7.93
-13.58
-20.04
-26.85
-33.53
-39.44
-43.90
-46.25
-45.99
-42.87
-36.82
-27.93
-16.44
-2.82
12.14
27.30
41.43
53.44
62.73
69.29
73.57
76.22
77.81
78.75
79.38
80.02
81.06
82.85
85.38
88.22
90.61
91.85
91.67
90.33
88.37
86.27
84.11
81.55
78.21
73.88
68.58
62.16
53.92
42.80
28.03
10.07
-8.95
-25.73
-37.10
-41.17
-37.66
-27.39
-11.21
10.59
37.86
69.72
103.75
136.03
161.85
176.90
178.38
165.86
141.58
110.38
78.79
53.34
38.29
33.98
36.56
39.40
35.78
21.36
-4.40
-38.72
-77.06
-114.85
-148.56
-175.65
-194.26
-202.77
-199.97
-185.60
-160.82
-128.31
-91.90
-55.54
-22.31
6.14
29.72
49.29
66.09
81.19
95.27
108.60
121.00
131.78
139.63
142.95
140.31
131.09
115.89
96.52
75.71
56.44
41.21
31.36
26.69
25.48
24.97
22.30
15.47
3.95
-11.33
-28.58
-46.00
-62.49
-77.55
-90.94
-101.96
-109.28
-111.27
-106.67
-95.27
-78.06
-56.91
-33.81
-10.28
12.87
35.36
56.93
76.89
94.08
107.10
114.88
117.15
114.71
109.25
102.88
97.50
94.19
92.87
92.25
90.26
84.68
73.81
57.08
35.27
10.41
-14.77
-37.55
-55.88
-68.84
-76.74
-80.79
-82.69
-84.07
-86.12
-89.42
-94.01
-99.52
-105.47
-111.27
-116.17
-119.19
-119.12
-114.75
-105.31
-90.84
-72.28
-51.35
-30.03
-9.95
7.89
23.18
36.01
46.46
54.46
59.83
62.57
63.13
62.45
61.75
62.19
64.51
69.04
75.67
84.06
93.65
103.59
112.78
119.93
123.90
124.12
120.79
114.77
107.22
99.12
90.92
82.65
74.13
65.36
56.64
48.46
41.21
34.92
29.30
23.88
18.22
12.05
5.23
-2.38
-10.78
-19.71
-28.54
-36.40
-42.62
-47.19
-51.10
-55.99
-63.44
-74.16
-87.49
-101.55
-113.92
-122.46
-126.00
-124.54
-119.09
-111.37
-103.45
-97.43
-95.08
-97.52
-104.90
-116.21
-129.52
-142.37
-152.48
-158.28
-159.26
-155.81
-148.86
-139.49
-128.52
-116.52
-103.88
-91.05
-78.60
-67.08
-56.77
-47.65
-39.56
-32.44
-26.59
-22.53
-20.61
-20.42
-20.51
-18.69
-12.79
-1.75
13.75
31.33
47.83
60.52
68.01
70.63
69.95
68.03
66.76
67.35
70.26
75.13
80.86
85.60
87.17
83.74
74.73
61.38
46.73
34.74
28.73
30.23
38.23
49.77
61.09
69.10
72.26
70.72
65.62
58.12
48.92
38.15
25.81
12.04
-2.70
-17.93
-33.46
-49.32
-65.53
-81.57
-96.24
-107.79
-114.50
-115.34
-110.20
-99.78
-85.08
-67.13
-46.92
-25.70
-5.34
11.91
24.02
30.16
31.41
30.66
31.75
38.19
51.93
72.64
97.75
122.97
143.29
154.09
152.22
136.91
110.14
76.10
40.15
7.42
-18.20
-34.38
-40.28
-36.28
-23.88
-5.86
13.80
30.38
39.49
38.33
26.49
5.81
-20.40
-48.54
-75.71
-100.02
-120.57
-136.97
-149.05
-156.58
-159.30
-157.06
-150.05
-139.10
-125.51
-110.92
-96.66
-83.49
-71.50
-60.62
-51.13
-43.76
-39.04
-36.10
-31.83
-21.36
-0.09
33.53
76.18
119.88
154.63
172.05
168.57
146.33
111.99
74.04
40.02
14.77
-0.19
-6.33
-7.07
-6.65
-8.93
-16.25
-28.88
-44.78
-59.89
-68.87
-66.35
-48.87
-16.82
24.54
66.05
97.70
112.55
109.47
92.96
70.20
47.12
26.03
6.03
-14.32
-34.46
-51.28
-61.01
-61.94
-55.69
-46.34
-37.95
-32.58
-30.06
-29.28
-29.54
-31.05
-34.10
-37.88
-40.31
-38.92
-32.25
-20.69
-6.15
9.20
24.06
38.28
52.32
66.20
79.02
89.26
95.69
98.17
97.85
96.59
95.88
96.06
96.08
94.00
87.86
76.56
60.33
40.69
20.04
0.94
-14.46
-24.89
-30.22
-31.52
-30.81
-30.51
-32.67
-38.27
-46.95
-57.18
-66.90
-74.31
-78.34
-78.82
-76.17
-70.93
-63.46
-53.90
-42.41
-29.49
-16.20
-4.02
5.59
11.71
14.34
14.37
13.20
12.07
11.72
12.22
13.40
15.07
17.17
19.66
22.19
24.14
24.81
23.91
21.82
19.45
17.82
17.42
18.07
19.02
19.61
19.67
19.73
20.74
23.59
28.81
36.38
45.91
56.69
67.90
78.56
87.61
94.00
96.84
95.60
90.26
81.43
70.25
58.29
47.22
38.37
32.38
28.91
26.77
24.18
19.53
11.84
1.08
-11.87
-25.61
-38.62
-49.69
-58.09
-63.69
-66.83
-68.27
-68.91
-69.55
-70.65
-72.20
-73.71
-74.33
-73.13
-69.30
-62.49
-52.89
-41.29
-29.04
-17.71
-8.83
-3.39
-1.64
-3.01
-6.29
-10.03
-12.85
-13.80
-12.42
-8.72
-3.19
3.36
9.81
14.97
17.77
17.62
14.51
9.20
2.91
-3.03
-7.75
-11.08
-13.48
-15.75
-18.31
-20.97
-22.75
-22.39
-18.88
-12.16
-3.31
5.73
12.70
15.89
14.69
9.90
3.45
-2.04
-4.18
-1.45
6.14
16.76
27.18
33.63
33.17
24.97
10.72
-6.02
-21.17
-31.54
-35.91
-34.92
-30.36
-24.07
-17.17
-10.16
-3.42
2.46
6.70
8.60
7.75
4.30
-1.13
-7.51
-13.81
-19.48
-24.08
-26.88
-26.93
-23.58
-16.91
-7.88
2.17
11.55
18.14
20.55
19.15
15.86
13.03
12.54
15.22
21.17
28.95
34.63
33.86
24.41
7.29
-13.88
-34.11
-48.95
-55.40
-54.26
-51.33
-53.99
-66.89
-90.47
-122.06
-157.71
-193.78
-226.70
-242.45
-231.48
-195.71
-147.22
-98.88
-57.18
-22.15
7.08
36.39
68.08
99.41
125.27
143.01
153.19
155.54
151.11
137.64
117.42
95.72
80.85
72.83
70.91
73.77
80.68
90.17
99.68
107.16
109.95
104.85
89.28
64.11
33.02
1.09
-26.68
-46.73
-56.84
-57.42
-51.24
-42.17
-32.65
-23.86
-16.15
-9.71
-4.70
-0.73
2.59
5.71
8.74
12.04
15.47
18.25
19.26
17.60
13.37
7.57
1.90
-1.87
-2.22
1.36
7.98
15.63
21.77
24.30
22.18
15.63
5.91
-5.05
-15.29
-23.20
-27.68
-28.13
-24.40
-16.83
-6.19
6.31
19.23
31.14
40.90
47.82
51.62
52.24
49.63
43.65
34.24
21.71
7.13
-7.64
-20.15
-28.19
-30.50
-27.47
-21.04
-14.04
-9.06
-7.52
-9.27
-12.97
-17.04
-20.51
-23.39
-26.44
-30.35
-35.10
-39.83
-43.26
-44.36
-42.93
-39.67
-35.86
-32.87
-31.69
-32.65
-35.40
-38.82
-41.22
-40.69
-35.67
-25.44
-10.63
6.89
24.55
39.86
51.14
57.84
60.37
59.52
56.04
50.33
42.61
33.21
22.86
12.61
3.49
-3.87
-9.42
-13.59
-16.84
-19.29
-20.59
-20.18
-17.76
-13.65
-8.83
-4.55
-1.86
-1.27
-2.73
-5.85
-10.04
-14.51
-18.12
-19.41
-16.99
-10.27
-0.05
11.35
20.85
25.79
25.22
20.25
13.58
8.16
5.93
7.09
10.39
14.02
16.64
17.96
18.62
19.61
21.54
24.23
26.84
28.27
27.62
24.40
18.53
10.16
-0.45
-12.72
-25.63
-37.67
-47.02
-52.07
-51.93
-46.70
-37.46
-25.91
-13.90
-2.93
6.11
12.95
17.77
20.93
22.72
23.26
22.50
20.42
17.10
12.86
8.12
3.37
-0.92
-4.34
-6.54
-7.31
-6.71
-5.29
-4.04
-4.27
-7.21
-13.57
-23.34
-35.68
-49.02
-61.29
-70.27
-74.00
-71.34
-62.46
-49.03
-33.81
-19.77
-9.00
-1.96
2.51
6.38
11.32
17.70
24.57
30.22
33.35
33.78
32.64
31.67
32.30
34.90
38.63
41.82
42.68
39.86
32.74
21.51
7.10
-8.86
-24.21
-36.69
-44.33
-46.15
-42.35
-34.28
-23.94
-13.46
-4.47
2.04
5.87
7.38
7.31
6.57
5.94
5.92
6.60
7.65
8.57
8.81
8.04
6.29
4.01
1.99
1.17
2.27
5.49
10.23
15.14
18.38
18.17
13.35
3.79
-9.64
-25.25
-41.05
-55.16
-66.05
-72.51
-73.72
-69.31
-59.60
-45.89
-30.46
-16.06
-5.06
1.48
4.32
5.75
8.55
14.75
24.73
37.09
49.33
59.03
64.76
66.55
65.61
63.62
62.01
61.46
61.94
62.83
63.26
62.16
58.38
50.82
38.86
22.76
4.00
-14.91
-31.17
-42.69
-48.80
-50.27
-48.74
-45.73
-41.96
-37.27
-31.03
-22.89
-13.12
-2.74
6.90
14.49
19.19
20.79
19.82
17.50
15.47
15.33
17.94
22.93
28.81
33.54
35.48
34.17
30.51
26.21
22.89
21.42
21.65
22.82
24.18
25.46
26.88
28.65
30.55
31.65
30.60
25.98
16.75
2.50
-16.56
-39.65
-65.36
-91.58
-115.28
-132.60
-139.44
-132.66
-111.55
-78.67
-39.69
-1.84
28.45
47.59
55.69
55.86
52.33
48.59
46.23
45.16
44.54
43.86
43.23
43.06
43.25
42.82
40.15
33.58
22.30
6.82
-11.08
-28.96
-44.45
-55.84
-62.39
-64.13
-61.59
-55.42
-46.26
-34.69
-21.33
-6.80
8.25
23.35
38.23
52.75
66.77
79.83
91.04
98.94
101.60
96.99
83.49
60.83
30.58
-3.61
-36.88
-64.63
-84.07
-95.19
-100.25
-102.31
-103.91
-106.43
-110.54
-116.81
-125.83
-137.43
-149.51
-157.82
-157.05
-143.29
-116.00
-78.57
-36.87
3.38
38.78
68.74
94.45
117.14
137.09
153.80
166.83
176.54
184.03
190.50
196.31
200.65
201.81
197.74
186.92
168.67
143.45
112.91
79.83
47.99
21.49
3.67
-4.10
-3.08
3.23
10.60
15.91
18.47
20.03
23.62
31.67
44.48
59.83
73.74
82.23
83.00
76.47
65.64
54.92
48.46
48.84
56.57
70.35
87.95
106.99
125.29
140.68
150.72
152.70
144.30
124.55
94.53
57.54
18.27
-18.51
-49.38
-73.19
-91.21
-106.32
-121.70
-139.50
-159.88
-181.01
-199.95
-213.92
-221.52
-223.16
-220.77
-216.82
-213.20
-210.66
-208.69
-206.20
-202.29
-196.89
-190.90
-185.67
-182.15
-180.05
-177.55
-171.92
-160.39
-141.22
-114.05
-79.93
-41.08
-0.77
36.66
66.04
82.36
82.46
66.61
39.21
7.71
-19.91
-37.90
-44.49
-41.79
-34.03
-25.32
-17.98
-12.30
-7.26
-1.68
5.00
12.55
20.53
28.68
37.25
46.67
57.00
67.44
76.26
81.11
79.82
71.18
55.49
34.66
11.81
-9.50
-26.11
-36.11
-39.17
-36.54
-30.48
-23.65
-18.37
-16.15
-17.55
-22.23
-29.12
-36.72
-43.34
-47.47
-48.11
-45.11
-39.11
-31.34
-23.07
-15.29
-8.52
-2.94
1.35
4.16
5.34
5.01
3.87
3.15
4.22
7.99
14.32
21.99
29.01
33.38
33.76
29.85
22.40
12.79
2.71
-6.30
-13.02
-16.76
-17.51
-15.96
-13.34
-11.02
-10.00
-10.46
-11.72
-12.58
-11.83
-8.85
-3.76
2.61
9.15
14.86
19.13
21.79
22.96
22.87
21.66
19.33
15.75
10.75
4.28
-3.36
-11.47
-18.90
-24.40
-26.90
-26.00
-22.22
-16.96
-12.15
-9.65
-10.62
-15.14
-22.12
-29.70
-35.83
-38.93
-38.34
-34.53
-28.92
-23.50
-20.27
-20.57
-24.55
-30.79
-36.55
-38.53
-33.98
-21.76
-2.66
20.88
45.58
68.07
85.37
95.10
95.71
86.89
70.07
48.63
27.31
11.05
3.21
4.52
12.87
24.26
34.42
40.24
40.65
36.58
30.28
24.32
20.74
20.48
23.34
28.30
34.02
39.32
43.50
46.42
48.31
49.61
50.65
51.38
51.27
49.38
44.75
36.94
26.62
15.54
6.20
0.98
1.14
6.36
14.73
23.44
29.65
31.42
28.13
20.59
10.70
1.01
-5.95
-8.22
-4.94
3.34
14.81
26.84
36.74
42.34
42.49
37.08
26.86
13.10
-2.61
-18.45
-32.31
-42.05
-45.99
-43.66
-36.36
-27.02
-19.35
-16.39
-19.36
-27.09
-36.70
-44.82
-49.09
-48.87
-45.08
-39.32
-32.90
-26.32
-19.31
-11.38
-2.36
7.37
17.02
25.70
32.66
37.44
39.83
39.79
37.49
33.35
28.02
22.28
16.93
12.59
9.59
7.91
7.16
6.73
6.04
4.86
3.47
2.59
3.03
5.27
9.16
14.04
19.11
23.80
27.84
31.13
33.39
34.10
32.78
29.39
24.66
19.85
16.22
14.36
13.83
13.42
11.67
7.58
0.87
-7.98
-18.28
-29.47
-41.32
-53.76
-66.50
-78.76
-89.29
-96.80
-100.55
-100.70
-98.24
-94.37
-89.79
-84.29
-76.88
-66.32
-51.92
-33.94
-13.66
7.09
26.47
43.08
56.14
65.42
71.13
73.75
73.90
72.24
69.24
65.15
59.94
53.49
45.75
36.97
27.77
19.06
11.84
6.99
5.04
5.87
8.47
10.81
10.22
4.31
-7.75
-24.29
-41.26
-53.39
-56.22
-47.82
-29.46
-4.91
20.93
43.59
59.81
67.72
66.78
57.63
42.09
23.01
3.61
-13.29
-26.07
-34.60
-39.84
-43.21
-46.02
-49.20
-53.39
-59.08
-66.63
-76.12
-87.02
-98.16
-107.76
-113.90
-115.13
-110.99
-102.25
-90.55
-77.75
-64.98
-52.18
-38.17
-21.34
-0.61
23.97
50.91
77.67
101.09
118.11
126.48
125.36
115.96
101.55
86.80
76.31
72.96
76.73
84.79
92.63
95.96
92.11
80.74
63.43
42.90
22.23
4.40
-7.99
-13.17
-10.66
-1.83
9.94
19.95
23.20
16.05
-2.37
-29.37
-59.07
-83.91
-96.91
-93.90
-74.76
-43.45
-6.84
27.49
53.25
66.85
67.78
58.04
41.04
20.83
0.94
-16.12
-28.95
-36.96
-40.25
-39.31
-35.08
-28.92
-21.66
-14.13
-7.10
-1.05
3.96
8.00
11.50
14.78
18.05
23.16
31.67
44.09
59.59
76.29
91.61
103.97
112.40
116.58
119.18
122.68
128.37
136.28
146.04
156.66
168.31
180.51
191.76
202.86
213.56
222.21
226.46
224.96
217.20
205.80
193.67
164.75
111.94
38.91
-41.65
-116.95
-174.11
-216.94
-248.52
-269.99
-281.80
-280.89
-265.98
-238.87
-204.34
-167.90
-135.78
-112.34
-99.94
-97.71
-99.26
-98.49
-90.44
-76.13
-58.56
-41.05
-24.14
-6.70
10.67
28.75
46.59
62.02
71.82
73.42
65.41
48.97
26.51
0.16
-27.45
-54.89
-80.63
-101.49
-114.54
-119.96
-120.47
-119.70
-120.59
-123.21
-128.47
-133.72
-136.56
-135.69
-130.95
-122.38
-110.00
-94.53
-74.99
-52.53
-27.85
-1.80
24.96
52.09
79.89
108.89
138.74
169.39
193.94
206.15
202.37
183.02
151.37
111.78
73.54
38.92
11.01
-7.05
-12.53
-5.49
10.27
28.67
43.46
50.46
48.05
38.18
23.94
8.72
-5.21
-16.97
-26.98
-35.04
-41.03
-46.08
-51.57
-58.85
-68.97
-81.42
-94.80
-107.44
-117.98
-126.03
-130.37
-130.95
-128.38
-123.45
-116.79
-108.94
-100.32
-91.23
-81.93
-72.79
-64.04
-55.56
-46.86
-37.07
-25.36
-11.13
5.72
24.57
44.24
63.10
79.79
93.36
103.54
110.47
114.59
116.36
116.17
114.30
110.83
105.88
99.57
92.00
83.26
73.46
62.79
51.58
40.23
29.11
18.50
8.45
-1.13
-10.44
-19.45
-27.85
-34.91
-39.74
-41.57
-40.17
-35.94
-29.81
-22.97
-16.42
-10.79
-6.27
-2.76
-0.14
1.64
2.54
2.50
1.54
-0.17
-2.34
-4.68
-6.93
-8.94
-10.66
-12.12
-13.40
-14.63
-15.99
-17.73
-20.02
-22.87
-26.01
-28.84
-30.57
-30.43
-27.97
-23.26
-16.84
-9.62
-2.52
3.70
8.61
12.10
14.30
15.45
15.81
15.55
14.79
13.58
12.01
10.22
8.40
6.77
5.44
4.41
3.54
2.63
1.46
-0.16
-2.38
-5.23
-8.61
-12.14
-15.16
-16.87
-16.56
-13.86
-8.93
-2.45
4.58
11.15
16.48
20.19
22.19
22.65
21.83
19.98
17.37
14.30
11.07
7.97
5.20
2.87
0.91
-0.77
-2.31
-3.79
-5.24
-6.74
-8.41
-10.48
-13.06
-16.07
-19.05
-21.24
-21.75
-19.97
-15.74
-9.53
-2.21
5.18
11.78
17.02
20.70
22.86
23.66
23.31
22.04
20.04
17.53
14.75
11.90
9.18
6.70
4.52
2.58
0.79
-1.00
-2.91
-5.06
-7.49
-10.25
-13.31
-16.47
-19.31
-21.23
-21.58
-19.88
-16.02
-10.42
-3.82
2.85
8.78
13.46
16.68
18.51
19.07
18.52
17.00
14.70
11.86
8.79
5.84
3.26
1.16
-0.49
-1.84
-3.07
-4.33
-5.77
-7.51
-9.70
-12.39
-15.48
-18.61
-21.13
-22.29
-21.48
-18.45
-13.47
-7.23
-0.65
5.44
10.43
14.02
16.16
16.96
16.59
15.28
13.29
10.91
8.42
5.98
3.72
1.68
-0.14
-1.75
-3.16
-4.47
-5.87
-7.59
-9.89
-12.89
-16.49
-20.24
-23.45
-25.31
-25.15
-22.64
-17.93
-11.66
-4.72
1.99
7.75
12.15
15.04
16.46
16.54
15.46
13.42
10.71
7.67
4.65
1.96
-0.21
-1.83
-3.02
-4.03
-5.09
-6.43
-8.20
-10.51
-13.38
-16.77
-20.41
-23.80
-26.18
-26.70
-24.77
-20.30
-13.82
-6.33
1.01
7.30
12.09
15.40
17.49
18.58
18.75
17.99
16.35
13.97
11.19
8.38
5.78
3.51
1.48
-0.44
-2.42
-4.55
-6.85
-9.33
-11.97
-14.76
-17.61
-20.26
-22.29
-23.08
-22.08
-18.92
-13.68
-6.94
0.32
7.07
12.50
16.25
18.42
19.35
19.39
18.76
17.50
15.61
13.21
10.56
8.02
5.89
4.27
3.03
1.90
0.53
-1.32
-3.78
-6.83
-10.29
-13.86
-17.10
-19.45
-20.38
-19.42
-16.41
-11.51
-5.26
1.56
8.12
13.70
17.87
20.49
21.66
21.65
20.74
19.21
17.29
15.19
13.04
10.99
9.10
7.40
5.87
4.45
3.09
1.73
0.27
-1.44
-3.59
-6.34
-9.66
-13.25
-16.49
-18.59
-18.87
-16.91
-12.82
-7.11
-0.59
5.85
11.46
15.76
18.54
19.80
19.74
18.65
16.79
14.41
11.72
8.92
6.24
3.90
2.04
0.73
-0.12
-0.75
-1.44
-2.52
-4.23
-6.72
-9.99
-13.83
-17.77
-21.09
-23.01
-22.83
-20.18
-15.22
-8.60
-1.29
5.65
11.42
15.58
18.09
19.16
19.04
17.96
16.05
13.49
10.52
7.49
4.76
2.58
0.99
-0.17
-1.12
-2.11
-3.33
-4.87
-6.90
-9.54
-12.86
-16.63
-20.26
-22.87
-23.52
-21.58
-17.02
-10.48
-3.03
4.19
10.36
15.10
18.40
20.47
21.47
21.47
20.50
18.68
16.27
13.68
11.29
9.34
7.85
6.62
5.40
3.95
2.16
-0.00
-2.52
-5.39
-8.59
-11.94
-15.04
-17.24
-17.80
-16.13
-12.08
-6.06
1.02
8.09
14.16
18.67
21.49
22.89
23.21
22.78
21.76
20.19
18.14
15.73
13.17
10.65
8.31
6.10
3.96
1.78
-0.42
-2.60
-4.73
-6.89
-9.24
-11.90
-14.75
-17.25
-18.64
-18.06
-15.09
-9.83
-3.05
4.16
10.78
16.12
19.98
22.45
23.77
24.11
23.54
22.15
20.12
17.77
15.43
13.37
11.68
10.30
9.06
7.78
6.32
4.64
2.71
0.54
-1.91
-4.60
-7.41
-10.05
-12.12
-13.17
-12.89
-11.14
-8.06
-3.99
0.65
5.34
9.69
13.27
15.85
17.27
17.57
16.91
15.55
13.74
11.62
9.28
6.81
4.34
2.06
0.15
-1.34
-2.47
-3.47
-4.65
-6.27
-8.48
-11.25
-14.36
-17.37
-19.78
-21.04
-20.71
-18.59
-14.75
-9.59
-3.78
1.90
6.78
10.38
12.54
13.42
13.28
12.45
11.17
9.61
7.96
6.42
5.19
4.43
4.09
4.00
3.85
3.39
2.42
0.91
-1.21
-3.92
-7.22
-10.95
-14.70
-17.83
-19.54
-19.22
-16.59
-11.87
-5.68
1.13
7.74
13.52
18.08
21.28
23.03
23.35
22.35
20.24
17.43
14.38
11.52
9.15
7.32
5.86
4.53
3.10
1.44
-0.47
-2.62
-5.02
-7.72
-10.69
-13.76
-16.48
-18.27
-18.52
-16.84
-13.27
-8.28
-2.62
2.87
7.52
11.00
13.29
14.54
14.99
14.79
14.02
12.71
10.91
8.79
6.54
4.40
2.47
0.79
-0.74
-2.22
-3.70
-5.22
-6.82
-8.66
-10.93
-13.82
-17.26
-20.85
-23.89
-25.52
-25.11
-22.39
-17.65
-11.53
-4.91
1.44
6.91
11.15
14.05
15.61
15.94
15.19
13.62
11.55
9.33
7.25
5.51
4.13
2.99
1.91
0.71
-0.70
-2.33
-4.07
-5.82
-7.58
-9.41
-11.47
-13.83
-16.32
-18.51
-19.72
-19.31
-16.88
-12.56
-6.91
-0.82
4.86
9.45
12.65
14.47
15.07
14.69
13.56
11.94
10.05
8.16
6.41
4.87
3.52
2.28
1.09
-0.10
-1.27
-2.44
-3.67
-5.05
-6.73
-8.81
-11.33
-14.14
-16.89
-19.05
-20.01
-19.30
-16.75
-12.61
-7.51
-2.21
2.55
6.30
8.87
10.29
10.72
10.27
9.07
7.31
5.23
3.13
1.32
-0.00
-0.85
-1.39
-1.89
-2.56
-3.52
-4.75
-6.14
-7.64
-9.34
-11.43
-14.03
-17.03
-19.95
-22.03
-22.45
-20.75
-16.96
-11.66
-5.73
-0.08
4.69
8.30
10.76
12.23
12.90
12.94
12.47
11.60
10.42
9.01
7.44
5.79
4.18
2.73
1.54
0.60
-0.20
-1.09
-2.29
-4.04
-6.45
-9.54
-13.10
-16.72
-19.79
-21.57
-21.45
-19.15
-14.86
-9.26
-3.28
2.22
6.63
9.72
11.59
12.48
12.61
12.13
11.08
9.55
7.66
5.57
3.48
1.52
-0.26
-1.92
-3.60
-5.43
-7.50
-9.81
-12.33
-15.08
-18.16
-21.72
-25.75
-29.97
-33.74
-36.22
-36.63
-34.62
-30.44
-24.95
-19.30
-14.63
-11.64
-10.45
-10.59
-11.16
-11.16
-9.82
-6.87
-2.49
2.80
8.60
14.87
22.02
30.51
40.40
51.03
61.14
69.47
75.28
78.60
80.02
80.30
80.32
81.28
85.10
94.10
110.10
132.96
159.74
184.96
202.21
206.60
196.50
174.07
144.10
112.13
82.64
58.20
39.58
26.37
17.72
12.64
10.17
9.36
9.29
9.17
8.39
6.57
3.42
-1.19
-7.31
-14.91
-23.83
-33.88
-44.85
-56.62
-69.01
-81.66
-93.94
-105.05
-114.29
-121.41
-126.80
-131.30
-135.81
-140.81
-146.14
-151.11
-154.88
-156.82
-156.68
-154.66
-151.02
-146.05
-139.94
-132.90
-125.18
-117.09
-108.84
-100.41
-91.55
-81.75
-70.63
-58.01
-44.21
-29.84
-15.71
-2.51
9.34
19.59
28.02
34.24
37.75
38.12
35.35
29.98
23.09
15.96
9.69
5.00
2.15
1.03
1.38
2.85
5.07
7.65
10.18
12.24
13.43
13.34
11.60
7.96
2.42
-4.59
-12.19
-19.24
-24.57
-27.31
-27.09
-24.13
-19.01
-12.57
-5.61
1.14
7.15
12.04
15.58
17.77
18.80
19.04
18.89
18.69
18.62
18.67
18.77
18.83
18.86
18.87
18.91
18.87
18.55
17.64
15.89
13.26
9.99
6.60
3.76
2.09
1.94
3.32
5.87
8.96
11.95
14.23
15.45
15.46
14.36
12.40
9.84
7.02
4.18
1.54
-0.71
-2.43
-3.50
-3.90
-3.74
-3.25
-2.76
-2.62
-3.11
-4.40
-6.47
-9.07
-11.74
-13.81
-14.70
-13.96
-11.60
-7.95
-3.56
0.99
5.31
9.16
12.38
14.79
16.15
16.26
15.17
13.19
10.89
8.83
7.41
6.73
6.55
6.53
6.31
5.66
4.46
2.70
0.43
-2.28
-5.17
-7.81
-9.59
-9.86
-8.22
-4.70
0.24
5.88
11.54
16.81
21.58
25.89
29.69
32.69
34.47
34.72
33.51
31.40
29.37
28.44
29.24
31.72
35.11
38.23
39.87
39.44
37.14
33.93
31.16
30.00
31.03
34.04
38.23
42.66
46.71
50.46
54.73
60.78
69.76
82.11
97.15
112.91
126.41
134.36
134.03
124.21
106.09
83.57
62.53
49.00
46.77
55.33
69.62
81.60
83.43
70.56
43.28
6.12
-34.48
-72.73
-105.01
-129.80
-146.64
-155.04
-154.26
-144.04
-125.49
-101.52
-76.22
-53.63
-36.40
-25.12
-18.35
-13.64
-8.73
-2.43
4.96
12.02
16.85
18.07
15.27
9.26
1.65
-5.90
-12.51
-18.65
-26.15
-37.47
-54.50
-77.43
-104.09
-130.21
-150.45
-159.87
-155.10
-135.13
-101.49
-58.11
-10.95
32.67
65.23
80.95
77.92
59.44
33.53
10.26
-1.98
0.29
14.77
35.06
53.99
66.59
71.26
68.89
60.92
47.98
29.76
6.18
-21.36
-49.72
-74.79
-93.19
-103.49
-106.49
-104.56
-100.47
-96.25
-92.59
-89.05
-84.63
-78.56
-70.81
-62.18
-53.94
-47.28
-42.66
-39.64
-37.00
-33.19
-27.00
-17.87
-6.07
7.52
21.80
35.84
49.06
61.20
72.06
81.28
88.14
91.88
92.02
88.86
83.55
77.74
72.94
69.88
68.24
66.91
64.60
60.41
54.22
46.48
37.93
29.22
20.85
13.21
6.69
1.63
-1.83
-3.94
-5.27
-6.51
-8.14
-10.22
-12.44
-14.33
-15.56
-16.15
-16.39
-16.58
-16.84
-17.01
-16.77
-15.83
-14.21
-12.14
-10.07
-8.36
-7.13
-6.27
-5.51
-4.60
-3.44
-2.18
-1.09
-0.45
-0.33
-0.44
-0.22
1.12
4.24
9.43
16.43
24.41
32.26
38.86
43.41
45.66
45.95
45.08
44.09
43.93
45.15
47.69
50.80
53.18
53.25
49.64
41.64
29.51
14.43
-1.87
-17.75
-32.23
-45.26
-57.54
-69.90
-82.74
-95.61
-107.30
-116.30
-121.37
-122.03
-118.49
-111.50
-102.01
-90.90
-78.83
-65.96
-51.90
-35.62
-15.81
8.51
37.14
68.24
98.44
123.69
140.74
148.26
147.31
140.97
133.13
127.07
124.34
124.17
123.90
120.16
110.03
92.13
67.07
37.27
6.26
-22.37
-46.31
-64.91
-78.91
-90.04
-100.27
-111.21
-123.58
-137.15
-150.73
-163.13
-173.20
-179.55
-181.00
-176.79
-166.84
-151.80
-132.80
-110.92
-87.48
-63.53
-39.26
-14.74
9.70
33.12
53.35
66.75
74.35
79.21
82.93
87.40
93.60
101.22
108.69
114.00
115.58
113.02
106.29
95.66
81.86
65.60
47.73
29.45
12.29
-2.06
-12.22
-18.14
-20.93
-21.97
-22.63
-23.69
-25.26
-26.94
-28.08
-28.06
-26.86
-24.92
-22.64
-20.41
-18.42
-16.71
-15.21
-13.81
-12.44
-11.22
-10.36
-9.89
-9.79
-10.04
-10.68
-11.82
-13.56
-15.70
-17.73
-18.86
-18.23
-15.28
-10.11
-3.40
3.75
10.25
15.23
18.22
19.04
17.81
14.88
10.91
6.88
3.83
2.63
3.57
6.20
9.53
12.34
13.80
13.67
12.46
10.95
9.76
8.90
7.69
5.17
0.56
-6.21
-14.39
-22.75
-30.05
-35.63
-39.59
-42.71
-46.02
-50.33
-55.87
-62.12
-67.88
-71.62
-71.92
-67.87
-59.50
-47.70
-34.00
-19.88
-6.40
6.19
18.21
30.22
42.52
54.69
65.49
73.05
75.43
71.13
59.60
41.55
18.91
-5.46
-28.56
-48.12
-63.08
-73.77
-81.53
-87.91
-93.72
-98.38
-99.82
-95.34
-83.14
-62.96
-36.34
-6.48
22.88
48.58
68.87
83.97
95.38
104.23
111.10
116.12
118.87
119.13
117.75
116.86
119.66
128.69
143.07
159.06
171.43
174.64
164.88
141.32
106.40
65.48
25.12
-9.72
-35.16
-48.09
-47.50
-34.80
-13.81
6.39
16.02
16.10
8.87
-5.83
-25.12
-45.20
-62.65
-75.38
-83.09
-86.30
-86.01
-84.52
-83.40
-82.43
-80.63
-76.65
-69.30
-57.84
-41.92
-22.05
-0.92
18.13
32.70
41.86
46.81
50.58
56.73
67.96
84.54
103.53
120.57
132.12
136.36
133.49
124.91
112.14
96.31
78.27
58.85
39.60
22.58
9.15
-0.98
-9.77
-19.80
-32.63
-47.69
-62.43
-73.52
-78.38
-76.39
-68.72
-57.18
-43.19
-27.49
-10.88
4.90
17.21
23.53
23.23
18.45
13.63
13.46
20.58
34.29
50.98
66.07
76.08
79.82
78.37
73.77
67.84
61.65
55.89
51.51
50.06
52.88
59.87
68.47
73.99
71.51
58.58
36.81
11.57
-10.57
-25.05
-31.53
-33.68
-37.17
-46.95
-65.45
-92.25
-124.64
-158.46
-188.50
-208.96
-214.29
-200.94
-169.18
-124.13
-74.83
-31.32
-0.95
13.89
15.72
10.11
2.55
-3.66
-7.92
-11.72
-16.81
-24.17
-33.82
-45.15
-57.25
-68.86
-78.20
-83.37
-83.95
-80.81
-75.86
-71.41
-69.48
-70.99
-75.60
-82.06
-88.95
-96.73
-105.67
-114.81
-122.05
-125.40
-124.10
-118.95
-111.76
-104.51
-101.09
-103.27
-109.47
-115.81
-118.55
-116.02
-108.99
-99.73
-90.99
-88.17
-94.57
-109.63
-129.95
-151.47
-171.09
-186.85
-197.54
-182.83
-134.43
-60.93
16.72
79.73
120.67
141.98
150.38
152.53
152.78
149.80
140.32
125.60
109.41
95.66
86.58
82.29
81.52
82.45
81.02
74.71
64.10
52.18
41.86
34.74
30.92
29.66
29.94
29.41
26.77
22.56
18.46
15.98
15.77
17.50
20.46
24.15
27.75
31.15
35.07
40.39
47.49
55.98
64.97
73.52
80.94
86.61
90.17
91.54
90.75
87.93
83.30
77.27
70.39
63.13
55.84
48.64
41.48
34.25
26.87
19.40
12.02
5.13
-0.78
-5.18
-7.69
-8.28
-7.39
-5.81
-4.42
-3.88
-4.36
-5.58
-6.99
-8.05
-8.42
-8.03
-6.97
-5.38
-3.33
-0.87
1.95
4.96
7.81
10.10
11.46
11.73
11.01
9.63
8.02
6.55
5.41
4.61
3.99
3.37
2.59
1.64
0.58
-0.46
-1.42
-2.28
-3.14
-4.10
-5.27
-6.69
-8.40
-10.39
-12.59
-14.81
-16.70
-17.79
-17.59
-15.81
-12.51
-8.11
-3.21
1.61
6.01
9.97
13.60
17.00
20.12
22.72
24.53
25.39
25.32
24.48
23.12
21.38
19.31
16.83
13.86
10.42
6.66
2.84
-0.73
-3.82
-6.31
-8.22
-9.72
-11.08
-12.68
-14.87
-17.89
-21.66
-25.79
-29.54
-32.07
-32.75
-31.32
-28.03
-23.47
-18.36
-13.26
-8.51
-4.18
-0.22
3.41
6.65
9.37
11.45
12.81
13.57
13.97
14.26
14.63
15.04
15.35
15.32
14.82
13.82
12.46
10.90
9.27
7.59
5.79
3.74
1.37
-1.35
-4.37
-7.54
-10.66
-13.39
-15.39
-16.29
-15.83
-13.90
-10.67
-6.50
-1.91
2.61
6.67
10.07
12.79
14.90
16.47
17.54
18.13
18.24
17.90
17.23
16.39
15.53
14.78
14.20
13.78
13.40
12.95
12.35
11.62
10.84
10.09
9.42
8.76
8.00
7.07
6.04
5.09
4.49
4.52
5.34
7.04
9.63
13.04
17.12
21.63
26.18
30.33
33.66
35.94
37.16
37.52
37.32
36.83
36.20
35.44
34.50
33.32
31.87
30.15
28.15
25.81
23.05
19.86
16.26
12.40
8.46
4.61
0.97
-2.46
-5.68
-8.71
-11.50
-13.93
-15.88
-17.29
-18.26
-19.01
-19.87
-21.12
-22.92
-25.26
-27.96
-30.72
-33.15
-34.85
-35.47
-34.75
-32.65
-29.34
-25.19
-20.67
-16.25
-12.22
-8.71
-5.72
-3.17
-1.04
0.69
2.01
2.99
3.73
4.35
4.94
5.52
6.03
6.39
6.62
6.78
7.05
7.58
8.42
9.48
10.57
11.43
11.88
11.88
11.50
10.89
10.17
9.38
8.52
7.53
6.37
4.98
3.26
1.11
-1.55
-4.64
-7.87
-10.79
-12.89
-13.75
-13.22
-11.43
-8.70
-5.45
-2.03
1.33
4.52
7.52
10.27
12.75
14.86
16.50
17.48
17.67
17.01
15.56
13.58
11.44
9.49
7.94
6.81
5.95
5.12
4.16
2.97
1.57
0.01
-1.66
-3.37
-5.04
-6.57
-7.95
-9.25
-10.67
-12.38
-14.50
-16.95
-19.50
-21.79
-23.43
-24.06
-23.41
-21.40
-18.12
-13.90
-9.24
-4.64
-0.55
2.78
5.28
7.04
8.18
8.85
9.17
9.20
9.02
8.66
8.13
7.45
6.64
5.71
4.70
3.60
2.39
1.05
-0.41
-2.00
-3.67
-5.43
-7.26
-9.17
-11.11
-13.07
-15.02
-17.03
-19.21
-21.64
-24.31
-27.01
-29.37
-30.94
-31.37
-30.47
-28.30
-25.08
-21.14
-16.80
-12.31
-7.90
-3.76
-0.07
3.03
5.44
7.19
8.39
9.20
9.80
10.33
10.83
11.24
11.48
11.43
11.06
10.46
9.73
9.01
8.36
7.71
6.95
5.94
4.61
2.96
1.07
-0.93
-2.93
-4.87
-6.75
-8.63
-10.62
-12.83
-15.32
-18.08
-20.93
-23.50
-25.30
-25.88
-24.93
-22.43
-18.68
-14.21
-9.60
-5.31
-1.57
1.63
4.39
6.81
8.87
10.46
11.48
11.95
11.99
11.84
11.70
11.72
11.90
12.12
12.25
12.20
11.96
11.63
11.35
11.17
11.04
10.78
10.13
8.90
7.06
4.76
2.29
-0.06
-2.08
-3.73
-5.09
-6.38
-7.82
-9.60
-11.79
-14.33
-17.03
-19.62
-21.77
-23.16
-23.56
-22.82
-20.96
-18.09
-14.47
-10.41
-6.17
-1.94
2.26
6.45
10.60
14.52
17.87
20.27
21.49
21.55
20.77
19.60
18.40
17.38
16.48
15.58
14.53
13.38
12.27
11.31
10.54
9.77
8.72
7.15
4.98
2.35
-0.45
-3.13
-5.55
-7.74
-9.87
-12.11
-14.53
-17.03
-19.36
-21.17
-22.15
-22.02
-20.62
-17.97
-14.22
-9.67
-4.73
0.17
4.66
8.43
11.32
13.29
14.40
14.76
14.55
14.01
13.37
12.89
12.75
13.06
13.82
14.89
16.07
17.07
17.59
17.41
16.45
14.82
12.73
10.45
8.18
5.98
3.77
1.41
-1.28
-4.43
-8.10
-12.26
-16.75
-21.22
-25.18
-28.08
-29.44
-29.00
-26.86
-23.36
-19.02
-14.33
-9.66
-5.24
-1.13
2.64
6.07
9.06
11.55
13.50
14.91
15.86
16.46
16.83
17.03
17.13
17.16
17.15
17.16
17.23
17.34
17.42
17.33
16.94
16.14
14.88
13.21
11.26
9.21
7.25
5.52
4.00
2.56
1.02
-0.77
-2.89
-5.28
-7.90
-10.73
-13.77
-16.96
-20.10
-22.79
-24.55
-24.95
-23.82
-21.26
-17.66
-13.48
-9.08
-4.71
-0.43
3.73
7.67
11.23
14.16
16.29
17.56
18.08
18.06
17.70
17.18
16.55
15.83
15.05
14.28
13.57
12.92
12.23
11.38
10.21
8.67
6.78
4.65
2.37
0.07
-2.15
-4.15
-5.84
-7.15
-8.15
-8.97
-9.82
-10.82
-12.04
-13.39
-14.75
-15.99
-17.09
-18.12
-19.25
-20.74
-22.75
-25.31
-28.23
-31.00
-32.98
-33.52
-32.21
-29.03
-24.34
-18.77
-12.98
-7.47
-2.45
2.05
6.13
9.83
13.07
15.71
17.64
18.84
19.43
19.63
19.66
19.66
19.69
19.74
19.82
19.91
20.06
20.30
20.57
20.73
20.63
20.13
19.16
17.77
16.07
14.22
12.36
10.58
8.89
7.24
5.49
3.46
0.98
-2.06
-5.61
-9.43
-13.04
-15.93
-17.64
-17.91
-16.74
-14.38
-11.18
-7.52
-3.68
0.18
3.90
7.38
10.47
13.00
14.84
15.93
16.35
16.26
15.94
15.66
15.61
15.86
16.33
16.86
17.27
17.47
17.42
17.15
16.66
15.96
15.01
13.78
12.33
10.76
9.19
7.75
6.46
5.28
4.08
2.71
1.07
-0.86
-3.01
-5.20
-7.30
-9.23
-11.05
-12.95
-15.20
-17.97
-21.31
-24.94
-28.37
-30.93
-32.00
-31.20
-28.49
-24.20
-18.90
-13.23
-7.73
-2.73
1.62
5.34
8.51
11.23
13.58
15.58
17.19
18.33
18.94
19.04
18.74
18.25
17.78
17.51
17.46
17.53
17.63
17.66
17.58
17.44
17.25
16.99
16.54
15.76
14.54
12.86
10.83
8.62
6.42
4.26
2.12
-0.12
-2.56
-5.19
-7.88
-10.52
-13.00
-15.33
-17.55
-19.71
-21.84
-23.94
-26.01
-28.09
-30.28
-32.61
-35.03
-37.39
-39.38
-40.66
-40.92
-39.92
-37.60
-34.07
-29.62
-24.64
-19.56
-14.68
-10.25
-6.32
-2.90
0.07
2.64
4.82
6.62
8.01
8.95
9.47
9.62
9.53
9.39
9.39
9.67
10.27
11.13
12.11
13.01
13.66
13.93
13.77
13.23
12.48
11.70
11.08
10.69
10.53
10.48
10.38
10.09
9.55
8.76
7.77
6.65
5.46
4.28
3.24
2.48
2.18
2.43
3.21
4.42
5.83
7.22
8.44
9.39
10.05
10.43
10.53
10.34
9.86
9.16
8.31
7.41
6.54
5.71
4.89
4.05
3.14
2.12
0.98
-0.25
-1.57
-2.91
-4.27
-5.63
-7.02
-8.53
-10.17
-11.93
-13.74
-15.45
-16.94
-18.20
-19.33
-20.48
-21.82
-23.42
-25.28
-27.28
-29.28
-31.09
-32.53
-33.41
-33.48
-32.58
-30.57
-27.46
-23.39
-18.63
-13.55
-8.55
-4.02
-0.24
2.67
4.83
6.54
8.17
9.95
11.86
13.53
14.45
14.18
12.68
10.39
8.16
6.85
6.91
8.07
9.46
9.89
8.45
4.92
-0.01
-4.95
-8.46
-9.68
-8.86
-7.19
-6.39
-7.85
-11.96
-17.80
-23.49
-26.71
-25.44
-18.36
-4.94
14.52
38.44
63.62
85.66
100.43
106.26
105.12
102.63
105.74
119.32
143.32
172.49
198.71
214.70
216.69
204.35
179.89
146.28
106.17
61.92
16.30
-26.98
-63.62
-90.01
-105.66
-112.50
-113.82
-112.90
-112.17
-112.99
-115.72
-120.00
-125.00
-131.35
-139.98
-151.59
-166.00
-182.36
-199.44
-215.84
-230.10
-232.52
-216.45
-181.41
-134.22
-84.47
-39.10
-0.79
30.43
55.56
75.57
89.74
97.62
99.72
97.80
94.00
89.89
86.12
82.87
80.46
77.60
73.29
67.05
59.22
50.62
42.17
34.73
29.13
26.12
25.17
25.46
26.07
26.37
26.05
24.95
22.90
19.61
16.17
12.56
8.65
4.37
0.05
-3.68
-6.02
-6.32
-4.42
-0.73
3.40
6.49
7.35
5.64
1.93
-2.62
-6.67
-9.18
-9.59
-8.07
-5.12
-1.45
2.23
5.36
7.64
9.13
10.08
10.90
11.67
12.13
11.61
9.16
3.91
-4.54
-15.75
-28.51
-41.08
-51.86
-59.68
-64.13
-65.36
-63.75
-59.77
-53.83
-46.31
-37.20
-25.81
-10.77
9.27
34.22
61.45
85.80
101.22
103.40
91.88
70.41
45.13
21.83
3.73
-9.04
-18.22
-25.62
-32.05
-37.42
-41.62
-45.30
-49.75
-56.10
-64.43
-73.55
-81.32
-85.68
-85.56
-81.24
-74.24
-66.61
-60.18
-55.85
-53.39
-51.72
-49.42
-45.47
-39.64
-32.52
-25.20
-18.88
-14.37
-11.89
-11.15
-11.53
-12.25
-12.61
-12.04
-10.22
-7.10
-2.88
2.04
7.18
12.17
16.82
21.13
25.21
29.21
33.18
37.08
40.79
44.17
47.11
49.53
51.42
52.85
53.95
54.90
55.91
57.15
58.69
60.44
62.24
63.89
65.29
66.42
67.33
68.03
68.50
68.64
68.36
67.59
66.36
64.74
62.78
60.53
57.89
54.69
50.66
45.55
39.20
31.66
23.20
14.32
5.61
-2.34
-9.03
-14.24
-18.06
-20.93
-23.64
-27.11
-32.12
-38.96
-47.28
-56.05
-63.90
-69.51
-71.99
-71.06
-66.99
-60.44
-52.16
-42.95
-33.46
-24.29
-15.93
-8.70
-2.81
1.70
4.92
7.06
8.35
9.12
9.63
10.10
10.68
11.39
12.23
13.18
14.23
15.30
16.26
16.86
16.83
16.03
14.50
12.50
10.40
8.48
6.88
5.53
4.26
2.95
1.56
0.12
-1.25
-2.50
-3.70
-4.97
-6.53
-8.54
-11.12
-14.16
-17.38
-20.30
-22.39
-23.23
-22.60
-20.59
-17.53
-13.84
-9.92
-6.03
-2.34
1.04
3.98
6.40
8.22
9.43
10.07
10.20
9.88
9.15
7.97
6.37
4.50
2.61
0.92
-0.49
-1.66
-2.74
-3.85
-5.25
-7.07
-9.26
-11.60
-13.78
-15.60
-16.98
-18.04
-18.96
-20.23
-22.21
-24.84
-27.76
-30.52
-32.83
-34.63
-35.99
-36.98
-38.55
-41.39
-45.54
-50.44
-55.38
-59.88
-63.65
-66.30
-67.19
-67.68
-68.84
-70.73
-72.50
-73.24
-72.74
-71.47
-70.13
-68.94
-71.00
-78.24
-90.04
-103.41
-114.72
-121.60
-123.34
-120.76
-115.14
-112.76
-118.78
-134.92
-159.09
-187.48
-216.93
-245.72
-273.38
-276.28
-242.33
-175.46
-93.90
-16.82
45.38
90.80
121.99
139.02
148.53
150.91
145.62
133.74
118.41
103.20
90.24
82.41
81.17
88.03
99.99
114.08
129.01
145.27
163.91
183.98
201.91
214.52
221.56
222.23
216.60
205.33
189.49
170.28
151.75
134.56
119.93
109.67
103.60
100.72
99.79
99.47
98.49
94.53
86.77
76.20
64.71
53.38
42.60
32.32
21.77
9.70
-4.78
-21.86
-40.87
-61.23
-83.05
-106.84
-128.33
-142.59
-146.85
-141.98
-131.63
-119.60
-108.59
-99.83
-92.99
-89.82
-88.50
-87.68
-86.61
-84.79
-81.72
-77.12
-70.96
-63.56
-53.19
-40.14
-25.96
-12.30
-0.23
9.94
18.31
25.22
30.99
35.86
39.62
41.73
41.85
40.19
37.31
33.99
30.85
28.39
26.90
26.22
25.88
25.46
24.70
23.58
22.19
20.61
18.95
17.22
15.31
13.12
10.60
7.87
5.07
2.30
-0.47
-3.33
-6.46
-10.02
-14.09
-18.57
-23.13
-27.24
-30.27
-31.63
-30.98
-28.37
-24.24
-19.27
-14.16
-9.43
-5.36
-1.94
0.94
3.43
5.56
7.25
8.35
8.73
8.35
7.33
5.90
4.34
2.91
1.73
0.80
0.04
-0.68
-1.45
-2.35
-3.47
-4.90
-6.71
-8.90
-11.39
-13.96
-16.41
-18.56
-20.37
-21.94
-23.52
-25.31
-27.39
-29.62
-31.59
-32.74
-32.46
-30.41
-26.54
-21.18
-14.93
-8.36
-1.95
4.10
9.71
14.89
19.59
23.73
27.18
29.86
31.79
33.14
34.14
35.04
36.00
37.03
38.03
38.78
39.14
39.06
38.65
38.09
37.50
36.89
36.15
35.09
33.61
31.72
29.57
27.33
25.16
23.11
21.13
19.12
16.96
14.56
11.85
8.89
5.80
2.85
0.41
-1.06
-1.15
0.34
3.34
7.45
12.04
16.44
20.12
22.83
24.56
25.48
25.76
25.52
24.77
23.47
21.63
19.24
16.39
13.19
9.86
6.72
4.09
2.24
1.28
1.11
1.48
2.07
2.61
2.95
3.02
2.79
2.24
1.29
-0.14
-2.10
-4.61
-7.60
-10.94
-14.43
-17.87
-21.06
-23.92
-26.48
-28.94
-31.54
-34.54
-38.09
-42.13
-46.38
-50.29
-53.20
-54.42
-53.46
-50.17
-44.81
-38.03
-30.63
-23.44
-17.00
-11.56
-7.04
-3.21
0.17
3.20
5.91
8.21
10.05
11.46
12.50
13.28
13.86
14.26
14.42
14.31
13.93
13.38
12.78
12.23
11.71
11.06
10.03
8.44
6.23
3.59
0.86
-1.66
-3.78
-5.56
-7.20
-8.99
-11.12
-13.65
-16.56
-19.76
-23.14
-26.52
-29.58
-31.84
-32.75
-31.89
-29.16
-24.81
-19.33
-13.31
-7.20
-1.23
4.51
9.93
14.85
19.02
22.17
24.19
25.16
25.36
25.16
24.90
24.77
24.86
25.10
25.36
25.49
25.37
24.99
24.33
23.44
22.33
21.03
19.53
17.84
15.96
13.90
11.73
9.58
7.60
5.94
4.66
3.68
2.80
1.80
0.49
-1.17
-3.11
-5.15
-7.17
-9.13
-11.11
-13.29
-15.87
-19.00
-22.71
-26.85
-30.98
-34.44
-36.45
-36.33
-33.74
-28.87
-22.38
-15.14
-8.04
-1.61
3.92
8.62
12.61
15.98
18.74
20.91
22.56
23.88
25.05
26.21
27.38
28.47
29.38
30.03
30.42
30.57
30.47
30.09
29.33
28.12
26.42
24.23
21.64
18.73
15.65
12.55
9.62
7.08
5.06
3.65
2.81
2.43
2.45
2.82
3.47
4.23
4.76
4.68
3.67
1.64
-1.19
-4.43
-7.76
-11.03
-14.31
-17.68
-21.05
-23.97
-25.78
-25.78
-23.58
-19.28
-13.40
-6.78
-0.21
5.73
10.76
14.91
18.30
21.07
23.25
24.81
25.73
26.07
26.01
25.77
25.52
25.34
25.21
25.05
24.79
24.36
23.75
22.88
21.70
20.13
18.15
15.86
13.41
10.99
8.74
6.68
4.78
2.93
1.09
-0.78
-2.67
-4.55
-6.38
-8.09
-9.59
-10.78
-11.56
-11.90
-11.89
-11.71
-11.65
-11.94
-12.69
-13.86
-15.16
-16.22
-16.63
-16.17
-14.81
-12.77
-10.35
-7.83
-5.37
-2.97
-0.57
1.88
4.37
6.85
9.25
11.53
13.66
15.57
17.16
18.27
18.81
18.73
18.10
17.06
15.79
14.42
13.00
11.50
9.73
7.48
4.53
0.80
-3.63
-8.54
-13.63
-18.63
-23.40
-27.89
-32.11
-36.11
-39.89
-43.48
-46.82
-49.86
-52.42
-54.16
-54.71
-53.68
-50.89
-46.38
-40.47
-33.59
-26.20
-18.68
-11.37
-4.57
1.39
6.22
9.69
11.78
12.67
12.75
12.47
12.29
12.48
13.20
14.40
15.96
17.74
19.67
21.73
23.95
26.31
28.68
30.79
32.31
32.92
32.43
30.77
28.01
24.27
19.63
14.12
7.72
0.46
-7.53
-15.91
-24.22
-31.90
-38.42
-43.50
-47.05
-49.34
-50.85
-52.15
-53.66
-55.42
-56.93
-57.33
-55.62
-51.11
-43.71
-34.03
-23.08
-11.91
-1.32
8.33
17.00
24.81
31.79
37.87
42.93
46.83
49.58
51.29
52.16
52.37
52.02
51.16
49.76
47.81
45.37
42.65
39.89
37.34
35.14
33.29
31.66
30.03
28.21
26.08
23.67
21.13
18.70
16.57
14.81
13.29
11.77
10.00
7.91
5.64
3.49
1.79
0.74
0.25
0.08
-0.12
-0.62
-1.57
-3.03
-4.98
-7.37
-10.03
-12.63
-14.64
-15.44
-14.55
-11.77
-7.34
-1.85
3.97
9.45
14.13
17.82
20.50
22.18
22.89
22.63
21.48
19.62
17.42
15.28
13.56
12.43
11.75
11.21
10.39
8.97
6.88
4.29
1.58
-0.86
-2.79
-4.30
-5.85
-8.04
-11.33
-15.73
-20.58
-24.70
-26.85
-26.26
-22.95
-17.82
-12.21
-7.36
-3.96
-2.01
-1.05
-0.47
0.16
1.01
2.03
3.10
4.07
4.55
4.02
1.90
-1.84
-6.27
-9.33
-8.48
-1.86
10.65
26.96
43.32
55.72
61.35
59.45
51.12
38.47
23.55
7.79
-7.94
-22.92
-36.22
-46.80
-53.89
-57.43
-58.22
-57.54
-56.55
-55.72
-54.61
-52.20
-47.48
-40.14
-30.79
-20.81
-11.67
-4.22
1.80
7.80
15.98
28.48
46.52
69.78
96.20
122.46
144.87
160.39
167.31
165.65
156.95
143.83
129.11
115.07
102.68
91.45
79.75
65.62
47.86
26.72
4.02
-17.57
-35.62
-48.87
-57.53
-62.85
-66.23
-68.52
-69.87
-69.98
-68.63
-66.11
-63.18
-60.87
-60.04
-61.11
-64.04
-68.51
-74.17
-80.81
-88.31
-96.50
-105.03
-113.22
-120.24
-125.29
-127.94
-128.19
-126.53
-123.67
-120.27
-116.73
-113.17
-109.51
-105.63
-101.40
-96.64
-91.12
-84.50
-76.50
-67.03
-56.20
-44.36
-31.89
-19.12
-6.31
6.28
18.29
29.27
38.71
46.25
51.74
55.29
57.14
57.59
56.86
55.11
52.48
49.12
45.29
41.28
37.44
34.04
31.26
29.17
27.68
26.64
25.80
24.94
23.90
22.59
21.05
19.39
17.74
16.16
14.67
13.21
11.70
10.12
8.45
6.73
4.96
3.12
1.23
-0.69
-2.63
-4.58
-6.63
-8.84
-11.20
-13.56
-15.52
-16.62
-16.47
-14.93
-12.16
-8.55
-4.60
-0.72
2.81
5.88
8.46
10.61
12.38
13.80
14.86
15.55
15.88
15.85
15.55
15.07
14.51
13.94
13.39
12.87
12.34
11.79
11.23
10.69
10.20
9.71
9.12
8.31
7.17
5.70
4.01
2.22
0.49
-1.11
-2.61
-4.06
-5.58
-7.24
-9.14
-11.34
-13.91
-16.82
-19.88
-22.79
-25.06
-26.28
-26.12
-24.48
-21.51
-17.57
-13.14
-8.68
-4.58
-0.97
2.16
4.93
7.47
9.78
11.76
13.28
14.29
14.82
15.03
15.08
15.06
15.02
14.96
14.91
14.93
15.08
15.40
15.79
16.12
16.22
15.97
15.31
14.30
13.06
11.72
10.38
9.10
7.87
6.65
5.38
4.02
2.58
1.07
-0.47
-1.97
-3.42
-4.80
-6.16
-7.57
-9.14
-10.95
-13.05
-15.38
-17.78
-19.94
-21.45
-21.88
-20.92
-18.47
-14.73
-10.12
-5.21
-0.46
3.83
7.59
10.87
13.74
16.23
18.31
19.93
21.10
21.89
22.38
22.68
22.85
22.93
22.92
22.86
22.75
22.58
22.29
21.76
20.87
19.53
17.71
15.49
12.99
10.34
7.65
5.03
2.60
0.47
-1.20
-2.31
-2.87
-2.99
-2.84
-2.62
-2.40
-2.21
-2.02
-1.84
-1.74
-1.86
-2.30
-3.13
-4.39
-6.09
-8.25
-10.83
-13.71
-16.58
-19.02
-20.56
-20.80
-19.61
-17.13
-13.78
-10.05
-6.42
-3.20
-0.56
1.47
2.93
3.90
4.47
4.75
4.85
4.89
4.94
5.06
5.27
5.61
6.06
6.60
7.11
7.50
7.67
7.59
7.32
6.95
6.56
6.17
5.75
5.22
4.55
3.75
2.86
1.89
0.80
-0.45
-1.92
-3.58
-5.36
-7.14
-8.89
-10.59
-12.30
-14.03
-15.79
-17.46
-18.85
-19.76
-19.99
-19.41
-18.04
-15.97
-13.40
-10.52
-7.51
-4.49
-1.52
1.35
4.02
6.38
8.33
9.79
10.76
11.28
11.42
11.24
10.80
10.19
9.54
8.98
8.61
8.51
8.62
8.87
9.14
9.33
9.37
9.20
8.78
8.08
7.14
5.98
4.70
3.40
2.18
1.06
0.03
-1.00
-2.14
-3.44
-4.90
-6.39
-7.83
-9.15
-10.35
-11.55
-12.84
-14.30
-15.93
-17.61
-19.17
-20.39
-21.02
-20.79
-19.50
-17.12
-13.80
-9.90
-5.87
-2.11
1.10
3.65
5.55
6.92
7.90
8.66
9.39
10.20
11.10
11.92
12.39
12.26
11.41
9.95
8.20
6.50
5.11
4.10
3.36
2.70
1.94
1.04
0.04
-0.94
-1.83
-2.56
-3.21
-3.82
-4.43
-5.00
-5.47
-5.81
-6.04
-6.29
-6.74
-7.56
-8.82
-10.51
-12.52
-14.68
-16.87
-18.92
-20.72
-22.08
-22.88
-23.05
-22.77
-22.36
-22.19
-22.42
-22.77
-22.55
-20.85
-16.91
-10.50
-1.99
7.71
17.52
26.48
33.92
39.54
43.23
45.14
45.57
45.07
44.38
44.27
45.31
47.70
51.19
55.20
59.11
62.39
64.83
66.40
67.14
67.08
66.12
64.10
60.87
56.31
50.42
43.29
35.22
26.73
18.52
11.23
5.24
0.51
-3.43
-7.23
-11.46
-16.37
-21.89
-27.66
-33.26
-38.36
-42.69
-46.17
-48.77
-50.55
-51.57
-51.83
-51.30
-49.94
-47.73
-44.73
-41.08
-36.94
-32.44
-27.69
-22.77
-17.86
-13.18
-8.98
-5.48
-2.82
-1.00
0.11
0.75
1.23
1.84
2.74
3.92
5.21
6.32
7.02
7.17
6.87
6.22
5.36
4.27
2.82
0.83
-1.81
-5.05
-8.73
-12.60
-16.45
-20.14
-23.68
-27.10
-30.46
-33.77
-37.00
-40.06
-42.88
-45.33
-47.36
-48.86
-49.76
-49.97
-49.46
-48.18
-46.09
-43.21
-39.59
-35.32
-30.58
-25.58
-20.52
-15.60
-10.92
-6.50
-2.27
1.88
6.04
10.23
14.41
18.49
22.34
25.90
29.07
31.82
34.18
36.29
38.43
40.92
44.02
47.76
51.84
55.72
58.83
60.77
61.47
61.16
60.18
58.78
56.95
54.54
51.31
47.16
42.20
36.75
31.26
26.18
21.82
18.30
15.55
13.37
11.40
9.29
6.69
3.38
-0.64
-5.16
-9.77
-13.93
-17.18
-19.20
-19.92
-19.51
-18.30
-16.70
-15.03
-13.48
-12.14
-10.98
-9.99
-9.21
-8.69
-8.43
-8.37
-8.33
-8.15
-7.73
-7.11
-6.44
-5.84
-5.37
-4.95
-4.42
-3.65
-2.68
-1.65
-0.78
-0.25
-0.12
-0.29
-0.61
-0.98
-1.38
-1.82
-2.39
-3.10
-3.96
-4.92
-5.96
-7.05
-8.19
-9.38
-10.56
-11.70
-12.74
-13.67
-14.52
-15.37
-16.31
-17.40
-18.68
-20.09
-21.51
-22.70
-23.37
-23.31
-22.41
-20.72
-18.46
-15.87
-13.14
-10.37
-7.58
-4.78
-2.06
0.46
2.60
4.27
5.42
6.15
6.56
6.78
6.91
7.02
7.19
7.47
7.91
8.49
9.13
9.69
10.08
10.21
10.08
9.73
9.21
8.55
7.78
6.87
5.81
4.61
3.25
1.77
0.21
-1.33
-2.75
-3.93
-4.83
-5.50
-6.09
-6.81
-7.78
-9.07
-10.57
-12.13
-13.51
-14.50
-14.91
-14.64
-13.69
-12.12
-10.09
-7.81
-5.44
-3.09
-0.79
1.46
3.63
5.65
7.45
8.97
10.20
11.18
11.97
12.60
13.07
13.41
13.63
13.77
13.89
14.00
14.09
14.11
13.98
13.66
13.15
12.46
11.59
10.56
9.41
8.19
6.98
5.83
4.79
3.87
3.02
2.18
1.28
0.29
-0.77
-1.83
-2.86
-3.82
-4.77
-5.81
-6.99
-8.30
-9.73
-11.27
-12.93
-14.75
-16.70
-18.60
-20.19
-21.15
-21.27
-20.51
-19.00
-16.93
-14.52
-11.90
-9.14
-6.31
-3.48
-0.74
1.85
4.25
6.43
8.36
9.96
11.13
11.84
12.14
12.11
11.88
11.59
11.33
11.14
11.05
11.05
11.09
11.09
10.97
10.65
10.09
9.33
8.47
7.58
6.71
5.85
4.96
3.97
2.88
1.74
0.63
-0.36
-1.26
-2.15
-3.16
-4.39
-5.83
-7.39
-8.89
-10.22
-11.37
-12.49
-13.76
-15.34
-17.29
-19.51
-21.77
-23.81
-25.32
-26.07
-25.91
-24.81
-22.88
-20.33
-17.36
-14.21
-11.02
-7.90
-4.91
-2.10
0.49
2.80
4.84
6.65
8.30
9.86
11.36
12.77
14.03
15.05
15.82
16.40
16.90
17.38
17.89
18.34
18.58
18.43
17.77
16.57
14.91
12.94
10.84
8.77
6.83
5.06
3.43
1.88
0.31
-1.39
-3.25
-5.31
-7.56
-9.94
-12.39
-14.86
-17.25
-19.46
-21.42
-23.07
-24.44
-25.59
-26.66
-27.69
-28.65
-29.37
-29.62
-29.20
-28.04
-26.22
-23.96
-21.51
-18.99
-16.42
-13.68
-10.65
-7.31
-3.78
-0.29
2.91
5.64
7.91
9.84
11.70
13.76
16.29
19.45
23.22
27.34
31.34
34.59
36.47
36.56
34.83
31.64
27.66
23.61
20.07
17.35
15.43
14.08
13.01
11.94
10.68
9.10
7.12
4.71
1.91
-1.19
-4.39
-7.52
-10.46
-13.19
-15.80
-18.36
-20.86
-23.08
-24.68
-25.29
-24.68
-22.85
-20.07
-16.75
-13.29
-9.99
-6.97
-4.20
-1.57
0.97
3.43
5.69
7.66
9.29
10.67
12.04
13.71
15.92
18.62
21.40
23.58
24.52
23.96
22.25
20.34
19.43
20.47
23.60
27.99
32.15
34.60
34.55
32.35
29.41
27.57
28.23
31.55
36.35
40.47
41.86
39.33
33.20
25.34
18.48
15.54
18.83
29.34
46.10
66.30
84.84
95.45
92.67
74.35
43.73
9.31
-17.88
-28.98
-20.66
2.91
32.40
57.66
71.56
71.95
60.81
41.92
18.47
-7.13
-33.03
-56.32
-72.99
-79.50
-74.94
-62.01
-44.13
-30.13
-24.85
-30.20
-44.45
-63.20
-81.53
-95.91
-104.96
-109.14
-110.31
-110.97
-113.55
-119.21
-127.46
-136.77
-145.32
-151.42
-153.77
-145.16
-121.33
-83.79
-39.63
2.85
38.21
64.72
83.23
95.70
104.08
109.08
111.27
110.68
107.94
104.05
99.96
96.48
94.17
93.19
92.55
90.92
87.27
81.77
75.28
68.72
62.88
58.19
54.68
51.61
48.12
43.79
38.92
34.20
30.30
27.67
26.47
26.58
27.49
28.56
29.36
29.85
30.36
31.50
33.95
38.31
44.73
52.69
61.08
68.51
73.77
76.04
75.02
70.88
64.24
56.04
47.55
40.14
35.07
33.02
33.68
35.67
36.85
35.05
28.87
18.32
4.73
-9.87
-23.64
-35.65
-46.12
-56.26
-67.73
-82.40
-102.07
-128.10
-160.66
-197.61
-233.91
-262.14
-274.64
-266.31
-236.82
-191.07
-137.54
-85.40
-41.87
-11.09
5.59
8.72
0.32
-16.02
-35.10
-50.79
-57.90
-54.27
-41.68
-25.12
-10.30
-1.13
1.63
-0.15
-3.67
-7.10
-10.27
-14.13
-19.51
-26.11
-32.63
-37.41
-39.46
-38.90
-36.78
-34.41
-32.73
-31.98
-31.87
-32.03
-32.28
-32.70
-33.40
-34.37
-35.26
-35.52
-34.60
-32.24
-28.63
-24.29
-19.95
-16.21
-13.35
-11.22
-9.29
-6.96
-3.71
0.55
5.49
10.43
14.64
17.54
18.95
19.14
18.66
18.18
18.31
19.39
21.37
23.72
25.48
25.47
22.78
17.14
9.19
0.32
-7.78
-13.71
-16.82
-17.28
-15.87
-13.52
-11.04
-8.88
-7.28
-6.34
-6.06
-6.42
-7.22
-8.16
-8.90
-9.19
-9.03
-8.69
-8.66
-9.41
-11.21
-13.89
-16.89
-19.46
-20.88
-20.75
-19.14
-16.39
-13.03
-9.47
-5.95
-2.58
0.63
3.57
6.11
8.13
9.63
10.73
11.63
12.54
13.51
14.55
15.54
16.45
17.25
18.00
18.76
19.54
20.27
20.78
20.89
20.49
19.57
18.30
16.92
15.69
14.70
13.95
13.25
12.37
11.10
9.35
7.07
4.35
1.31
-1.85
-4.94
-7.74
-10.10
-11.89
-13.08
-13.63
-13.56
-12.93
-11.91
-10.70
-9.50
-8.38
-7.28
-6.05
-4.55
-2.79
-0.99
0.56
1.60
2.03
1.97
1.70
1.56
1.76
2.41
3.43
4.65
5.89
6.98
7.79
8.26
8.33
7.98
7.18
6.03
4.70
3.44
2.48
1.84
1.37
0.75
-0.29
-1.80
-3.55
-5.12
-6.04
-5.99
-4.90
-2.87
-0.16
2.97
6.23
9.43
12.38
14.97
17.12
18.76
19.79
20.15
19.86
19.09
18.11
17.23
16.62
16.29
16.07
15.74
15.16
14.34
13.42
12.58
11.96
11.57
11.31
10.98
10.36
9.30
7.76
5.81
3.56
1.11
-1.51
-4.34
-7.42
-10.71
-14.06
-17.21
-19.87
-21.74
-22.63
-22.46
-21.26
-19.19
-16.45
-13.28
-9.90
-6.47
-3.12
0.08
3.03
5.69
8.03
10.11
11.97
13.66
15.15
16.35
17.18
17.63
17.75
17.65
17.48
17.32
17.20
17.07
16.88
16.55
16.07
15.44
14.70
13.83
12.81
11.61
10.26
8.79
7.30
5.86
4.51
3.21
1.91
0.55
-0.94
-2.57
-4.37
-6.40
-8.67
-11.16
-13.73
-16.11
-17.94
-18.85
-18.56
-17.01
-14.37
-10.99
-7.29
-3.60
-0.11
3.14
6.17
8.98
11.46
13.48
14.96
15.93
16.53
16.98
17.47
18.08
18.77
19.46
20.02
20.38
20.54
20.56
20.50
20.42
20.31
20.11
19.69
18.96
17.89
16.57
15.14
13.77
12.54
11.40
10.24
8.89
7.30
5.51
3.67
1.91
0.32
-1.11
-2.49
-3.94
-5.60
-7.57
-9.87
-12.40
-14.93
-17.11
-18.55
-18.93
-18.17
-16.45
-14.15
-11.70
-9.43
-7.42
-5.59
-3.80
-1.96
-0.13
1.55
2.95
4.11
5.14
6.26
7.60
9.15
10.76
12.22
13.40
14.32
15.11
15.95
16.90
17.89
18.76
19.37
19.68
19.78
19.82
