1513729033.00
64.000000
-0.00
-0.00
-0.00
-0.00
-0.00
-0.00
-0.00
-0.00
-0.00
-0.00
0.00
0.01
0.01
-0.00
-0.03
-0.05
-0.05
0.00
0.13
0.36
0.66
1.01
1.37
1.72
2.06
2.40
2.79
3.24
3.80
4.42
5.06
5.66
6.20
6.68
7.15
7.68
8.31
9.14
10.09
11.04
11.88
12.56
13.14
13.76
14.65
15.96
17.91
20.32
22.90
25.38
27.58
29.57
31.68
34.32
37.81
42.54
48.15
54.10
59.83
64.97
69.58
74.14
79.34
85.71
93.76
103.00
112.62
121.73
129.77
136.75
143.30
150.75
157.77
166.64
177.95
191.79
206.97
220.57
228.25
225.36
208.53
176.87
132.76
80.05
23.07
-34.94
-92.44
-149.16
-205.23
-260.37
-313.74
-363.87
-409.83
-450.91
-486.50
-515.74
-537.23
-549.22
-549.96
-538.37
-514.21
-478.68
-433.88
-382.44
-327.00
-269.80
-212.60
-156.67
-103.03
-52.55
-6.17
35.24
71.05
100.97
125.14
144.02
158.30
168.68
175.79
180.06
181.81
181.31
178.80
174.59
169.03
162.49
155.27
147.68
139.91
132.14
124.44
116.86
109.34
101.82
94.24
86.62
79.07
71.80
65.03
58.90
53.39
48.28
43.26
38.07
32.61
27.06
21.81
17.27
13.70
11.03
8.86
6.61
3.79
0.25
-3.72
-7.49
-10.42
-12.14
-12.74
-12.73
-12.81
-13.58
-15.42
-18.42
-22.42
-26.87
-30.62
-32.09
-29.55
-22.08
-10.19
4.10
17.82
28.32
34.31
36.33
36.17
35.81
36.31
37.37
37.84
36.51
33.02
27.93
22.46
17.71
14.26
11.97
10.28
8.67
6.97
5.45
4.51
4.40
5.02
5.99
6.83
7.20
7.02
6.34
5.43
4.48
3.66
3.03
2.51
2.00
1.34
0.51
-0.40
-1.08
-1.17
-0.38
1.35
3.69
6.04
7.68
8.14
7.41
6.03
4.74
4.17
4.50
5.35
6.13
6.36
6.05
5.66
5.79
6.75
8.39
10.22
11.73
12.64
12.90
12.59
11.63
9.85
7.34
4.49
2.11
0.98
1.31
2.32
2.57
0.68
-3.74
-9.72
-15.25
-18.27
-17.76
-14.30
-9.76
-6.34
-5.66
-8.07
-12.69
-17.93
-22.08
-23.92
-22.95
-19.52
-14.59
-9.42
-5.16
-2.49
-1.56
-1.96
-3.10
-4.51
-5.99
-7.59
-9.32
-10.99
-12.06
-11.99
-10.51
-7.96
-5.16
-3.20
-2.83
-4.15
-6.56
-8.94
-10.32
-10.11
-8.34
-5.37
-1.74
2.17
5.99
9.28
11.48
11.93
10.30
6.81
2.34
-1.88
-4.71
-5.51
-4.41
-2.02
0.73
3.00
4.31
4.53
3.67
1.66
-1.57
-5.91
-10.80
-15.21
-17.95
-18.11
-15.61
-11.25
-6.37
-2.26
0.41
1.77
2.44
3.13
4.05
4.89
4.95
3.61
0.69
-3.43
-7.89
-11.77
-14.40
-15.44
-14.94
-13.08
-10.19
-6.56
-2.63
1.06
3.86
5.13
4.49
1.99
-1.72
-5.58
-8.38
-9.22
-7.74
-4.19
0.67
6.01
11.18
15.87
19.96
23.38
25.88
27.12
26.81
24.97
22.11
19.06
16.70
15.48
15.25
15.33
14.92
13.61
11.64
9.76
8.70
8.67
9.13
9.11
7.77
4.85
0.90
-3.18
-6.64
-9.25
-11.35
-13.54
-16.29
-19.63
-23.15
-26.21
-28.23
-28.93
-28.52
-27.67
-27.30
-28.34
-31.45
-36.76
-43.81
-51.65
-58.93
-64.24
-66.31
-64.32
-58.28
-49.19
-38.99
-30.02
-24.34
-22.85
-24.79
-27.87
-28.95
-25.19
-15.18
0.44
19.07
37.00
50.70
58.07
59.15
55.97
51.49
48.18
47.03
47.28
47.23
45.25
40.69
33.89
25.80
17.26
8.78
0.69
-6.37
-11.29
-12.82
-10.25
-3.93
4.65
13.48
20.89
26.07
29.18
31.01
32.33
33.62
34.85
35.65
35.43
33.65
30.03
24.69
18.25
11.73
6.26
2.72
1.47
2.22
4.17
6.38
8.03
8.68
8.28
7.05
5.28
3.29
1.28
-0.59
-2.23
-3.66
-4.96
-6.24
-7.63
-9.22
-11.07
-13.18
-15.55
-18.11
-20.75
-23.20
-25.07
-25.95
-25.50
-23.61
-20.44
-16.37
-11.90
-7.51
-3.55
-0.22
2.43
4.40
5.74
6.55
6.90
6.92
6.70
6.37
6.01
5.67
5.40
5.21
5.09
5.02
5.02
5.07
5.17
5.29
5.35
5.27
4.94
4.26
3.20
1.81
0.18
-1.55
-3.23
-4.78
-6.21
-7.65
-9.32
-11.45
-14.15
-17.29
-20.49
-23.15
-24.68
-24.58
-22.73
-19.29
-14.70
-9.54
-4.34
0.45
4.54
7.75
10.06
11.51
12.24
12.41
12.11
11.44
10.45
9.26
8.04
7.02
6.36
6.11
6.19
6.43
6.68
6.81
6.84
6.74
6.48
5.92
4.97
3.60
1.93
0.16
-1.51
-2.99
-4.38
-5.89
-7.78
-10.18
-13.01
-15.96
-18.51
-20.07
-20.16
-18.50
-15.19
-10.63
-5.44
-0.28
4.28
7.95
10.66
12.53
13.73
14.38
14.53
14.19
13.42
12.37
11.30
10.44
9.93
9.73
9.72
9.75
9.76
9.78
9.88
10.04
10.10
9.84
9.06
7.75
6.11
4.40
2.82
1.37
-0.07
-1.71
-3.66
-5.92
-8.38
-10.91
-13.40
-15.75
-17.79
-19.20
-19.61
-18.68
-16.24
-12.48
-7.86
-3.02
1.46
5.18
8.03
10.04
11.33
11.95
11.89
11.16
9.86
8.26
6.67
5.40
4.56
4.06
3.66
3.11
2.29
1.29
0.27
-0.58
-1.24
-1.87
-2.79
-4.32
-6.62
-9.63
-13.07
-16.61
-19.95
-22.93
-25.50
-27.71
-29.61
-31.23
-32.59
-33.69
-34.38
-34.44
-33.47
-31.09
-26.98
-21.05
-13.49
-4.73
4.61
13.87
22.40
29.64
35.21
38.95
40.90
41.34
40.63
39.14
37.19
34.98
32.66
30.36
28.24
26.44
25.07
24.05
23.28
22.59
21.89
21.18
20.52
19.88
19.14
18.10
16.56
14.50
12.04
9.49
7.11
5.05
3.33
1.81
0.34
-1.24
-3.04
-5.20
-7.77
-10.67
-13.62
-16.19
-17.85
-18.15
-16.92
-14.26
-10.52
-6.20
-1.77
2.33
5.77
8.31
9.85
10.40
10.15
9.35
8.27
7.15
6.14
5.34
4.85
4.72
4.96
5.47
6.04
6.44
6.52
6.28
5.87
5.46
5.18
5.03
4.84
4.43
3.65
2.46
0.94
-0.76
-2.45
-4.01
-5.39
-6.61
-7.80
-9.12
-10.75
-12.80
-15.24
-17.84
-20.23
-21.98
-22.69
-22.13
-20.27
-17.29
-13.52
-9.35
-5.17
-1.36
1.84
4.28
5.97
7.06
7.69
7.96
7.86
7.34
6.43
5.32
4.27
3.54
3.28
3.40
3.75
4.11
4.40
4.61
4.79
4.96
5.09
5.07
4.82
4.29
3.49
2.46
1.25
-0.07
-1.44
-2.80
-4.13
-5.47
-6.87
-8.47
-10.38
-12.65
-15.19
-17.78
-20.04
-21.56
-21.99
-21.12
-18.98
-15.78
-11.85
-7.63
-3.51
0.14
3.09
5.23
6.60
7.30
7.44
7.14
6.46
5.53
4.52
3.64
3.08
2.92
3.10
3.49
3.89
4.24
4.55
4.88
5.21
5.46
5.44
4.97
3.98
2.54
0.84
-0.89
-2.48
-3.83
-4.96
-5.99
-7.06
-8.36
-10.03
-12.11
-14.50
-16.90
-18.91
-20.05
-19.95
-18.46
-15.68
-11.94
-7.69
-3.45
0.37
3.49
5.77
7.21
7.91
8.02
7.69
7.07
6.31
5.55
4.89
4.42
4.19
4.21
4.44
4.82
5.27
5.71
5.98
5.97
5.54
4.66
3.39
1.88
0.30
-1.20
-2.53
-3.69
-4.75
-5.81
-6.98
-8.38
-10.09
-12.10
-14.25
-16.20
-17.55
-17.87
-16.93
-14.71
-11.43
-7.49
-3.34
0.61
4.05
6.77
8.68
9.77
10.10
9.81
9.13
8.29
7.57
7.13
7.05
7.26
7.57
7.79
7.78
7.54
7.18
6.85
6.65
6.52
6.29
5.75
4.74
3.26
1.44
-0.54
-2.53
-4.49
-6.47
-8.60
-11.02
-13.80
-16.91
-20.23
-23.52
-26.44
-28.65
-29.83
-29.79
-28.50
-26.17
-23.18
-20.03
-17.19
-15.09
-13.93
-13.73
-14.31
-15.29
-16.24
-16.72
-16.39
-15.04
-12.59
-9.07
-4.60
0.63
6.35
12.25
18.00
23.34
28.03
31.95
34.99
37.08
38.12
38.04
36.83
34.60
31.64
28.34
25.09
22.13
19.50
17.03
14.46
11.59
8.40
5.12
2.10
-0.29
-1.74
-2.12
-1.44
0.18
2.53
5.30
8.15
10.72
12.73
14.04
14.62
14.53
13.81
12.56
10.86
8.93
7.03
5.50
4.56
4.27
4.50
4.96
5.37
5.54
5.44
5.12
4.68
4.18
3.57
2.76
1.66
0.25
-1.36
-2.95
-4.31
-5.33
-6.09
-6.89
-8.07
-9.90
-12.39
-15.25
-17.92
-19.80
-20.40
-19.49
-17.14
-13.65
-9.50
-5.16
-1.09
2.36
5.01
6.84
7.99
8.63
8.96
9.03
8.82
8.32
7.56
6.70
5.96
5.53
5.48
5.72
6.07
6.33
6.39
6.25
5.98
5.64
5.21
4.63
3.79
2.58
1.03
-0.71
-2.44
-3.94
-5.12
-6.07
-7.04
-8.31
-10.08
-12.36
-14.97
-17.58
-19.80
-21.24
-21.55
-20.53
-18.16
-14.67
-10.50
-6.18
-2.24
1.01
3.54
5.48
7.01
8.23
9.08
9.40
9.14
8.36
7.33
6.39
5.83
5.75
6.07
6.59
7.09
7.48
7.77
7.99
8.14
8.18
8.01
7.61
6.97
6.12
5.08
3.87
2.47
0.93
-0.64
-2.10
-3.36
-4.45
-5.49
-6.72
-8.30
-10.28
-12.56
-14.93
-17.08
-18.71
-19.50
-19.18
-17.61
-14.85
-11.19
-7.11
-3.11
0.40
3.20
5.27
6.71
7.64
8.14
8.26
8.05
7.59
6.98
6.35
5.82
5.48
5.36
5.47
5.73
5.97
6.00
5.67
4.91
3.79
2.45
1.04
-0.32
-1.63
-2.94
-4.32
-5.82
-7.49
-9.34
-11.35
-13.54
-15.87
-18.30
-20.75
-23.22
-25.70
-28.28
-31.00
-33.80
-36.49
-38.70
-39.94
-39.70
-37.58
-33.41
-27.31
-19.68
-11.12
-2.29
6.20
13.93
20.61
26.13
30.41
33.43
35.19
35.79
35.47
34.54
33.30
32.00
30.80
29.70
28.66
27.59
26.44
25.17
23.83
22.46
21.16
19.94
18.77
17.53
16.09
14.39
12.49
10.54
8.72
7.11
5.70
4.35
2.94
1.39
-0.30
-2.09
-3.98
-5.95
-8.00
-10.04
-11.85
-13.17
-13.70
-13.23
-11.69
-9.24
-6.19
-2.96
0.04
2.52
4.36
5.58
6.30
6.67
6.75
6.62
6.29
5.89
5.53
5.34
5.38
5.64
6.05
6.51
6.98
7.40
7.76
7.99
8.02
7.80
7.35
6.76
6.14
5.53
4.90
4.09
3.01
1.63
0.08
-1.47
-2.87
-4.07
-5.12
-6.06
-6.91
-7.65
-8.30
-8.98
-9.90
-11.22
-12.98
-14.93
-16.62
-17.55
-17.35
-15.90
-13.37
-10.12
-6.59
-3.19
-0.22
2.14
3.81
4.84
5.35
5.50
5.44
5.29
5.15
5.08
5.14
5.36
5.70
6.12
6.51
6.78
6.89
6.86
6.75
6.64
6.55
6.44
6.25
5.96
5.56
5.07
4.47
3.72
2.79
1.67
0.44
-0.75
-1.77
-2.56
-3.15
-3.70
-4.38
-5.30
-6.51
-7.98
-9.64
-11.34
-12.83
-13.75
-13.74
-12.57
-10.23
-6.95
-3.17
0.55
3.72
5.96
7.08
7.09
6.23
4.89
3.46
2.30
1.53
1.07
0.78
0.53
0.30
0.21
0.37
0.84
1.56
2.40
3.17
3.73
3.99
3.89
3.45
2.71
1.78
0.82
-0.06
-0.79
-1.40
-2.00
-2.74
-3.69
-4.85
-6.15
-7.48
-8.74
-9.89
-10.96
-12.05
-13.27
-14.71
-16.39
-18.22
-20.04
-21.68
-22.94
-23.67
-23.74
-23.14
-21.95
-20.35
-18.61
-17.03
-15.85
-15.22
-15.13
-15.45
-16.00
-16.58
-17.00
-17.08
-16.58
-15.30
-13.06
-9.83
-5.75
-1.07
3.91
8.90
13.67
18.08
21.99
25.27
27.77
29.40
30.12
29.94
28.94
27.25
25.05
22.54
19.93
17.43
15.11
12.98
10.96
8.99
7.03
5.09
3.17
1.26
-0.70
-2.72
-4.74
-6.52
-7.71
-7.98
-7.16
-5.35
-2.93
-0.37
1.91
3.66
4.89
5.70
6.26
6.62
6.78
6.65
6.19
5.47
4.66
4.01
3.71
3.82
4.27
4.86
5.40
5.76
5.90
5.84
5.60
5.21
4.68
4.05
3.41
2.89
2.56
2.38
2.15
1.62
0.59
-0.96
-2.82
-4.65
-6.08
-6.89
-7.07
-6.85
-6.61
-6.75
-7.51
-8.90
-10.66
-12.39
-13.61
-13.97
-13.28
-11.60
-9.18
-6.36
-3.51
-0.90
1.30
3.02
4.24
5.02
5.40
5.46
5.32
5.08
4.84
4.65
4.56
4.56
4.64
4.82
5.13
5.62
6.29
7.07
7.86
8.45
8.70
8.49
7.82
6.81
5.61
4.42
3.33
2.39
1.57
0.81
0.09
-0.56
-1.08
-1.45
-1.73
-2.04
-2.59
-3.55
-4.99
-6.81
-8.77
-10.47
-11.53
-11.63
-10.69
-8.84
-6.46
-3.94
-1.65
0.20
1.63
2.73
3.60
4.28
4.74
4.94
4.94
4.87
4.86
5.01
5.26
5.47
5.55
5.47
5.34
5.30
5.45
5.76
6.13
6.40
6.49
6.36
6.05
5.62
5.08
4.45
3.77
3.08
2.40
1.75
1.06
0.27
-0.64
-1.65
-2.67
-3.64
-4.55
-5.47
-6.47
-7.58
-8.71
-9.73
-10.42
-10.60
-10.16
-9.04
-7.31
-5.11
-2.69
-0.31
1.75
3.30
4.26
4.70
4.74
4.57
4.34
4.13
3.96
3.82
3.71
3.66
3.74
3.99
4.40
4.89
5.34
5.63
5.78
5.84
5.88
5.87
5.71
5.23
4.38
3.24
2.03
1.00
0.30
-0.11
-0.39
-0.72
-1.22
-1.87
-2.63
-3.43
-4.30
-5.29
-6.45
-7.75
-9.03
-10.08
-10.68
-10.66
-9.96
-8.61
-6.76
-4.62
-2.48
-0.58
0.92
1.97
2.69
3.18
3.54
3.71
3.60
3.16
2.40
1.48
0.61
-0.05
-0.49
-0.75
-0.98
-1.24
-1.57
-1.95
-2.38
-2.92
-3.63
-4.59
-5.80
-7.25
-8.83
-10.44
-12.02
-13.54
-15.01
-16.45
-17.83
-19.07
-20.00
-20.45
-20.29
-19.45
-17.97
-15.94
-13.50
-10.78
-7.91
-5.02
-2.21
0.49
3.17
5.97
9.00
12.22
15.42
18.25
20.36
21.60
22.00
21.83
21.39
20.86
20.28
19.60
18.76
17.78
16.76
15.81
15.00
14.31
13.68
13.08
12.50
11.99
11.60
11.32
11.06
10.68
10.08
9.21
8.14
7.01
5.96
5.11
4.46
3.95
3.45
2.82
1.99
0.94
-0.28
-1.56
-2.78
-3.82
-4.58
-5.07
-5.34
-5.58
-5.99
-6.71
-7.75
-8.96
-10.03
-10.66
-10.57
-9.68
-8.07
-5.92
-3.51
-1.10
1.06
2.79
3.96
4.55
4.63
4.35
3.93
3.53
3.27
3.14
3.06
2.98
2.89
2.84
2.92
3.16
3.50
3.85
4.10
4.24
4.29
4.31
4.29
4.19
3.92
3.42
2.72
1.89
1.02
0.15
-0.71
-1.54
-2.32
-3.01
-3.55
-3.94
-4.25
-4.55
-4.92
-5.40
-6.01
-6.74
-7.55
-8.38
-9.07
-9.42
-9.23
-8.40
-6.98
-5.19
-3.31
-1.55
-0.05
1.20
2.23
3.01
3.51
3.68
3.52
3.11
2.57
2.06
1.69
1.49
1.51
1.70
2.04
2.49
2.98
3.44
3.82
4.11
4.25
4.21
3.92
3.38
2.62
1.76
0.93
0.22
-0.34
-0.82
-1.29
-1.79
-2.27
-2.66
-2.91
-3.06
-3.24
-3.60
-4.28
-5.27
-6.46
-7.67
-8.73
-9.49
-9.86
-9.78
-9.17
-8.01
-6.33
-4.27
-2.09
-0.07
1.56
2.69
3.33
3.53
3.38
2.92
2.23
1.42
0.66
0.16
0.03
0.29
0.86
1.60
2.41
3.18
3.83
4.33
4.60
4.63
4.42
4.01
3.45
2.76
1.98
1.17
0.39
-0.25
-0.69
-0.92
-1.05
-1.17
-1.37
-1.64
-1.92
-2.13
-2.29
-2.52
-3.03
-3.95
-5.27
-6.77
-8.08
-8.80
-8.74
-7.92
-6.60
-5.11
-3.69
-2.45
-1.31
-0.20
0.91
1.96
2.78
3.26
3.35
3.10
2.67
2.21
1.86
1.69
1.74
2.02
2.52
3.17
3.85
4.41
4.71
4.67
4.32
3.75
3.10
2.49
1.99
1.59
1.26
0.94
0.59
0.16
-0.38
-1.05
-1.84
-2.68
-3.51
-4.25
-4.91
-5.52
-6.17
-6.89
-7.68
-8.45
-9.06
-9.35
-9.16
-8.41
-7.11
-5.39
-3.45
-1.50
0.24
1.66
2.74
3.49
3.97
4.21
4.22
3.99
3.54
2.93
2.27
1.68
1.27
1.12
1.27
1.68
2.30
2.98
3.56
3.86
3.76
3.24
2.43
1.48
0.60
-0.13
-0.68
-1.15
-1.62
-2.16
-2.82
-3.58
-4.42
-5.30
-6.17
-7.00
-7.79
-8.61
-9.52
-10.60
-11.88
-13.34
-14.89
-16.39
-17.68
-18.62
-19.08
-19.01
-18.47
-17.61
-16.64
-15.77
-15.09
-14.60
-14.17
-13.62
-12.75
-11.43
-9.60
-7.29
-4.58
-1.57
1.67
5.12
8.69
12.26
15.59
18.44
20.58
21.91
22.49
22.49
22.08
21.38
20.46
19.32
18.01
16.63
15.27
14.04
12.97
12.00
11.05
10.02
8.89
7.67
6.43
5.25
4.20
3.25
2.37
1.46
0.45
-0.69
-1.92
-3.15
-4.21
-4.92
-5.16
-4.86
-4.06
-2.92
-1.63
-0.41
0.63
1.43
2.03
2.50
2.86
3.14
3.34
3.48
3.61
3.75
3.89
3.95
3.87
3.64
3.27
2.88
2.61
2.56
2.78
3.26
3.92
4.63
5.22
5.52
5.39
4.78
3.79
2.58
1.40
0.39
-0.39
-1.01
-1.56
-2.10
-2.63
-3.10
-3.48
-3.83
-4.27
-4.93
-5.85
-6.93
-7.92
-8.58
-8.75
-8.38
-7.55
-6.38
-4.99
-3.50
-2.00
-0.59
0.63
1.57
2.20
2.51
2.53
2.31
1.91
1.43
0.98
0.71
0.70
1.00
1.53
2.18
2.77
3.21
3.42
3.41
3.25
3.00
2.76
2.54
2.35
2.14
1.86
1.48
0.99
0.41
-0.21
-0.82
-1.37
-1.82
-2.18
-2.49
-2.80
-3.20
-3.73
-4.41
-5.22
-6.07
-6.80
-7.27
-7.35
-7.02
-6.31
-5.35
-4.26
-3.14
-2.08
-1.11
-0.25
0.44
0.97
1.33
1.55
1.69
1.78
1.82
1.82
1.80
1.82
1.93
2.13
2.41
2.67
2.86
2.96
2.98
2.99
3.03
3.12
3.21
3.20
3.02
2.65
2.09
1.43
0.75
0.09
-0.52
-1.12
-1.71
-2.28
-2.80
-3.26
-3.68
-4.12
-4.68
-5.39
-6.20
-6.99
-7.60
-7.87
-7.73
-7.18
-6.30
-5.18
-3.95
-2.71
-1.55
-0.52
0.35
1.03
1.54
1.91
2.17
2.39
2.62
2.87
3.14
3.40
3.58
3.67
3.67
3.62
3.57
3.53
3.51
3.48
3.42
3.33
3.18
2.95
2.57
2.05
1.41
0.72
0.08
-0.43
-0.78
-1.00
-1.12
-1.23
-1.36
-1.55
-1.82
-2.15
-2.55
-3.00
-3.49
-4.04
-4.62
-5.18
-5.62
-5.77
-5.52
-4.85
-3.85
-2.72
-1.63
-0.70
0.04
0.64
1.12
1.53
1.86
2.10
2.27
2.37
2.41
2.42
2.39
2.32
2.22
2.13
2.07
2.07
2.11
2.17
2.21
2.18
2.09
1.94
1.79
1.70
1.69
1.76
1.82
1.77
1.54
1.15
0.66
0.16
-0.31
-0.73
-1.18
-1.68
-2.26
-2.86
-3.45
-3.96
-4.44
-4.92
-5.45
-5.98
-6.37
-6.44
-6.05
-5.19
-3.99
-2.66
-1.40
-0.34
0.48
1.09
1.48
1.65
1.58
1.26
0.81
0.36
0.07
-0.01
0.08
0.22
0.30
0.26
0.12
-0.09
-0.35
-0.69
-1.18
-1.86
-2.70
-3.63
-4.55
-5.36
-6.03
-6.61
-7.16
-7.78
-8.55
-9.50
-10.64
-11.93
-13.32
-14.77
-16.24
-17.67
-18.96
-19.96
-20.51
-20.49
-19.81
-18.47
-16.49
-13.90
-10.75
-7.12
-3.11
1.10
5.32
9.36
13.02
16.13
18.58
20.31
21.36
21.82
21.85
21.52
20.92
20.10
19.08
17.96
16.86
15.89
15.13
14.57
14.12
13.64
12.97
12.01
10.78
9.40
8.12
7.12
6.48
6.11
5.78
5.30
4.58
3.73
2.94
2.34
1.94
1.64
1.29
0.85
0.36
-0.05
-0.30
-0.43
-0.53
-0.76
-1.20
-1.86
-2.70
-3.59
-4.41
-5.04
-5.37
-5.38
-5.08
-4.56
-3.92
-3.26
-2.63
-2.04
-1.51
-0.98
-0.46
0.07
0.58
1.01
1.33
1.50
1.55
1.52
1.47
1.44
1.45
1.49
1.56
1.66
1.78
1.91
2.00
2.05
2.06
2.05
2.02
1.95
1.82
1.59
1.28
0.91
0.52
0.11
-0.33
-0.80
-1.29
-1.72
-2.02
-2.17
-2.20
-2.21
-2.31
-2.53
-2.86
-3.21
-3.48
-3.56
-3.42
-3.07
-2.53
-1.89
-1.22
-0.55
0.05
0.56
0.94
1.18
1.28
1.24
1.13
0.97
0.77
0.53
0.26
0.03
-0.04
0.15
0.62
1.29
1.94
2.36
2.40
2.10
1.61
1.11
0.77
0.57
0.45
0.29
0.04
-0.31
-0.67
-0.99
-1.25
-1.46
-1.68
-1.98
-2.39
-2.90
-3.49
-4.11
-4.72
-5.33
-5.94
-6.56
-7.17
-7.65
-7.85
-7.62
-6.93
-5.83
-4.50
-3.12
-1.87
-0.83
-0.07
0.39
0.54
0.41
0.10
-0.25
-0.45
-0.43
-0.17
0.24
0.69
1.12
1.49
1.81
2.08
2.26
2.31
2.21
2.00
1.77
1.60
1.52
1.51
1.47
1.35
1.10
0.74
0.32
-0.13
-0.61
-1.12
-1.67
-2.21
-2.67
-3.01
-3.25
-3.48
-3.85
-4.41
-5.08
-5.66
-5.87
-5.54
-4.65
-3.40
-2.06
-0.85
0.14
0.95
1.68
2.34
2.87
3.19
3.23
3.07
2.87
2.80
2.93
3.18
3.43
3.54
3.52
3.45
3.44
3.53
3.66
3.71
3.57
3.24
2.84
2.53
2.43
2.54
2.76
2.94
2.94
2.71
2.29
1.77
1.22
0.70
0.23
-0.22
-0.62
-0.99
-1.31
-1.61
-1.92
-2.32
-2.83
-3.44
-4.04
-4.49
-4.64
-4.38
-3.71
-2.75
-1.64
-0.51
0.54
1.48
2.30
2.99
3.51
3.82
3.90
3.79
3.59
3.41
3.36
3.48
3.71
3.94
4.06
3.98
3.73
3.39
3.06
2.83
2.76
2.81
2.91
2.94
2.80
2.47
1.94
1.31
0.67
0.11
-0.36
-0.76
-1.15
-1.55
-1.94
-2.25
-2.42
-2.47
-2.47
-2.57
-2.89
-3.48
-4.29
-5.20
-6.09
-6.86
-7.45
-7.87
-8.10
-8.11
-7.83
-7.16
-6.07
-4.61
-2.92
-1.23
0.24
1.32
1.96
2.24
2.29
2.27
2.29
2.37
2.48
2.54
2.52
2.41
2.27
2.15
2.11
2.16
2.28
2.46
2.74
3.14
3.64
4.16
4.56
4.67
4.45
3.92
3.23
2.49
1.78
1.11
0.44
-0.26
-0.95
-1.55
-1.98
-2.24
-2.35
-2.43
-2.56
-2.79
-3.10
-3.47
-3.86
-4.26
-4.72
-5.28
-5.95
-6.70
-7.45
-8.04
-8.35
-8.26
-7.75
-6.88
-5.76
-4.51
-3.22
-1.96
-0.76
0.38
1.44
2.41
3.22
3.83
4.21
4.37
4.33
4.16
3.92
3.66
3.43
3.26
3.18
3.19
3.30
3.48
3.66
3.78
3.78
3.62
3.29
2.80
2.21
1.62
1.12
0.74
0.45
0.17
-0.22
-0.78
-1.48
-2.23
-2.92
-3.48
-3.96
-4.43
-4.95
-5.49
-5.99
-6.36
-6.58
-6.74
-7.02
-7.57
-8.46
-9.64
-10.94
-12.18
-13.22
-14.00
-14.47
-14.66
-14.53
-14.10
-13.42
-12.62
-11.86
-11.31
-11.09
-11.21
-11.61
-12.13
-12.62
-12.91
-12.89
-12.46
-11.54
-10.08
-8.02
-5.35
-2.12
1.54
5.40
9.13
12.42
15.09
17.10
18.54
19.60
20.39
20.95
21.19
21.03
20.42
19.42
18.14
16.73
15.30
13.92
12.62
11.41
10.28
9.24
8.28
7.41
6.63
5.92
5.23
4.47
3.59
2.57
1.45
0.29
-0.81
-1.82
-2.70
-3.45
-4.05
-4.49
-4.72
-4.71
-4.43
-3.88
-3.04
-1.96
-0.72
0.52
1.60
2.37
2.79
2.89
2.77
2.50
2.15
1.76
1.35
0.97
0.69
0.59
0.71
1.03
1.48
1.99
2.48
2.89
3.18
3.33
3.33
3.22
3.03
2.81
2.58
2.37
2.18
2.03
1.95
1.96
2.04
2.14
2.15
1.97
1.55
0.95
0.25
-0.43
-0.99
-1.39
-1.67
-1.88
-2.11
-2.42
-2.90
-3.55
-4.33
-5.15
-5.85
-6.23
-6.19
-5.69
-4.80
-3.67
-2.49
-1.38
-0.46
0.26
0.75
1.05
1.21
1.30
1.37
1.45
1.54
1.61
1.60
1.50
1.32
1.10
0.89
0.75
0.72
0.83
1.10
1.48
1.90
2.23
2.33
2.13
1.66
1.01
0.36
-0.15
-0.46
-0.60
-0.67
-0.76
-0.92
-1.11
-1.28
-1.38
-1.43
-1.48
-1.59
-1.78
-2.04
-2.34
-2.64
-2.94
-3.28
-3.70
-4.20
-4.70
-5.12
-5.37
-5.39
-5.19
-4.81
-4.28
-3.62
-2.82
-1.87
-0.82
0.21
1.09
1.67
1.90
1.84
1.59
1.31
1.08
0.92
0.80
0.70
0.58
0.46
0.38
0.35
0.38
0.48
0.64
0.88
1.13
1.32
1.33
1.09
0.65
0.12
-0.30
-0.47
-0.35
-0.02
0.35
0.56
0.53
0.26
-0.15
-0.56
-0.87
-1.11
-1.37
-1.74
-2.28
-2.93
-3.61
-4.19
-4.64
-4.95
-5.18
-5.32
-5.35
-5.18
-4.73
-3.99
-3.04
-2.03
-1.09
-0.34
0.20
0.54
0.74
0.88
1.02
1.19
1.36
1.50
1.54
1.49
1.40
1.35
1.41
1.60
1.83
2.01
2.08
2.08
2.12
2.28
2.58
2.93
3.15
3.13
2.86
2.45
2.06
1.82
1.72
1.68
1.56
1.28
0.87
0.38
-0.11
-0.55
-0.92
-1.24
-1.52
-1.79
-2.12
-2.55
-3.17
-3.99
-4.98
-6.01
-6.91
-7.50
-7.64
-7.28
-6.44
-5.24
-3.83
-2.36
-0.96
0.29
1.31
2.07
2.54
2.72
2.60
2.25
1.78
1.28
0.83
0.47
0.21
0.07
0.11
0.36
0.82
1.42
1.98
2.35
2.41
2.19
1.81
1.49
1.37
1.50
1.84
2.24
2.55
2.68
2.59
2.30
1.81
1.18
0.47
-0.24
-0.91
-1.48
-1.95
-2.32
-2.62
-2.88
-3.16
-3.47
-3.87
-4.36
-4.93
-5.51
-5.96
-6.13
-5.88
-5.18
-4.08
-2.75
-1.43
-0.28
0.63
1.33
1.94
2.54
3.14
3.64
3.92
3.89
3.55
3.03
2.47
1.98
1.61
1.34
1.15
1.03
1.04
1.24
1.62
2.12
2.60
2.91
2.98
2.87
2.69
2.56
2.53
2.55
2.46
2.18
1.66
0.99
0.31
-0.29
-0.78
-1.21
-1.61
-2.01
-2.36
-2.62
-2.84
-3.06
-3.39
-3.84
-4.33
-4.66
-4.68
-4.27
-3.48
-2.47
-1.42
-0.49
0.27
0.88
1.40
1.89
2.33
2.70
2.96
3.13
3.21
3.25
3.23
3.16
2.98
2.70
2.35
2.02
1.79
1.71
1.76
1.88
2.01
2.06
2.00
1.83
1.57
1.26
0.94
0.61
0.26
-0.11
-0.51
-0.95
-1.37
-1.70
-1.93
-2.04
-2.08
-2.12
-2.22
-2.42
-2.75
-3.24
-3.90
-4.70
-5.54
-6.29
-6.78
-6.89
-6.56
-5.85
-4.82
-3.60
-2.26
-0.87
0.50
1.74
2.72
3.32
3.51
3.36
3.02
2.66
2.39
2.18
1.97
1.70
1.38
1.07
0.89
0.88
0.97
1.09
1.16
1.19
1.26
1.45
1.73
2.04
2.22
2.18
1.91
1.47
0.96
0.47
0.06
-0.24
-0.47
-0.66
-0.86
-1.11
-1.44
-1.82
-2.24
-2.69
-3.17
-3.73
-4.39
-5.11
-5.75
-6.14
-6.16
-5.75
-4.96
-3.89
-2.65
-1.31
0.01
1.23
2.24
2.99
3.48
3.75
3.86
3.82
3.61
3.19
2.59
1.93
1.36
1.01
0.92
1.04
1.30
1.63
2.01
2.43
2.84
3.18
3.35
3.26
2.87
2.24
1.49
0.76
0.20
-0.12
-0.22
-0.22
-0.23
-0.37
-0.64
-0.98
-1.33
-1.64
-1.93
-2.28
-2.75
-3.34
-4.01
-4.71
-5.37
-5.92
-6.27
-6.32
-5.97
-5.17
-3.98
-2.51
-0.97
0.46
1.64
2.51
3.06
3.36
3.49
3.54
3.54
3.50
3.38
3.10
2.64
2.08
1.60
1.41
1.62
2.21
3.03
3.83
4.41
4.66
4.58
4.25
3.74
3.15
2.59
2.13
1.85
1.74
1.71
1.65
1.41
0.97
0.38
-0.25
-0.79
-1.22
-1.53
-1.77
-2.00
-2.23
-2.49
-2.81
-3.25
-3.87
-4.63
-5.44
-6.13
-6.50
-6.40
-5.82
-4.79
-3.47
-2.01
-0.55
0.80
1.97
2.93
3.64
4.12
4.37
4.39
4.23
3.91
3.45
2.93
2.40
1.97
1.71
1.64
1.73
1.89
2.03
2.09
2.06
2.00
1.93
1.92
1.99
2.13
2.32
2.49
2.56
2.41
2.01
1.37
0.63
-0.04
-0.51
-0.75
-0.89
-1.07
-1.40
-1.84
-2.29
-2.62
-2.81
-2.95
-3.21
-3.68
-4.38
-5.18
-5.86
-6.21
-6.07
-5.40
-4.25
-2.77
-1.18
0.31
1.54
2.40
2.91
3.12
3.10
2.93
2.65
2.28
1.87
1.52
1.31
1.33
1.59
2.03
2.51
2.85
2.95
2.78
2.40
1.99
1.66
1.51
1.51
1.55
1.51
1.32
0.98
0.56
0.18
-0.11
-0.28
-0.39
-0.51
-0.69
-0.93
-1.24
-1.60
-2.04
-2.56
-3.13
-3.69
-4.18
-4.54
-4.79
-4.94
-5.04
-5.06
-4.98
-4.77
-4.45
-4.02
-3.50
-2.87
-2.05
-1.03
0.14
1.31
2.31
3.00
3.32
3.33
3.13
2.82
2.46
2.08
1.70
1.33
1.03
0.82
0.76
0.88
1.20
1.71
2.36
3.08
3.79
4.38
4.74
4.79
4.49
3.88
3.04
2.13
1.25
0.50
-0.11
-0.61
-1.01
-1.32
-1.54
-1.63
-1.62
-1.56
-1.53
-1.61
-1.83
-2.19
-2.61
-3.05
-3.44
-3.77
-4.03
-4.19
-4.24
-4.09
-3.68
-2.97
-2.04
-0.99
0.03
0.88
1.51
1.90
2.08
2.04
1.83
1.47
1.08
0.79
0.73
0.97
1.44
2.05
2.64
3.12
3.43
3.59
3.62
3.53
3.34
3.06
2.74
2.41
2.12
1.85
1.57
1.19
0.65
-0.05
-0.87
-1.70
-2.43
-2.96
-3.26
-3.38
-3.43
-3.53
-3.75
-4.13
-4.64
-5.21
-5.78
-6.31
-6.75
-6.99
-6.93
-6.45
-5.51
-4.18
-2.63
-1.10
0.20
1.17
1.81
2.19
2.42
2.52
2.49
2.32
2.03
1.69
1.42
1.32
1.39
1.59
1.81
1.98
2.08
2.15
2.26
2.44
2.68
2.87
2.93
2.75
2.33
1.74
1.11
0.56
0.18
-0.00
-0.04
-0.02
-0.08
-0.30
-0.71
-1.27
-1.92
-2.58
-3.23
-3.86
-4.46
-5.03
-5.55
-5.98
-6.37
-6.69
-6.92
-6.97
-6.68
-5.95
-4.75
-3.20
-1.51
0.10
1.44
2.45
3.12
3.47
3.54
3.35
2.96
2.51
2.13
1.95
2.01
2.28
2.66
3.02
3.28
3.40
3.41
3.40
3.44
3.56
3.71
3.81
3.73
3.43
2.91
2.27
1.61
1.04
0.61
0.34
0.18
0.02
-0.20
-0.54
-0.99
-1.47
-1.91
-2.24
-2.48
-2.72
-3.07
-3.62
-4.37
-5.26
-6.14
-6.84
-7.20
-7.11
-6.55
-5.58
-4.32
-2.93
-1.56
-0.28
0.87
1.86
2.66
3.21
3.47
3.48
3.35
3.20
3.15
3.21
3.34
3.46
3.55
3.63
3.77
4.03
4.40
4.81
5.13
5.25
5.09
4.68
4.11
3.50
2.93
2.41
1.89
1.30
0.63
-0.06
-0.63
-0.98
-1.11
-1.12
-1.17
-1.40
-1.84
-2.45
-3.07
-3.58
-3.92
-4.08
-4.14
-4.21
-4.37
-4.68
-5.12
-5.61
-6.02
-6.19
-5.97
-5.30
-4.19
-2.78
-1.26
0.14
1.25
1.96
2.27
2.23
1.95
1.52
1.00
0.44
-0.13
-0.66
-1.10
-1.41
-1.62
-1.79
-2.00
-2.30
-2.67
-3.05
-3.34
-3.54
-3.69
-3.92
-4.37
-5.11
-6.07
-7.16
-8.23
-9.23
-10.15
-11.04
-11.91
-12.69
-13.26
-13.45
-13.13
-12.24
-10.79
-8.81
-6.42
-3.71
-0.82
2.06
4.74
7.02
8.78
10.01
10.78
11.24
11.55
11.86
12.22
12.67
13.14
13.58
13.90
14.02
13.92
13.60
13.08
12.43
11.70
10.92
10.11
9.26
8.37
7.47
6.65
5.98
5.55
5.37
5.38
5.45
5.46
5.32
5.04
4.65
4.25
3.87
3.53
3.19
2.79
2.33
1.80
1.25
0.67
0.10
-0.49
-1.07
-1.64
-2.14
-2.55
-2.85
-3.04
-3.19
-3.37
-3.66
-4.07
-4.61
-5.20
-5.76
-6.19
-6.43
-6.43
-6.18
-5.67
-4.89
-3.87
-2.65
-1.33
-0.05
1.05
1.88
2.41
2.69
2.80
2.85
2.87
2.84
2.70
2.42
2.01
1.56
1.21
1.05
1.12
1.33
1.60
1.83
1.99
2.11
2.19
2.21
2.12
1.85
1.44
0.97
0.58
0.39
0.37
0.42
0.38
0.15
-0.25
-0.70
-1.05
-1.21
-1.21
-1.22
-1.43
-1.94
-2.69
-3.50
-4.21
-4.68
-4.96
-5.18
-5.48
-5.92
-6.40
-6.73
-6.70
-6.20
-5.24
-3.97
-2.60
-1.28
-0.07
1.03
2.05
2.95
3.63
3.99
3.98
3.62
3.06
2.48
2.03
1.72
1.52
1.34
1.18
1.10
1.20
1.51
1.95
2.37
2.60
2.56
2.34
2.06
1.91
1.94
2.08
2.19
2.17
1.97
1.69
1.40
1.16
0.94
0.61
0.10
-0.62
-1.46
-2.25
-2.82
-3.07
-3.04
-2.84
-2.68
-2.69
-2.94
-3.41
-4.03
-4.69
-5.31
-5.84
-6.21
-6.36
-6.19
-5.62
-4.62
-3.26
-1.70
-0.16
1.14
2.04
2.54
2.73
2.77
2.77
2.74
2.62
2.34
1.88
1.38
1.01
0.90
1.06
1.35
1.59
1.67
1.62
1.56
1.67
2.02
2.54
3.04
3.31
3.24
2.86
2.33
1.84
1.52
1.41
1.43
1.49
1.49
1.40
1.24
1.01
0.75
0.42
0.00
-0.51
-1.11
-1.75
-2.36
-2.87
-3.23
-3.42
-3.49
-3.48
-3.41
-3.26
-2.99
-2.51
-1.76
-0.79
0.33
1.45
2.44
3.17
3.55
3.55
3.21
2.68
2.12
1.71
1.53
1.59
1.78
1.98
2.09
2.05
1.92
1.75
1.61
1.56
1.60
1.70
1.84
1.93
1.89
1.63
1.15
0.49
-0.20
-0.75
-1.06
-1.16
-1.16
-1.26
-1.56
-2.05
-2.61
-3.08
-3.38
-3.54
-3.65
-3.81
-4.08
-4.43
-4.85
-5.33
-5.80
-6.19
-6.35
-6.14
-5.47
-4.38
-3.01
-1.59
-0.34
0.59
1.17
1.48
1.63
1.79
2.01
2.30
2.56
2.67
2.58
2.34
2.06
1.85
1.76
1.71
1.64
1.49
1.32
1.23
1.31
1.54
1.80
1.95
1.88
1.58
1.14
0.68
0.25
-0.12
-0.44
-0.70
-0.89
-0.98
-0.99
-1.03
-1.22
-1.64
-2.26
-2.93
-3.45
-3.69
-3.67
-3.54
-3.54
-3.82
-4.41
-5.20
-5.98
-6.54
-6.78
-6.61
-6.04
-5.07
-3.75
-2.18
-0.54
0.92
1.98
2.51
2.56
2.35
2.11
2.03
2.12
2.29
2.41
2.40
2.28
2.13
2.03
2.00
2.02
2.04
2.08
2.16
2.33
2.57
2.77
2.82
2.62
2.16
1.53
0.86
0.29
-0.11
-0.35
-0.48
-0.57
-0.68
-0.83
-1.04
-1.30
-1.63
-2.05
-2.53
-3.04
-3.52
-3.91
-4.22
-4.51
-4.88
-5.38
-5.98
-6.54
-6.90
-6.94
-6.63
-6.04
-5.22
-4.24
-3.07
-1.71
-0.22
1.27
2.58
3.51
3.93
3.86
3.43
2.90
2.48
2.34
2.46
2.72
2.96
3.06
3.03
2.97
2.99
3.16
3.46
3.80
4.06
4.19
4.16
4.00
3.70
3.30
2.80
2.26
1.73
1.26
0.91
0.68
0.55
0.44
0.28
-0.02
-0.47
-1.05
-1.66
-2.21
-2.68
-3.09
-3.51
-4.03
-4.70
-5.45
-6.20
-6.80
-7.16
-7.22
-6.96
-6.39
-5.54
-4.45
-3.13
-1.67
-0.13
1.38
2.75
3.87
4.66
5.07
5.13
4.88
4.43
3.89
3.37
2.97
2.75
2.75
2.93
3.22
3.52
3.77
3.95
4.09
4.23
4.39
4.51
4.53
4.38
4.04
3.58
3.07
2.57
2.11
1.67
1.23
0.78
0.33
-0.10
-0.48
-0.84
-1.22
-1.64
-2.10
-2.58
-3.01
-3.36
-3.64
-3.92
-4.29
-4.79
-5.40
-5.96
-6.28
-6.18
-5.58
-4.52
-3.13
-1.56
0.06
1.61
2.99
4.05
4.70
4.90
4.72
4.31
3.84
3.42
3.11
2.87
2.66
2.47
2.29
2.16
2.11
2.18
2.42
2.82
3.36
3.91
4.31
4.41
4.14
3.55
2.81
2.11
1.56
1.19
0.92
0.65
0.29
-0.13
-0.56
-0.94
-1.24
-1.49
-1.79
-2.17
-2.65
-3.18
-3.68
-4.12
-4.50
-4.88
-5.31
-5.83
-6.38
-6.84
-7.02
-6.73
-5.87
-4.45
-2.64
-0.66
1.21
2.74
3.82
4.41
4.57
4.37
3.92
3.34
2.74
2.28
2.06
2.13
2.42
2.80
3.14
3.35
3.45
3.50
3.60
3.76
3.92
3.97
3.83
3.51
3.07
2.60
2.20
1.86
1.56
1.24
0.84
0.38
-0.16
-0.77
-1.45
-2.17
-2.88
-3.52
-4.03
-4.39
-4.62
-4.77
-4.89
-5.06
-5.35
-5.81
-6.43
-7.13
-7.71
-7.96
-7.71
-6.91
-5.67
-4.15
-2.56
-1.02
0.36
1.53
2.44
3.05
3.35
3.40
3.30
3.12
2.94
2.75
2.57
2.41
2.33
2.36
2.53
2.85
3.28
3.76
4.18
4.46
4.53
4.36
3.97
3.43
2.87
2.41
2.14
2.06
2.10
2.12
2.00
1.69
1.23
0.72
0.28
-0.05
-0.26
-0.41
-0.54
-0.70
-0.87
-1.08
-1.37
-1.82
-2.48
-3.32
-4.26
-5.16
-5.87
-6.29
-6.35
-6.06
-5.42
-4.51
-3.41
-2.21
-0.99
0.18
1.27
2.25
3.09
3.73
4.11
4.19
4.00
3.63
3.24
2.95
2.81
2.77
2.79
2.80
2.84
2.94
3.14
3.40
3.64
3.73
3.59
3.22
2.70
2.15
1.69
1.36
1.16
1.01
0.80
0.47
0.03
-0.49
-0.97
-1.35
-1.62
-1.81
-2.04
-2.36
-2.82
-3.36
-3.95
-4.54
-5.07
-5.51
-5.78
-5.78
-5.40
-4.58
-3.32
-1.75
-0.04
1.60
2.99
4.02
4.66
4.93
4.91
4.67
4.29
3.82
3.28
2.73
2.26
1.95
1.85
1.95
2.15
2.33
2.42
2.38
2.23
2.03
1.81
1.56
1.29
0.99
0.69
0.44
0.26
0.15
0.06
-0.07
-0.34
-0.80
-1.45
-2.24
-3.05
-3.74
-4.18
-4.37
-4.42
-4.53
-4.89
-5.54
-6.39
-7.20
-7.71
-7.74
-7.24
-6.28
-4.99
-3.49
-1.91
-0.36
1.03
2.18
3.00
3.49
3.69
3.64
3.42
3.06
2.65
2.27
2.04
2.04
2.27
2.65
3.07
3.43
3.67
3.78
3.77
3.68
3.51
3.26
2.98
2.67
2.35
2.01
1.61
1.13
0.56
-0.06
-0.70
-1.28
-1.78
-2.18
-2.50
-2.73
-2.89
-3.03
-3.22
-3.55
-4.10
-4.86
-5.75
-6.60
-7.29
-7.70
-7.82
-7.67
-7.29
-6.69
-5.87
-4.80
-3.48
-1.98
-0.37
1.26
2.79
4.13
5.21
5.93
6.23
6.11
5.63
4.92
4.18
3.57
3.20
3.09
3.20
3.39
3.58
3.71
3.76
3.76
3.75
3.71
3.58
3.32
2.92
2.41
1.84
1.29
0.77
0.28
-0.20
-0.69
-1.18
-1.67
-2.14
-2.57
-2.93
-3.17
-3.26
-3.25
-3.23
-3.35
-3.76
-4.51
-5.52
-6.62
-7.61
-8.32
-8.65
-8.54
-8.00
-7.08
-5.87
-4.47
-3.02
-1.65
-0.42
0.65
1.58
2.38
3.07
3.61
3.98
4.15
4.15
4.00
3.75
3.44
3.10
2.78
2.54
2.44
2.56
2.89
3.38
3.90
4.29
4.44
4.33
4.00
3.56
3.11
2.72
2.41
2.19
2.04
1.97
1.91
1.79
1.50
0.97
0.21
-0.64
-1.41
-1.92
-2.15
-2.20
-2.28
-2.56
-3.16
-4.04
-5.06
-6.04
-6.79
-7.21
-7.24
-6.91
-6.25
-5.34
-4.22
-2.95
-1.57
-0.12
1.31
2.61
3.66
4.38
4.74
4.79
4.60
4.23
3.77
3.30
2.92
2.70
2.66
2.76
2.94
3.11
3.21
3.22
3.15
3.01
2.85
2.66
2.49
2.33
2.17
1.95
1.63
1.18
0.65
0.13
-0.32
-0.68
-1.00
-1.37
-1.79
-2.26
-2.67
-2.98
-3.19
-3.36
-3.58
-3.92
-4.39
-4.94
-5.52
-6.02
-6.35
-6.39
-6.04
-5.26
-4.11
-2.75
-1.36
-0.09
0.98
1.86
2.56
3.11
3.46
3.58
3.46
3.20
2.90
2.70
2.65
2.74
2.92
3.10
3.24
3.34
3.39
3.39
3.33
3.19
2.98
2.75
2.56
2.41
2.29
2.16
1.97
1.69
1.35
0.96
0.59
0.27
0.01
-0.22
-0.48
-0.82
-1.26
-1.77
-2.26
-2.66
-2.96
-3.21
-3.49
-3.91
-4.51
-5.28
-6.14
-6.99
-7.69
-8.13
-8.17
-7.69
-6.69
-5.24
-3.54
-1.78
-0.15
1.26
2.42
3.33
3.95
4.27
4.28
4.03
3.62
3.20
2.85
2.65
2.56
2.55
2.55
2.56
2.61
2.75
3.01
3.34
3.66
3.86
3.85
3.59
3.13
2.58
2.07
1.70
1.49
1.41
1.36
1.22
0.92
0.44
-0.18
-0.88
-1.55
-2.13
-2.55
-2.81
-2.94
-3.03
-3.16
-3.45
-3.96
-4.68
-5.55
-6.46
-7.26
-7.84
-8.10
-7.95
-7.34
-6.31
-4.94
-3.36
-1.75
-0.23
1.12
2.30
3.29
4.06
4.55
4.66
4.37
3.77
3.02
2.34
1.90
1.77
1.92
2.29
2.76
3.28
3.78
4.21
4.50
4.61
4.54
4.34
4.12
3.96
3.88
3.81
3.65
3.29
2.71
1.98
1.19
0.48
-0.11
-0.56
-0.95
-1.35
-1.85
-2.47
-3.16
-3.79
-4.26
-4.52
-4.61
-4.65
-4.77
-5.01
-5.28
-5.41
-5.22
-4.59
-3.55
-2.21
-0.74
0.71
2.00
3.02
3.72
4.05
4.03
3.73
3.28
2.78
2.35
2.04
1.87
1.86
1.97
2.19
2.48
2.78
3.04
3.21
3.24
3.12
2.83
2.42
1.93
1.45
1.03
0.73
0.53
0.38
0.21
-0.07
-0.50
-1.06
-1.68
-2.26
-2.72
-3.06
-3.34
-3.62
-4.01
-4.55
-5.25
-6.08
-6.94
-7.72
-8.24
-8.33
-7.87
-6.83
-5.30
-3.48
-1.60
0.13
1.58
2.70
3.51
4.03
4.30
4.33
4.17
3.86
3.47
3.06
2.72
2.48
2.37
2.32
2.31
2.28
2.29
2.39
2.65
3.06
3.48
3.73
3.65
3.21
2.49
1.69
0.95
0.33
-0.18
-0.65
-1.07
-1.43
-1.67
-1.83
-2.00
-2.32
-2.88
-3.63
-4.42
-5.11
-5.63
-6.03
-6.42
-6.88
-7.35
-7.65
-7.60
-7.08
-6.11
-4.82
-3.37
-1.88
-0.39
1.04
2.37
3.46
4.19
4.52
4.50
4.25
3.95
3.71
3.56
3.48
3.45
3.42
3.40
3.37
3.34
3.29
3.21
3.12
3.01
2.91
2.81
2.70
2.58
2.40
2.16
1.82
1.39
0.92
0.46
0.07
-0.21
-0.39
-0.56
-0.76
-1.07
-1.50
-2.02
-2.62
-3.25
-3.87
-4.44
-4.94
-5.37
-5.74
-6.05
-6.27
-6.35
-6.18
-5.68
-4.79
-3.55
-2.07
-0.48
1.03
2.31
3.24
3.76
3.89
3.75
3.48
3.25
3.13
3.11
3.13
3.10
2.99
2.85
2.76
2.83
3.05
3.39
3.71
3.94
3.99
3.86
3.60
3.24
2.85
2.48
2.19
1.99
1.88
1.77
1.59
1.22
0.62
-0.14
-0.97
-1.72
-2.30
-2.67
-2.86
-2.98
-3.14
-3.43
-3.85
-4.36
-4.84
-5.19
-5.29
-5.04
-4.40
-3.37
-2.01
-0.42
1.22
2.76
4.00
4.83
5.18
5.07
4.59
3.88
3.10
2.41
1.91
1.67
1.65
1.78
1.96
2.12
2.23
2.31
2.38
2.46
2.53
2.55
2.49
2.32
2.09
1.83
1.59
1.37
1.14
0.82
0.34
-0.29
-1.05
-1.83
-2.53
-3.08
-3.45
-3.68
-3.86
-4.08
-4.39
-4.76
-5.18
-5.61
-6.03
-6.39
-6.60
-6.53
-6.01
-4.95
-3.39
-1.53
0.34
1.92
3.03
3.67
3.93
3.94
3.81
3.58
3.26
2.88
2.51
2.21
2.02
1.93
1.91
1.90
1.93
2.00
2.16
2.37
2.56
2.66
2.60
2.40
2.08
1.68
1.28
0.90
0.61
0.43
0.37
0.38
0.34
0.11
-0.39
-1.12
-1.95
-2.70
-3.23
-3.55
-3.73
-3.90
-4.19
-4.62
-5.18
-5.78
-6.33
-6.74
-6.88
-6.67
-6.07
-5.09
-3.84
-2.48
-1.16
0.03
1.05
1.94
2.72
3.37
3.84
4.04
3.96
3.65
3.21
2.76
2.39
2.16
2.09
2.17
2.38
2.68
3.00
3.28
3.46
3.56
3.62
3.67
3.67
3.55
3.25
2.75
2.15
1.60
1.21
1.01
0.90
0.72
0.38
-0.10
-0.62
-1.07
-1.38
-1.59
-1.81
-2.16
-2.65
-3.27
-3.95
-4.63
-5.30
-5.92
-6.45
-6.75
-6.65
-6.07
-5.00
-3.60
-2.07
-0.62
0.62
1.61
2.38
2.96
3.38
3.65
3.74
3.66
3.39
2.98
2.50
2.06
1.80
1.83
2.15
2.67
3.26
3.74
4.03
4.11
4.01
3.80
3.52
3.19
2.82
2.41
1.99
1.55
1.11
0.66
0.18
-0.32
-0.80
-1.23
-1.55
-1.78
-1.96
-2.18
-2.52
-3.03
-3.70
-4.44
-5.11
-5.59
-5.82
-5.81
-5.62
-5.30
-4.86
-4.24
-3.37
-2.20
-0.81
0.65
1.98
3.00
3.67
4.01
4.11
4.01
3.74
3.28
2.71
2.16
1.80
1.75
2.00
2.37
2.67
2.74
2.60
2.36
2.20
2.25
2.50
2.86
3.14
3.22
2.99
2.48
1.76
0.98
0.26
-0.32
-0.72
-0.96
-1.10
-1.23
-1.45
-1.83
-2.39
-3.07
-3.78
-4.44
-4.98
-5.43
-5.82
-6.21
-6.62
-7.00
-7.25
-7.30
-7.08
-6.56
-5.75
-4.65
-3.28
-1.71
-0.05
1.52
2.82
3.75
4.30
4.52
4.53
4.39
4.14
3.77
3.32
2.87
2.55
2.45
2.62
2.99
3.43
3.75
3.84
3.66
3.27
2.81
2.43
2.27
2.32
2.47
2.54
2.36
1.87
1.16
0.41
-0.20
-0.59
-0.80
-0.99
-1.30
-1.78
-2.40
-3.07
-3.66
-4.11
-4.41
-4.64
-4.90
-5.32
-5.94
-6.68
-7.35
-7.73
-7.64
-7.05
-6.07
-4.90
-3.68
-2.52
-1.41
-0.33
0.74
1.79
2.75
3.52
4.04
4.25
4.16
3.82
3.37
2.96
2.72
2.71
2.92
3.24
3.52
3.61
3.49
3.19
2.87
2.66
2.67
2.88
3.16
3.34
3.31
3.06
2.63
2.13
1.60
1.05
0.48
-0.08
-0.54
-0.84
-0.99
-1.06
-1.17
-1.40
-1.72
-2.07
-2.41
-2.74
-3.13
-3.68
-4.38
-5.17
-5.87
-6.34
-6.44
-6.13
-5.42
-4.41
-3.22
-1.98
-0.79
0.28
1.22
2.02
2.66
3.13
3.41
3.52
3.50
3.40
3.24
3.00
2.68
2.29
1.92
1.70
1.73
2.04
2.56
3.13
3.64
3.97
4.10
4.04
3.83
3.51
3.11
2.64
2.14
1.61
1.09
0.58
0.06
-0.49
-1.06
-1.65
-2.20
-2.65
-2.99
-3.21
-3.39
-3.63
-4.02
-4.60
-5.34
-6.12
-6.76
-7.06
-6.86
-6.07
-4.73
-3.00
-1.09
0.75
2.32
3.51
4.27
4.63
4.64
4.37
3.90
3.31
2.71
2.17
1.75
1.46
1.31
1.35
1.57
1.97
2.49
3.03
3.45
3.61
3.44
2.93
2.17
1.27
0.41
-0.31
-0.82
-1.11
-1.18
-1.09
-0.91
-0.71
-0.60
-0.64
-0.92
-1.40
-2.04
-2.71
-3.34
-3.85
-4.27
-4.67
-5.11
-5.61
-6.14
-6.62
-6.95
-7.03
-6.80
-6.20
-5.28
-4.10
-2.76
-1.38
-0.05
1.15
2.18
2.98
3.52
3.76
3.71
3.42
3.01
2.62
2.34
2.23
2.26
2.40
2.59
2.81
3.04
3.29
3.54
3.78
3.97
4.06
3.99
3.70
3.19
2.54
1.85
1.25
0.82
0.55
0.38
0.21
-0.05
-0.42
-0.88
-1.38
-1.82
-2.19
-2.48
-2.79
-3.21
-3.83
-4.64
-5.53
-6.34
-6.89
-7.06
-6.85
-6.31
-5.49
-4.47
-3.26
-1.92
-0.55
0.73
1.85
2.75
3.42
3.88
4.11
4.11
3.92
3.61
3.30
3.05
2.90
2.81
2.70
2.54
2.35
2.21
2.23
2.46
2.92
3.51
4.07
4.45
4.54
4.34
3.96
3.56
3.26
3.09
2.96
2.71
2.22
1.49
0.62
-0.23
-0.90
-1.37
-1.65
-1.82
-1.94
-2.06
-2.22
-2.49
-2.93
-3.56
-4.36
-5.19
-5.85
-6.13
-5.92
-5.21
-4.15
-2.90
-1.62
-0.40
0.72
1.75
2.67
3.45
3.99
4.23
4.14
3.75
3.21
2.67
2.29
2.18
2.31
2.60
2.92
3.14
3.20
3.10
2.89
2.65
2.40
2.14
1.86
1.60
1.38
1.28
1.31
1.40
1.41
1.19
0.65
-0.19
-1.15
-2.01
-2.56
-2.70
-2.53
-2.26
-2.14
-2.36
-2.96
-3.83
-4.80
-5.66
-6.28
-6.57
-6.49
-6.00
-5.07
-3.75
-2.15
-0.50
0.96
2.06
2.74
3.09
3.22
3.28
3.34
3.40
3.42
3.35
3.16
2.88
2.55
2.24
2.02
1.93
1.96
2.10
2.27
2.44
2.55
2.57
2.47
2.22
1.79
1.21
0.55
-0.09
-0.61
-0.94
-1.10
-1.16
-1.23
-1.40
-1.75
-2.29
-2.97
-3.70
-4.35
-4.82
-5.06
-5.10
-5.05
-5.10
-5.34
-5.80
-6.41
-6.98
-7.32
-7.28
-6.81
-5.91
-4.69
-3.28
-1.83
-0.50
0.61
1.45
2.03
2.40
2.64
2.79
2.86
2.88
2.87
2.85
2.82
2.79
2.74
2.71
2.71
2.81
3.01
3.32
3.64
3.87
3.93
3.80
3.56
3.30
3.12
3.03
2.97
2.84
2.58
2.21
1.80
1.46
1.23
1.10
0.99
0.84
0.63
0.36
0.07
-0.24
-0.60
-1.07
-1.69
-2.51
-3.49
-4.52
-5.47
-6.14
-6.42
-6.28
-5.75
-4.95
-3.99
-2.94
-1.81
-0.62
0.61
1.75
2.66
3.20
3.34
3.14
2.75
2.33
1.98
1.74
1.59
1.49
1.39
1.29
1.20
1.18
1.27
1.50
1.87
2.31
2.70
2.93
2.95
2.77
2.46
2.09
1.68
1.22
0.68
0.07
-0.56
-1.10
-1.46
-1.66
-1.77
-1.89
-2.15
-2.57
-3.12
-3.75
-4.38
-4.99
-5.55
-6.03
-6.39
-6.61
-6.65
-6.46
-5.96
-5.04
-3.68
-1.93
0.02
1.88
3.39
4.37
4.82
4.85
4.59
4.16
3.61
3.00
2.41
1.98
1.88
2.14
2.67
3.28
3.72
3.87
3.72
3.42
3.13
2.98
2.98
3.01
2.94
2.64
2.11
1.38
0.59
-0.15
-0.76
-1.16
-1.36
-1.41
-1.40
-1.42
-1.56
-1.82
-2.18
-2.59
-3.01
-3.47
-4.02
-4.70
-5.47
-6.21
-6.77
-7.03
-6.96
-6.59
-5.97
-5.15
-4.14
-2.96
-1.67
-0.38
0.80
1.75
2.44
2.88
3.12
3.23
3.25
3.18
3.03
2.84
2.65
2.54
2.54
2.63
2.78
2.92
3.06
3.20
3.39
3.61
3.82
3.91
3.76
3.34
2.73
2.05
1.46
1.03
0.75
0.53
0.25
-0.11
-0.54
-0.97
-1.32
-1.56
-1.73
-1.91
-2.18
-2.58
-3.13
-3.78
-4.47
-5.16
-5.78
-6.28
-6.64
-6.81
-6.75
-6.41
-5.74
-4.77
-3.55
-2.18
-0.81
0.49
1.65
2.68
3.56
4.24
4.66
4.77
4.60
4.25
3.87
3.58
3.42
3.36
3.36
3.39
3.47
3.60
3.74
3.82
3.76
3.53
3.18
2.87
2.73
2.84
3.17
3.57
3.90
3.98
3.76
3.28
2.65
2.02
1.48
1.08
0.76
0.47
0.15
-0.23
-0.62
-0.98
-1.32
-1.66
-2.07
-2.58
-3.17
-3.77
-4.24
-4.47
-4.35
-3.86
-3.05
-2.03
-0.97
0.03
0.87
1.52
2.00
2.35
2.59
2.67
2.55
2.16
1.53
0.76
0.03
-0.47
-0.62
-0.40
0.06
0.58
1.01
1.25
1.34
1.36
1.41
1.48
1.54
1.53
1.42
1.24
1.09
1.01
1.00
0.97
0.80
0.41
-0.19
-0.90
-1.59
-2.16
-2.62
-3.05
-3.51
-4.03
-4.53
-4.90
-5.06
-4.96
-4.62
-4.06
-3.34
-2.47
-1.49
-0.44
0.60
1.52
2.20
2.59
2.68
2.54
2.32
2.15
2.09
2.14
2.15
2.02
1.65
1.09
0.48
-0.01
-0.28
-0.32
-0.20
-0.03
0.13
0.21
0.22
0.16
0.07
-0.03
-0.13
-0.25
-0.45
-0.75
-1.15
-1.56
-1.89
-2.10
-2.23
-2.39
-2.73
-3.32
-4.13
-5.04
-5.88
-6.50
-6.80
-6.74
-6.31
-5.50
-4.38
-3.01
-1.52
-0.07
1.22
2.25
2.99
3.43
3.61
3.56
3.30
2.89
2.37
1.82
1.32
0.95
0.72
0.66
0.76
0.97
1.23
1.44
1.53
1.46
1.26
0.98
0.70
0.49
0.36
0.29
0.23
0.14
0.02
-0.15
-0.37
-0.66
-1.04
-1.55
-2.20
-2.94
-3.67
-4.33
-4.85
-5.27
-5.63
-6.00
-6.31
-6.44
-6.18
-5.40
-4.11
-2.48
-0.80
0.67
1.78
2.51
2.95
3.21
3.31
3.26
3.01
2.58
2.08
1.63
1.34
1.25
1.33
1.48
1.64
1.80
1.98
2.19
2.43
2.62
2.71
2.64
2.44
2.16
1.88
1.66
1.46
1.23
0.95
0.60
0.25
-0.04
-0.22
-0.32
-0.43
-0.67
-1.11
-1.78
-2.64
-3.58
-4.52
-5.31
-5.83
-5.97
-5.64
-4.83
-3.64
-2.24
-0.82
0.43
1.40
2.07
2.44
2.52
2.33
1.89
1.24
0.46
-0.37
-1.16
-1.83
-2.35
-2.73
-3.03
-3.30
-3.58
-3.88
-4.15
-4.33
-4.43
-4.49
-4.63
-5.00
-5.67
-6.61
-7.70
-8.83
-9.88
-10.85
-11.73
-12.52
-13.18
-13.61
-13.72
-13.43
-12.72
-11.59
-10.09
-8.27
-6.16
-3.80
-1.23
1.53
4.43
7.39
10.24
12.83
15.00
16.68
17.84
18.50
18.71
18.50
17.92
17.05
15.95
14.73
13.45
12.17
10.96
9.91
9.08
8.52
8.16
7.93
7.70
7.39
7.00
6.52
5.99
5.38
4.67
3.85
2.97
2.14
1.43
0.91
0.52
0.15
-0.32
-0.91
-1.61
-2.31
-2.94
-3.50
-4.06
-4.70
-5.48
-6.34
-7.09
-7.51
-7.39
-6.66
-5.40
-3.79
-2.05
-0.36
1.13
2.34
3.24
3.83
4.16
4.25
4.17
3.97
3.68
3.33
2.97
2.61
2.25
1.91
1.58
1.29
1.11
1.11
1.32
1.68
2.08
2.35
2.37
2.09
1.58
0.95
0.36
-0.11
-0.44
-0.66
-0.87
-1.15
-1.55
-2.06
-2.62
-3.17
-3.67
-4.12
-4.58
-5.11
-5.75
-6.49
-7.23
-7.82
-8.09
-7.94
-7.27
-6.11
-4.55
-2.78
-0.98
0.65
1.96
2.85
3.31
3.43
3.31
3.12
2.93
2.79
2.67
2.52
2.31
2.09
1.93
1.92
2.08
2.39
2.74
3.04
3.23
3.30
3.27
3.16
2.98
2.73
2.40
2.04
1.69
1.42
1.25
1.12
0.96
0.71
0.31
-0.23
-0.87
-1.57
-2.31
-3.09
-3.91
-4.72
-5.48
-6.10
-6.48
-6.53
-6.20
-5.43
-4.25
-2.77
-1.16
0.37
1.66
2.68
3.45
4.04
4.49
4.76
4.78
4.50
3.96
3.27
2.59
2.11
1.91
2.01
2.36
2.80
3.20
3.44
3.46
3.31
3.11
2.93
2.78
2.62
2.35
1.92
1.38
0.82
0.34
-0.01
-0.28
-0.56
-0.95
-1.49
-2.16
-2.94
-3.76
-4.57
-5.28
-5.80
-6.04
-5.91
-5.40
-4.54
-3.44
-2.23
-1.01
0.18
1.30
2.31
3.14
3.70
3.90
3.73
3.28
2.69
2.13
1.72
1.50
1.44
1.46
1.50
1.54
1.59
1.67
1.76
1.83
1.80
1.64
1.35
0.98
0.61
0.30
0.02
-0.29
-0.70
-1.25
-1.95
-2.72
-3.49
-4.15
-4.66
-5.00
-5.21
-5.38
-5.62
-5.98
-6.44
-6.85
-7.03
-6.83
-6.15
-5.00
-3.50
-1.78
0.02
1.72
3.20
4.36
5.12
5.51
5.59
5.41
5.04
4.50
3.83
3.11
2.48
2.07
1.98
2.21
2.64
3.13
3.48
3.61
3.46
3.06
2.49
1.80
1.08
0.41
-0.13
-0.50
-0.69
-0.76
-0.85
-1.09
-1.59
-2.39
-3.43
-4.55
-5.61
-6.50
-7.16
-7.60
-7.85
-7.92
-7.82
-7.53
-7.00
-6.20
-5.13
-3.82
-2.36
-0.83
0.66
2.00
3.11
3.94
4.43
4.59
4.46
4.12
3.68
3.23
2.86
2.62
2.56
2.67
2.92
3.25
3.56
3.78
3.89
3.91
3.88
3.82
3.68
3.40
2.93
2.29
1.59
0.95
0.48
0.16
-0.10
-0.38
-0.78
-1.30
-1.93
-2.61
-3.34
-4.10
-4.88
-5.62
-6.22
-6.58
-6.57
-6.14
-5.27
-4.03
-2.52
-0.87
0.78
2.31
3.63
4.65
5.34
5.65
5.59
5.25
4.73
4.18
3.71
3.38
3.19
3.09
3.04
3.04
3.11
3.27
3.48
3.66
3.69
3.48
3.03
2.40
1.70
1.03
0.50
0.10
-0.17
-0.40
-0.64
-0.95
-1.38
-1.89
-2.47
-3.08
-3.70
-4.32
-4.92
-5.42
-5.72
-5.69
-5.26
-4.44
-3.31
-2.02
-0.70
0.57
1.78
2.88
3.81
4.49
4.80
4.68
4.15
3.32
2.39
1.52
0.88
0.59
0.65
1.00
1.49
1.96
2.26
2.34
2.26
2.14
2.09
2.11
2.14
2.02
1.62
0.91
-0.03
-1.07
-2.03
-2.82
-3.38
-3.76
-4.01
-4.23
-4.52
-4.93
-5.46
-6.12
-6.83
-7.51
-8.08
-8.42
-8.41
-7.96
-7.00
-5.57
-3.76
-1.77
0.19
1.89
3.16
3.95
4.28
4.30
4.16
3.93
3.66
3.32
2.89
2.44
2.05
1.85
1.86
2.04
2.32
2.61
2.88
3.11
3.31
3.40
3.31
2.98
2.40
1.67
0.91
0.26
-0.23
-0.56
-0.81
-1.10
-1.51
-2.09
-2.84
-3.65
-4.43
-5.08
-5.59
-6.01
-6.44
-6.93
-7.42
-7.79
-7.87
-7.51
-6.69
-5.46
-3.95
-2.33
-0.72
0.78
2.13
3.26
4.14
4.74
5.03
5.04
4.84
4.52
4.16
3.85
3.61
3.48
3.43
3.45
3.47
3.45
3.39
3.30
3.21
3.18
3.21
3.29
3.33
3.26
3.04
2.65
2.13
1.49
0.80
0.09
-0.57
-1.14
-1.61
-2.02
-2.41
-2.87
-3.43
-4.06
-4.70
-5.25
-5.57
-5.58
-5.20
-4.40
-3.24
-1.83
-0.32
1.14
2.43
3.50
4.32
4.89
5.20
5.27
5.10
4.73
4.23
3.67
3.12
2.65
2.31
2.11
2.05
2.08
2.13
2.17
2.17
2.16
2.18
2.24
2.30
2.30
2.14
1.74
1.11
0.28
-0.63
-1.54
-2.35
-3.05
-3.68
-4.26
-4.80
-5.29
-5.69
-5.97
-6.14
-6.22
-6.20
-6.03
-5.65
-4.97
-3.96
-2.68
-1.22
0.27
1.65
2.81
3.68
4.24
4.52
4.59
4.54
4.43
4.28
4.06
3.71
3.20
2.56
1.91
1.38
1.13
1.22
1.59
2.05
2.40
2.45
2.14
1.51
0.74
-0.02
-0.64
-1.09
-1.39
-1.62
-1.82
-2.04
-2.28
-2.55
-2.88
-3.28
-3.77
-4.34
-4.98
-5.65
-6.33
-7.02
-7.69
-8.29
-8.70
-8.75
-8.26
-7.14
-5.45
-3.39
-1.24
0.72
2.29
3.41
4.09
4.44
4.55
4.48
4.27
3.98
3.66
3.37
3.17
3.08
3.05
3.02
2.92
2.74
2.52
2.35
2.31
2.39
2.51
2.56
2.45
2.19
1.83
1.45
1.05
0.60
0.01
-0.73
-1.55
-2.33
-2.93
-3.27
-3.38
-3.41
-3.50
-3.81
-4.38
-5.17
-6.05
-6.84
-7.36
-7.48
-7.16
-6.39
-5.27
-3.89
-2.35
-0.75
0.81
2.20
3.34
4.15
4.62
4.78
4.69
4.41
3.99
3.50
3.00
2.60
2.34
2.28
2.42
2.68
3.00
3.29
3.49
3.59
3.60
3.54
3.41
3.18
2.83
2.37
1.80
1.21
0.67
0.24
-0.05
-0.22
-0.34
-0.48
-0.73
-1.16
-1.79
-2.62
-3.60
-4.63
-5.58
-6.30
-6.69
-6.65
-6.15
-5.21
-3.93
-2.40
-0.76
0.89
2.40
3.68
4.63
5.19
5.38
5.25
4.90
4.42
3.85
3.24
2.61
2.04
1.61
1.41
1.46
1.74
2.14
2.56
2.90
3.09
3.12
2.98
2.67
2.20
1.61
0.96
0.31
-0.30
-0.85
-1.35
-1.82
-2.29
-2.74
-3.16
-3.58
-4.02
-4.52
-5.10
-5.77
-6.47
-7.10
-7.53
-7.63
-7.29
-6.45
-5.12
-3.41
-1.50
0.37
1.96
3.11
3.80
4.08
4.09
3.97
3.78
3.57
3.33
3.05
2.74
2.43
2.17
1.98
1.90
1.94
2.12
2.42
2.77
3.07
3.18
3.05
2.69
2.18
1.62
1.09
0.58
0.03
-0.62
-1.33
-1.98
-2.46
-2.70
-2.77
-2.83
-3.08
-3.61
-4.38
-5.23
-6.01
-6.61
-7.01
-7.22
-7.20
-6.85
-6.06
-4.77
-3.03
-1.03
0.99
2.81
4.27
5.29
5.82
5.86
5.47
4.79
3.99
3.27
2.77
2.51
2.43
2.45
2.50
2.61
2.81
3.15
3.59
4.04
4.39
4.55
4.50
4.29
3.97
3.58
3.11
2.52
1.84
1.14
0.48
-0.06
-0.52
-0.95
-1.46
-2.09
-2.79
-3.49
-4.12
-4.67
-5.18
-5.64
-6.01
-6.17
-5.98
-5.39
-4.40
-3.13
-1.70
-0.23
1.21
2.53
3.68
4.56
5.09
5.24
5.06
4.62
4.05
3.50
3.05
2.77
2.71
2.83
3.07
3.30
3.37
3.22
2.86
2.42
2.08
1.96
2.06
2.26
2.36
2.19
1.71
1.01
0.24
-0.47
-1.09
-1.69
-2.35
-3.09
-3.82
-4.43
-4.85
-5.10
-5.34
-5.68
-6.16
-6.66
-6.96
-6.85
-6.21
-5.07
-3.59
-1.94
-0.30
1.24
2.60
3.75
4.61
5.12
5.23
4.93
4.31
3.51
2.71
2.05
1.61
1.39
1.33
1.37
1.47
1.66
1.96
2.37
2.79
3.08
3.11
2.78
2.12
1.24
0.32
-0.49
-1.07
-1.43
-1.63
-1.76
-1.91
-2.12
-2.37
-2.66
-2.97
-3.32
-3.78
-4.38
-5.14
-6.00
-6.88
-7.64
-8.17
-8.40
-8.24
-7.67
-6.70
-5.35
-3.70
-1.88
-0.04
1.70
3.19
4.33
5.05
5.28
5.06
4.48
3.75
3.09
2.67
2.53
2.57
2.68
2.72
2.69
2.66
2.70
2.82
2.95
2.97
2.81
2.48
2.12
1.82
1.64
1.51
1.32
0.97
0.47
-0.08
-0.58
-1.00
-1.35
-1.70
-2.10
-2.53
-2.95
-3.36
-3.79
-4.36
-5.15
-6.10
-7.04
-7.70
-7.87
-7.47
-6.57
-5.37
-4.10
-2.90
-1.84
-0.88
0.02
0.89
1.70
2.41
2.99
3.46
3.84
4.16
4.37
4.39
4.20
3.80
3.34
3.02
3.01
3.38
4.04
4.78
5.39
5.71
5.70
5.39
4.87
4.20
3.49
2.82
2.27
1.89
1.67
1.52
1.34
1.02
0.54
-0.06
-0.70
-1.30
-1.83
-2.34
-2.90
-3.56
-4.36
-5.24
-6.09
-6.79
-7.23
-7.32
-7.01
-6.31
-5.25
-3.93
-2.42
-0.83
0.73
2.16
3.38
4.28
4.79
4.88
4.59
4.05
3.43
2.87
2.46
2.19
2.03
1.97
2.03
2.27
2.68
3.19
3.65
3.91
3.91
3.70
3.41
3.14
2.93
2.70
2.33
1.72
0.88
-0.07
-0.89
-1.41
-1.55
-1.40
-1.16
-1.07
-1.30
-1.88
-2.74
-3.73
-4.68
-5.48
-6.01
-6.24
-6.16
-5.77
-5.13
-4.29
-3.28
-2.13
-0.87
0.42
1.63
2.61
3.27
3.56
3.54
3.31
2.96
2.61
2.31
2.12
2.06
2.14
2.29
2.44
2.48
2.40
2.24
2.12
2.11
2.22
2.37
2.42
2.28
1.88
1.28
0.53
-0.29
-1.12
-1.92
-2.62
-3.20
-3.61
-3.89
-4.08
-4.24
-4.41
-4.65
-4.99
-5.46
-6.06
-6.74
-7.40
-7.87
-8.02
-7.73
-7.00
-5.89
-4.51
-3.02
-1.53
-0.12
1.16
2.32
3.33
4.13
4.62
4.73
4.45
3.89
3.22
2.66
2.36
2.34
2.53
2.78
2.94
2.93
2.77
2.53
2.34
2.28
2.39
2.62
2.84
2.93
2.81
2.49
2.05
1.58
1.13
0.67
0.16
-0.45
-1.12
-1.77
-2.32
-2.72
-3.02
-3.33
-3.77
-4.40
-5.15
-5.94
-6.64
-7.19
-7.56
-7.68
-7.47
-6.84
-5.71
-4.12
-2.20
-0.16
1.74
3.27
4.30
4.79
4.81
4.51
4.06
3.60
3.22
2.92
2.70
2.52
2.42
2.41
2.51
2.68
2.89
3.08
3.24
3.40
3.60
3.85
4.12
4.34
4.40
4.25
3.86
3.27
2.57
1.82
1.10
0.42
-0.22
-0.81
-1.34
-1.78
-2.13
-2.44
-2.77
-3.15
-3.59
-4.04
-4.42
-4.69
-4.84
-4.87
-4.76
-4.42
-3.78
-2.78
-1.49
-0.05
1.34
2.53
3.43
4.06
4.48
4.73
4.81
4.67
4.28
3.65
2.88
2.14
1.60
1.38
1.47
1.78
2.15
2.44
2.57
2.56
2.43
2.21
1.90
1.44
0.85
0.16
-0.52
-1.11
-1.53
-1.79
-1.93
-2.01
-2.11
-2.26
-2.50
-2.88
-3.40
-4.06
-4.80
-5.54
-6.17
-6.59
-6.72
-6.51
-5.92
-4.94
-3.63
-2.11
-0.53
0.91
2.09
2.95
3.52
3.87
4.04
4.06
3.89
3.51
2.97
2.36
1.82
1.47
1.38
1.53
1.81
2.08
2.20
2.13
1.88
1.56
1.28
1.12
1.09
1.08
0.96
0.64
0.09
-0.61
-1.32
-1.90
-2.34
-2.66
-2.97
-3.32
-3.71
-4.10
-4.46
-4.84
-5.32
-6.00
-6.87
-7.74
-8.34
-8.38
-7.70
-6.34
-4.54
-2.58
-0.76
0.76
1.92
2.76
3.35
3.76
4.03
4.19
4.21
4.08
3.78
3.35
2.90
2.53
2.37
2.47
2.80
3.25
3.71
4.05
4.21
4.16
3.92
3.50
2.94
2.26
1.51
0.73
-0.01
-0.61
-1.02
-1.23
-1.30
-1.38
-1.62
-2.11
-2.83
-3.64
-4.35
-4.84
-5.10
-5.29
-5.54
-5.94
-6.41
-6.71
-6.60
-5.93
-4.72
-3.12
-1.36
0.39
2.01
3.41
4.51
5.20
5.44
5.26
4.78
4.21
3.71
3.37
3.14
2.97
2.82
2.71
2.74
2.94
3.31
3.73
4.07
4.25
4.27
4.20
4.11
3.99
3.80
3.44
2.85
2.08
1.22
0.43
-0.20
-0.61
-0.83
-0.93
-1.00
-1.12
-1.37
-1.78
-2.36
-3.09
-3.91
-4.77
-5.52
-6.00
-6.00
-5.36
-4.07
-2.27
-0.28
1.53
2.89
3.66
3.91
3.83
3.58
3.33
3.11
2.95
2.82
2.72
2.63
2.54
2.48
2.45
2.49
2.60
2.75
2.85
2.80
2.55
2.12
1.63
1.18
0.89
0.74
0.69
0.63
0.46
0.15
-0.32
-0.92
-1.59
-2.28
-2.94
-3.56
-4.12
-4.65
-5.17
-5.68
-6.15
-6.50
-6.68
-6.59
-6.19
-5.44
-4.33
-2.87
-1.15
0.69
2.43
3.87
4.84
5.29
5.28
4.92
4.37
3.74
3.14
2.65
2.34
2.21
2.23
2.30
2.34
2.30
2.20
2.08
2.00
1.97
1.95
1.88
1.73
1.48
1.16
0.77
0.30
-0.29
-1.02
-1.83
-2.64
-3.34
-3.88
-4.24
-4.49
-4.74
-5.06
-5.51
-6.08
-6.75
-7.46
-8.09
-8.49
-8.49
-7.95
-6.84
-5.26
-3.40
-1.52
0.19
1.57
2.61
3.33
3.82
4.15
4.37
4.49
4.50
4.40
4.24
4.07
3.95
3.92
3.96
4.00
4.00
3.90
3.70
3.43
3.12
2.77
2.40
2.05
1.75
1.50
1.28
1.03
0.72
0.31
-0.17
-0.69
-1.19
-1.66
-2.09
-2.51
-2.91
-3.30
-3.73
-4.21
-4.77
-5.38
-6.01
-6.59
-7.05
-7.34
-7.41
-7.18
-6.57
-5.53
-4.05
-2.27
-0.40
1.32
2.70
3.66
4.19
4.38
4.31
4.05
3.65
3.19
2.76
2.46
2.36
2.49
2.82
3.29
3.80
4.27
4.59
4.68
4.50
4.09
3.57
3.10
2.82
2.80
2.99
3.27
3.46
3.45
3.18
2.71
2.14
1.54
0.99
0.47
-0.03
-0.52
-1.03
-1.53
-2.03
-2.58
-3.21
-3.96
-4.82
-5.69
-6.41
-6.84
-6.85
-6.42
-5.61
-4.58
-3.43
-2.26
-1.10
0.02
1.06
1.97
2.65
3.07
3.23
3.20
3.09
2.99
2.93
2.85
2.68
2.38
1.99
1.62
1.42
1.48
1.80
2.29
2.78
3.15
3.32
3.30
3.18
3.07
3.04
3.10
3.16
3.11
2.84
2.31
1.56
0.72
-0.07
-0.70
-1.13
-1.37
-1.48
-1.51
-1.53
-1.65
-1.94
-2.48
-3.23
-4.12
-4.98
-5.66
-6.05
-6.10
-5.81
-5.13
-4.06
-2.60
-0.85
0.96
2.56
3.72
4.38
4.59
4.53
4.34
4.09
3.77
3.31
2.72
2.04
1.34
0.74
0.32
0.16
0.28
0.68
1.29
1.99
2.62
3.08
3.28
3.24
2.96
2.49
1.87
1.13
0.37
-0.33
-0.91
-1.32
-1.60
-1.79
-1.98
-2.22
-2.57
-3.02
-3.55
-4.05
-4.45
-4.73
-4.90
-5.08
-5.36
-5.75
-6.19
-6.53
-6.64
-6.43
-5.88
-5.02
-3.92
-2.62
-1.17
0.39
1.94
3.32
4.32
4.79
4.67
4.09
3.29
2.53
1.99
1.69
1.54
1.44
1.36
1.38
1.56
1.91
2.35
2.71
2.88
2.85
2.72
2.62
2.65
2.74
2.76
2.56
2.09
1.40
0.63
-0.10
-0.70
-1.19
-1.64
-2.11
-2.64
-3.18
-3.67
-4.04
-4.25
-4.31
-4.28
-4.25
-4.30
-4.51
-4.89
-5.41
-5.94
-6.34
-6.44
-6.15
-5.47
-4.47
-3.26
-1.93
-0.60
0.63
1.63
2.33
2.73
2.87
2.87
2.82
2.72
2.56
2.26
1.84
1.40
1.06
0.96
1.12
1.47
1.88
2.21
2.44
2.58
2.71
2.89
3.11
3.34
3.49
3.49
3.30
2.93
2.46
1.98
1.57
1.26
0.99
0.67
0.26
-0.23
-0.73
-1.14
-1.46
-1.72
-2.02
-2.41
-2.91
-3.46
-4.04
-4.63
-5.22
-5.79
-6.18
-6.25
-5.84
-4.92
-3.56
-1.95
-0.27
1.34
2.73
3.79
4.41
4.52
4.21
3.62
3.00
2.51
2.24
2.11
2.02
1.90
1.75
1.68
1.80
2.15
2.67
3.22
3.63
3.79
3.69
3.38
2.94
2.43
1.90
1.36
0.88
0.49
0.23
0.09
-0.03
-0.23
-0.61
-1.19
-1.88
-2.56
-3.12
-3.51
-3.77
-4.01
-4.34
-4.79
-5.34
-5.83
-6.08
-5.94
-5.36
-4.39
-3.18
-1.87
-0.58
0.63
1.70
2.58
3.20
3.52
3.52
3.24
2.73
2.06
1.31
0.61
0.09
-0.13
0.00
0.47
1.14
1.87
2.52
3.00
3.26
3.26
2.97
2.39
1.63
0.83
0.18
-0.20
-0.32
-0.27
-0.20
-0.27
-0.54
-1.06
-1.79
-2.66
-3.58
-4.39
-4.98
-5.31
-5.47
-5.64
-6.00
-6.60
-7.34
-7.94
-8.11
-7.67
-6.61
-5.09
-3.33
-1.53
0.16
1.65
2.88
3.79
4.33
4.52
4.43
4.21
3.99
3.87
3.84
3.87
3.83
3.66
3.34
2.94
2.55
2.29
2.22
2.35
2.61
2.91
3.15
3.28
3.26
3.08
2.76
2.28
1.69
1.02
0.35
-0.28
-0.84
-1.33
-1.79
-2.23
-2.64
-3.02
-3.33
-3.57
-3.74
-3.86
-3.98
-4.18
-4.58
-5.22
-6.04
-6.87
-7.48
-7.66
-7.30
-6.44
-5.18
-3.67
-2.00
-0.26
1.47
3.06
4.37
5.28
5.75
5.82
5.55
5.06
4.44
3.82
3.28
2.95
2.86
3.00
3.28
3.59
3.85
4.06
4.22
4.38
4.48
4.44
4.18
3.67
2.99
2.31
1.79
1.51
1.44
1.44
1.36
1.10
0.64
0.02
-0.69
-1.43
-2.15
-2.77
-3.23
-3.48
-3.54
-3.47
-3.42
-3.53
-3.90
-4.55
-5.39
-6.30
-7.13
-7.73
-7.98
-7.76
-7.00
-5.68
-3.87
-1.74
0.42
2.32
3.72
4.53
4.81
4.75
4.53
4.31
4.15
4.03
3.91
3.74
3.52
3.29
3.15
3.18
3.41
3.80
4.21
4.46
4.45
4.14
3.66
3.14
2.71
2.41
2.20
2.02
1.85
1.67
1.49
1.25
0.90
0.41
-0.17
-0.77
-1.28
-1.68
-2.02
-2.38
-2.78
-3.21
-3.58
-3.84
-4.05
-4.32
-4.78
-5.49
-6.38
-7.27
-7.93
-8.15
-7.81
-6.89
-5.50
-3.80
-1.97
-0.19
1.42
2.77
3.81
4.53
4.91
4.97
4.77
4.38
3.90
3.43
3.03
2.72
2.52
2.42
2.44
2.56
2.74
2.97
3.18
3.35
3.46
3.50
3.48
3.38
3.20
2.93
2.61
2.28
1.98
1.74
1.55
1.35
1.12
0.80
0.38
-0.10
-0.60
-1.06
-1.48
-1.83
-2.12
-2.39
-2.67
-2.99
-3.40
-3.93
-4.59
-5.30
-5.94
-6.32
-6.26
-5.66
-4.54
-3.03
-1.33
0.35
1.86
3.08
3.96
4.49
4.65
4.50
4.10
3.56
2.98
2.47
2.08
1.83
1.73
1.74
1.80
1.87
1.93
1.96
2.03
2.15
2.35
2.60
2.84
2.97
2.93
2.67
2.18
1.51
0.75
0.03
-0.53
-0.91
-1.11
-1.25
-1.42
-1.71
-2.12
-2.57
-3.00
-3.37
-3.73
-4.13
-4.64
-5.27
-5.97
-6.66
-7.26
-7.72
-7.99
-8.01
-7.68
-6.90
-5.62
-3.89
-1.90
0.06
1.71
2.90
3.59
3.89
3.94
3.88
3.76
3.57
3.30
2.95
2.57
2.25
2.07
2.06
2.22
2.52
2.92
3.33
3.68
3.88
3.93
3.84
3.63
3.36
3.01
2.55
1.94
1.25
0.60
0.11
-0.13
-0.20
-0.26
-0.49
-0.96
-1.62
-2.32
-2.93
-3.41
-3.83
-4.30
-4.88
-5.56
-6.29
-6.95
-7.50
-7.89
-8.10
-8.05
-7.63
-6.78
-5.48
-3.85
-2.05
-0.29
1.29
2.62
3.69
4.52
5.11
5.46
5.54
5.34
4.91
4.33
3.70
3.14
2.72
2.47
2.40
2.45
2.57
2.73
2.94
3.23
3.57
3.90
4.10
4.05
3.70
3.12
2.51
2.01
1.74
1.67
1.69
1.64
1.39
0.88
0.13
-0.76
-1.67
-2.48
-3.14
-3.61
-3.94
-4.18
-4.39
-4.64
-4.99
-5.45
-6.05
-6.72
-7.30
-7.61
-7.42
-6.63
-5.25
-3.45
-1.48
0.43
2.09
3.42
4.40
5.04
5.35
5.34
5.04
4.47
3.74
2.96
2.24
1.69
1.38
1.32
1.52
1.94
2.51
3.13
3.70
4.10
4.28
4.24
4.01
3.66
3.26
2.86
2.52
2.23
1.98
1.70
1.32
0.79
0.13
-0.60
-1.29
-1.87
-2.33
-2.72
-3.12
-3.54
-3.98
-4.38
-4.72
-5.04
-5.36
-5.71
-6.00
-6.08
-5.77
-4.98
-3.72
-2.11
-0.34
1.41
3.00
4.31
5.27
5.82
5.94
5.66
5.08
4.31
3.51
2.80
2.30
2.04
2.01
2.13
2.31
2.44
2.50
2.53
2.61
2.79
3.07
3.34
3.45
3.25
2.69
1.85
0.91
0.10
-0.41
-0.60
-0.60
-0.62
-0.89
-1.48
-2.37
-3.38
-4.33
-5.09
-5.64
-6.06
-6.46
-6.91
-7.41
-7.84
-8.04
-7.86
-7.21
-6.13
-4.76
-3.26
-1.75
-0.28
1.13
2.47
3.68
4.65
5.28
5.48
5.26
4.70
3.92
3.06
2.24
1.59
1.18
1.08
1.24
1.59
2.02
2.45
2.82
3.08
3.20
3.12
2.82
2.35
1.82
1.38
1.12
1.04
1.07
1.06
0.88
0.48
-0.14
-0.92
-1.76
-2.56
-3.21
-3.65
-3.89
-4.05
-4.28
-4.72
-5.42
-6.32
-7.23
-7.91
-8.16
-7.83
-6.89
-5.40
-3.50
-1.38
0.73
2.66
4.26
5.45
6.22
6.57
6.51
6.05
5.23
4.13
2.88
1.70
0.80
0.33
0.34
0.72
1.27
1.78
2.12
2.28
2.34
2.39
2.50
2.63
2.71
2.65
2.45
2.10
1.63
1.07
0.45
-0.21
-0.87
-1.43
-1.87
-2.16
-2.36
-2.58
-2.91
-3.40
-4.07
-4.84
-5.60
-6.25
-6.68
-6.83
-6.67
-6.21
-5.47
-4.49
-3.30
-1.96
-0.53
0.92
2.30
3.50
4.42
5.00
5.19
5.06
4.72
4.28
3.86
3.51
3.22
2.96
2.74
2.59
2.53
2.57
2.66
2.73
2.74
2.68
2.60
2.57
2.57
2.57
2.46
2.17
1.71
1.14
0.55
0.03
-0.36
-0.61
-0.73
-0.76
-0.71
-0.69
-0.78
-1.05
-1.57
-2.31
-3.20
-4.11
-4.93
-5.53
-5.81
-5.70
-5.19
-4.27
-3.01
-1.52
0.06
1.57
2.87
3.85
4.47
4.76
4.77
4.56
4.18
3.65
2.97
2.20
1.45
0.85
0.57
0.65
1.04
1.58
2.07
2.36
2.39
2.19
1.90
1.63
1.44
1.32
1.22
1.05
0.78
0.42
0.01
-0.39
-0.79
-1.18
-1.60
-2.08
-2.60
-3.17
-3.79
-4.48
-5.26
-6.10
-6.91
-7.54
-7.85
-7.70
-7.06
-5.98
-4.61
-3.12
-1.67
-0.35
0.81
1.83
2.75
3.54
4.15
4.49
4.53
4.28
3.83
3.29
2.73
2.23
1.81
1.52
1.39
1.44
1.63
1.91
2.18
2.38
2.50
2.53
2.43
2.18
1.77
1.23
0.63
0.09
-0.32
-0.59
-0.82
-1.12
-1.56
-2.14
-2.81
-3.46
-4.01
-4.44
-4.76
-5.04
-5.38
-5.84
-6.46
-7.19
-7.89
-8.35
-8.33
-7.68
-6.37
-4.53
-2.40
-0.27
1.62
3.10
4.12
4.67
4.83
4.66
4.26
3.73
3.18
2.73
2.47
2.45
2.64
2.96
3.27
3.46
3.50
3.41
3.29
3.20
3.16
3.09
2.90
2.51
1.89
1.14
0.40
-0.19
-0.53
-0.64
-0.61
-0.61
-0.78
-1.19
-1.79
-2.44
-2.97
-3.31
-3.48
-3.64
-3.99
-4.66
-5.63
-6.75
-7.77
-8.44
-8.58
-8.10
-7.04
-5.51
-3.68
-1.74
0.15
1.81
3.15
4.12
4.74
5.07
5.18
5.11
4.89
4.54
4.05
3.49
2.98
2.62
2.52
2.72
3.14
3.64
4.06
4.28
4.27
4.05
3.71
3.33
2.97
2.65
2.37
2.12
1.89
1.68
1.47
1.22
0.90
0.47
-0.07
-0.72
-1.47
-2.26
-3.05
-3.77
-4.38
-4.83
-5.15
-5.43
-5.77
-6.24
-6.84
-7.44
-7.83
-7.83
-7.32
-6.33
-5.00
-3.54
-2.09
-0.71
0.61
1.91
3.14
4.18
4.90
5.18
5.01
4.50
3.85
3.26
2.88
2.75
2.83
3.00
3.20
3.36
3.47
3.55
3.63
3.75
3.89
4.05
4.17
4.20
4.10
3.87
3.56
3.18
2.80
2.42
2.04
1.64
1.22
0.79
0.38
0.01
-0.33
-0.69
-1.14
-1.75
-2.52
-3.41
-4.28
-5.02
-5.51
-5.73
-5.71
-5.50
-5.12
-4.55
-3.74
-2.65
-1.31
0.20
1.70
3.04
4.04
4.63
4.77
4.51
3.97
3.26
2.54
1.94
1.56
1.42
1.52
1.78
2.08
2.33
2.46
2.46
2.43
2.44
2.54
2.68
2.75
2.61
2.21
1.58
0.87
0.23
-0.24
-0.55
-0.83
-1.19
-1.71
-2.37
-3.05
-3.65
-4.11
-4.44
-4.69
-4.98
-5.38
-5.93
-6.56
-7.10
-7.30
-6.95
-5.98
-4.50
-2.76
-1.06
0.41
1.64
2.69
3.60
4.34
4.77
4.80
4.43
3.82
3.17
2.62
2.21
1.90
1.66
1.53
1.58
1.89
2.42
3.03
3.52
3.73
3.58
3.10
2.37
1.53
0.68
-0.07
-0.62
-0.95
-1.12
-1.26
-1.54
-2.03
-2.72
-3.47
-4.13
-4.57
-4.79
-4.87
-4.99
-5.25
-5.74
-6.40
-7.10
-7.70
-8.01
-7.92
-7.39
-6.44
-5.19
-3.71
-2.09
-0.40
1.27
2.81
4.10
5.03
5.58
5.80
5.76
5.50
5.04
4.38
3.55
2.69
1.98
1.57
1.53
1.78
2.16
2.50
2.75
2.92
3.08
3.24
3.36
3.35
3.10
2.58
1.86
1.07
0.38
-0.14
-0.48
-0.72
-0.97
-1.29
-1.75
-2.35
-3.08
-3.89
-4.68
-5.34
-5.80
-6.05
-6.22
-6.43
-6.74
-7.03
-7.06
-6.56
-5.41
-3.69
-1.71
0.17
1.66
2.66
3.26
3.63
3.90
4.16
4.35
4.41
4.30
4.03
3.69
3.40
3.22
3.15
3.13
3.10
3.07
3.11
3.27
3.60
4.06
4.54
4.90
5.02
4.86
4.44
3.85
3.17
2.49
1.82
1.19
0.59
0.01
-0.54
-1.06
-1.56
-2.07
-2.64
-3.27
-3.95
-4.62
-5.16
-5.52
-5.66
-5.61
-5.37
-4.91
-4.15
-3.00
-1.46
0.36
2.19
3.74
4.78
5.23
5.15
4.73
4.16
3.61
3.20
2.95
2.87
2.88
2.90
2.84
2.62
2.25
1.80
1.38
1.10
1.02
1.15
1.42
1.71
1.88
1.81
1.46
0.85
0.09
-0.70
-1.42
-2.06
-2.61
-3.10
-3.54
-3.93
-4.28
-4.62
-4.98
-5.40
-5.90
-6.46
-7.05
-7.61
-8.02
-8.15
-7.86
-7.05
-5.73
-4.03
-2.14
-0.26
1.46
2.92
4.06
4.85
5.24
5.24
4.89
4.28
3.59
2.96
2.53
2.41
2.58
2.95
3.37
3.64
3.65
3.43
3.11
2.88
2.85
3.00
3.18
3.21
2.97
2.47
1.81
1.11
0.42
-0.24
-0.90
-1.54
-2.13
-2.59
-2.91
-3.11
-3.31
-3.59
-4.00
-4.54
-5.16
-5.82
-6.46
-7.01
-7.37
-7.39
-6.91
-5.84
-4.21
-2.22
-0.15
1.69
3.09
4.00
4.49
4.69
4.69
4.52
4.20
3.71
3.17
2.69
2.42
2.44
2.72
3.13
3.53
3.81
3.91
3.87
3.74
3.57
3.34
3.07
2.72
2.33
1.91
1.54
1.21
0.93
0.67
0.39
0.03
-0.41
-0.94
-1.52
-2.11
-2.67
-3.18
-3.66
-4.16
-4.74
-5.42
-6.18
-6.92
-7.52
-7.85
-7.78
-7.23
-6.19
-4.72
-2.95
-1.12
0.56
1.92
2.91
3.59
4.02
4.25
4.24
3.96
3.41
2.69
1.99
1.51
1.40
1.65
2.14
2.66
3.04
3.20
3.17
3.05
2.94
2.90
2.87
2.79
2.61
2.35
2.07
1.81
1.52
1.12
0.54
-0.18
-0.92
-1.54
-1.95
-2.16
-2.31
-2.56
-2.98
-3.55
-4.21
-4.84
-5.37
-5.73
-5.87
-5.70
-5.17
-4.24
-2.97
-1.46
0.14
1.67
3.00
4.05
4.75
5.11
5.15
4.90
4.41
3.76
3.06
2.44
2.01
1.83
1.90
2.14
2.42
2.63
2.67
2.55
2.31
2.02
1.75
1.53
1.40
1.33
1.25
1.08
0.74
0.20
-0.45
-1.10
-1.65
-2.02
-2.24
-2.39
-2.59
-2.91
-3.40
-4.04
-4.79
-5.58
-6.34
-6.94
-7.26
-7.19
-6.62
-5.55
-4.08
-2.37
-0.63
0.92
2.14
2.92
3.30
3.34
3.17
2.91
2.65
2.42
2.23
2.05
1.89
1.74
1.66
1.71
1.92
2.27
2.70
3.08
3.29
3.28
3.03
2.66
2.26
1.92
1.66
1.46
1.25
0.97
0.60
0.12
-0.45
-1.08
-1.69
-2.19
-2.55
-2.79
-3.00
-3.30
-3.80
-4.51
-5.36
-6.19
-6.84
-7.21
-7.25
-6.97
-6.38
-5.51
-4.38
-3.04
-1.55
-0.01
1.48
2.79
3.79
4.37
4.48
4.17
3.60
2.97
2.45
2.10
1.91
1.81
1.76
1.80
1.98
2.32
2.81
3.31
3.70
3.91
3.92
3.75
3.46
3.12
2.74
2.37
2.00
1.64
1.24
0.79
0.28
-0.27
-0.81
-1.28
-1.68
-2.05
-2.45
-2.94
-3.50
-4.09
-4.62
-5.03
-5.34
-5.65
-6.06
-6.63
-7.24
-7.65
-7.60
-6.92
-5.64
-3.92
-2.04
-0.22
1.38
2.72
3.81
4.64
5.21
5.49
5.48
5.21
4.75
4.21
3.72
3.39
3.24
3.26
3.36
3.42
3.43
3.45
3.58
3.91
4.42
5.00
5.53
5.90
6.10
6.15
6.06
5.82
5.42
4.89
4.34
3.95
3.89
4.24
5.00
6.06
7.29
8.54
9.64
10.43
10.80
10.73
10.38
10.11
10.44
11.93
14.95
19.55
25.42
32.01
38.63
44.74
50.03
54.42
57.96
60.78
62.94
64.49
65.49
66.01
66.14
65.95
65.47
64.77
63.92
63.07
62.37
61.93
61.74
61.66
61.49
61.01
60.06
58.51
56.28
53.32
49.62
45.22
40.21
34.77
29.12
23.49
18.04
12.85
7.96
3.37
-0.91
-4.83
-8.37
-11.53
-14.42
-17.20
-20.04
-23.09
-26.40
-29.89
-33.46
-36.90
-40.04
-42.69
-44.72
-46.05
-46.72
-46.83
-46.54
-45.98
-45.25
-44.37
-43.37
-42.32
-41.27
-40.26
-39.24
-38.14
-36.84
-35.30
-33.64
-32.04
-30.73
-29.79
-29.16
-28.68
-28.15
-27.45
-26.58
-25.59
-24.59
-23.63
-22.73
-21.94
-21.33
-20.95
-20.81
-20.79
-20.69
-20.32
-19.58
-18.53
-17.39
-16.45
-15.93
-15.91
-16.34
-17.09
-18.02
-19.06
-20.17
-21.31
-22.41
-23.42
-24.36
-25.34
-26.54
-28.07
-29.83
-31.51
-32.69
-33.05
-32.53
-31.38
-30.00
-28.78
-27.84
-27.04
-26.06
-24.62
-22.61
-20.20
-17.71
-15.43
-13.58
-12.22
-11.35
-10.91
-10.79
-10.80
-10.67
-10.05
-8.69
-6.59
-3.96
-1.21
1.23
3.04
4.12
4.54
4.48
4.19
3.88
3.75
3.85
4.11
4.33
4.24
3.70
2.73
1.49
0.22
-0.95
-2.02
-3.12
-4.36
-5.78
-7.31
-8.81
-10.09
-11.00
-11.40
-11.21
-10.38
-8.94
-7.03
-4.86
-2.69
-0.73
0.83
1.96
2.64
2.98
3.11
3.17
3.30
3.50
3.72
3.88
3.90
3.79
3.61
3.40
3.15
2.75
2.04
0.91
-0.62
-2.41
-4.22
-5.81
-7.01
-7.78
-8.21
-8.47
-8.74
-9.15
-9.71
-10.35
-10.97
-11.44
-11.74
-11.88
-11.88
-11.77
-11.60
-11.47
-11.50
-11.80
-12.37
-13.03
-13.41
-13.10
-11.85
-9.65
-6.80
-3.72
-0.86
1.53
3.37
4.77
5.86
6.80
7.66
8.49
9.32
10.16
10.97
11.69
12.24
12.57
12.68
12.62
12.42
12.08
11.51
10.64
9.40
7.84
6.10
4.35
2.72
1.23
-0.21
-1.75
-3.50
-5.54
-7.78
-10.10
-12.35
-14.46
-16.44
-18.33
-20.24
-22.20
-24.29
-26.56
-29.09
-31.89
-34.87
-37.78
-40.24
-41.83
-42.29
-41.55
-39.73
-37.10
-33.85
-30.03
-25.55
-20.25
-14.13
-7.45
-0.82
4.92
8.84
10.23
8.86
5.07
-0.17
-5.52
-9.49
-10.83
-8.87
-3.75
3.52
11.36
18.04
22.24
23.42
21.87
18.42
14.02
9.43
5.06
1.06
-2.50
-5.48
-7.72
-9.06
-9.45
-9.08
-8.24
-7.34
-6.78
-6.88
-7.81
-9.53
-11.84
-14.41
-16.87
-18.86
-20.07
-20.23
-19.16
-16.79
-13.23
-8.82
-4.03
0.57
4.50
7.50
9.53
10.74
11.41
11.80
12.08
12.30
12.44
12.44
12.32
12.17
12.11
12.30
12.78
13.51
14.33
15.03
15.44
15.47
15.15
14.55
13.77
12.89
11.91
10.82
9.59
8.20
6.62
4.85
2.92
0.89
-1.10
-2.91
-4.42
-5.65
-6.75
-7.98
-9.54
-11.42
-13.36
-14.88
-15.46
-14.67
-12.41
-8.81
-4.29
0.69
5.66
10.30
14.41
17.87
20.66
22.77
24.19
24.90
24.94
24.38
23.42
22.33
21.44
20.96
20.95
21.32
21.82
22.25
22.47
22.53
22.62
22.93
23.60
24.63
25.88
27.15
28.19
28.73
28.46
27.10
24.46
20.53
15.59
10.14
4.79
0.09
-3.61
-6.25
-8.00
-9.15
-9.94
-10.47
-10.65
-10.31
-9.29
-7.56
-5.27
-2.75
-0.35
1.60
2.93
3.65
3.89
3.82
3.57
3.24
2.86
2.43
1.96
1.46
0.95
0.49
0.10
-0.22
-0.49
-0.69
-0.84
-0.91
-0.87
-0.73
-0.55
-0.46
-0.60
-1.15
-2.20
-3.80
-5.86
-8.21
-10.65
-12.95
-14.98
-16.69
-18.14
-19.44
-20.73
-22.15
-23.79
-25.67
-27.72
-29.78
-31.60
-32.90
-33.46
-33.20
-32.22
-30.72
-28.90
-26.79
-24.12
-20.33
-14.86
-7.39
1.82
11.83
21.23
28.54
32.73
33.52
31.48
27.71
23.47
19.77
17.16
15.76
15.35
15.63
16.27
17.03
17.73
18.22
18.42
18.26
17.72
16.85
15.72
14.41
12.99
11.50
9.91
8.22
6.39
4.41
2.33
0.24
-1.75
-3.56
-5.17
-6.66
-8.17
-9.84
-11.69
-13.55
-15.02
-15.64
-14.99
-12.92
-9.60
-5.49
-1.17
2.85
6.28
9.11
11.49
13.60
15.51
17.18
18.48
19.33
19.69
19.57
18.91
17.62
15.64
12.99
9.90
6.72
3.84
1.55
0.01
-0.68
-0.52
0.49
2.21
4.29
6.25
7.55
7.89
7.29
6.09
4.73
3.56
2.65
1.87
0.97
-0.20
-1.66
-3.29
-4.93
-6.45
-7.75
-8.77
-9.38
-9.46
-8.88
-7.55
-5.50
-2.90
-0.02
2.83
5.34
7.32
8.72
9.64
10.26
10.75
11.19
11.55
11.72
11.60
11.19
10.60
10.00
9.53
9.29
9.27
9.40
9.56
9.65
9.62
9.49
9.29
9.08
8.86
8.61
8.24
7.67
6.85
5.81
4.62
3.41
2.29
1.30
0.47
-0.27
-1.00
-1.84
-2.91
-4.29
-6.00
-7.92
-9.84
-11.49
-12.58
-12.89
-12.34
-10.98
-8.96
-6.53
-3.92
-1.38
0.92
2.83
4.27
5.24
5.83
6.14
6.30
6.38
6.36
6.16
5.75
5.14
4.50
4.06
4.00
4.39
5.11
5.94
6.63
6.99
6.99
6.67
6.15
5.54
4.90
4.25
3.58
2.86
2.08
1.27
0.49
-0.20
-0.79
-1.32
-1.94
-2.78
-3.91
-5.28
-6.73
-8.02
-8.98
-9.52
-9.61
-9.24
-8.40
-7.04
-5.15
-2.83
-0.28
2.21
4.34
5.92
6.84
7.16
6.98
6.48
5.82
5.20
4.74
4.57
4.68
5.03
5.43
5.73
5.79
5.61
5.26
4.89
4.61
4.46
4.40
4.34
4.22
3.98
3.58
3.01
2.26
1.41
0.56
-0.17
-0.70
-1.10
-1.49
-2.05
-2.88
-3.97
-5.16
-6.27
-7.14
-7.63
-7.71
-7.32
-6.47
-5.14
-3.41
-1.41
0.65
2.54
4.13
5.34
6.18
6.71
6.97
6.98
6.76
6.31
5.68
5.01
4.44
4.11
4.12
4.45
4.96
5.48
5.85
5.99
5.96
5.87
5.85
5.93
6.04
6.05
5.85
5.44
4.90
4.33
3.78
3.20
2.52
1.66
0.64
-0.44
-1.47
-2.40
-3.22
-3.97
-4.72
-5.43
-6.04
-6.43
-6.45
-6.01
-5.08
-3.72
-2.04
-0.24
1.49
3.01
4.26
5.23
5.93
6.35
6.44
6.14
5.44
4.45
3.38
2.44
1.88
1.78
2.11
2.75
3.56
4.42
5.24
5.93
6.39
6.53
6.32
5.81
5.12
4.41
3.80
3.31
2.87
2.34
1.66
0.79
-0.18
-1.16
-2.03
-2.74
-3.28
-3.73
-4.16
-4.65
-5.22
-5.79
-6.22
-6.35
-6.06
-5.36
-4.30
-3.02
-1.62
-0.18
1.28
2.71
4.02
5.10
5.80
6.08
5.96
5.59
5.11
4.65
4.25
3.88
3.51
3.13
2.76
2.51
2.44
2.57
2.88
3.31
3.77
4.13
4.28
4.15
3.73
3.09
2.38
1.75
1.29
0.98
0.76
0.52
0.21
-0.17
-0.57
-0.98
-1.41
-1.91
-2.50
-3.16
-3.82
-4.37
-4.73
-4.83
-4.67
-4.24
-3.58
-2.69
-1.64
-0.47
0.70
1.79
2.70
3.38
3.82
4.04
4.06
3.90
3.57
3.09
2.54
2.06
1.76
1.72
1.90
2.17
2.37
2.39
2.22
1.95
1.70
1.56
1.55
1.61
1.67
1.63
1.46
1.14
0.67
0.06
-0.68
-1.52
-2.39
-3.22
-3.91
-4.42
-4.78
-5.10
-5.51
-6.10
-6.84
-7.58
-8.12
-8.30
-8.01
-7.27
-6.15
-4.74
-3.16
-1.54
-0.00
1.28
2.20
2.70
2.83
2.68
2.42
2.16
1.97
1.85
1.74
1.61
1.44
1.29
1.24
1.35
1.62
2.02
2.47
2.91
3.29
3.62
3.86
3.99
3.97
3.78
3.45
3.01
2.52
1.98
1.34
0.52
-0.49
-1.69
-2.99
-4.26
-5.38
-6.29
-6.92
-7.29
-7.43
-7.35
-7.12
-6.81
-6.48
-6.22
-6.03
-5.87
-5.67
-5.30
-4.70
-3.87
-2.88
-1.87
-0.96
-0.24
0.24
0.53
0.69
0.82
1.00
1.29
1.67
2.09
2.45
2.70
2.80
2.79
2.71
2.58
2.40
2.14
1.78
1.37
0.98
0.73
0.67
0.75
0.88
0.92
0.81
0.57
0.30
0.11
0.03
0.00
-0.11
-0.44
-1.03
-1.82
-2.66
-3.40
-4.00
-4.47
-4.91
-5.36
-5.81
-6.16
-6.26
-6.02
-5.40
-4.46
-3.31
-2.05
-0.78
0.40
1.44
2.27
2.83
3.09
3.05
2.76
2.34
1.89
1.54
1.36
1.38
1.58
1.87
2.18
2.42
2.54
2.50
2.33
2.07
1.76
1.48
1.21
0.95
0.68
0.37
0.09
-0.13
-0.22
-0.20
-0.14
-0.15
-0.29
-0.59
-0.98
-1.36
-1.66
-1.85
-2.00
-2.25
-2.70
-3.39
-4.24
-5.09
-5.71
-5.93
-5.68
-5.01
-4.07
-3.02
-1.98
-1.02
-0.16
0.55
1.05
1.31
1.33
1.24
1.17
1.24
1.46
1.73
1.92
1.95
1.82
1.62
1.46
1.39
1.41
1.48
1.56
1.64
1.72
1.77
1.76
1.65
1.45
1.21
0.96
0.71
0.42
0.08
-0.27
-0.57
-0.76
-0.89
-1.05
-1.37
-1.88
-2.49
-3.06
-3.49
-3.77
-4.02
-4.32
-4.68
-4.95
-4.93
-4.46
-3.55
-2.34
-1.07
0.02
0.80
1.26
1.46
1.49
1.43
1.31
1.15
0.94
0.65
0.30
-0.07
-0.38
-0.53
-0.45
-0.16
0.27
0.75
1.16
1.47
1.63
1.62
1.45
1.10
0.59
-0.02
-0.66
-1.25
-1.74
-2.15
-2.50
-2.84
-3.17
-3.50
-3.80
-4.03
-4.21
-4.32
-4.41
-4.50
-4.60
-4.72
-4.86
-4.98
-5.05
-5.01
-4.82
-4.46
-3.92
-3.19
-2.26
-1.15
0.11
1.41
2.59
3.46
3.90
3.87
3.46
2.81
2.10
1.48
1.04
0.85
0.94
1.29
1.76
2.20
2.42
2.31
1.95
1.50
1.20
1.17
1.38
1.70
1.94
1.97
1.78
1.39
0.84
0.18
-0.54
-1.24
-1.79
-2.11
-2.20
-2.15
-2.14
-2.32
-2.78
-3.50
-4.37
-5.26
-6.03
-6.58
-6.84
-6.79
-6.44
-5.87
-5.16
-4.33
-3.36
-2.22
-0.91
0.50
1.81
2.83
3.41
3.52
3.27
2.81
2.32
1.90
1.60
1.41
1.32
1.35
1.53
1.89
2.38
2.92
3.36
3.57
3.49
3.16
2.71
2.26
1.91
1.66
1.42
1.09
0.62
0.06
-0.47
-0.87
-1.07
-1.09
-1.06
-1.09
-1.29
-1.67
-2.18
-2.77
-3.41
-4.12
-4.93
-5.82
-6.66
-7.22
-7.28
-6.70
-5.48
-3.82
-2.03
-0.40
0.84
1.62
2.02
2.21
2.40
2.70
3.10
3.46
3.59
3.36
2.78
2.05
1.42
1.12
1.23
1.65
2.18
2.61
2.82
2.79
2.60
2.36
2.17
2.10
2.16
2.35
2.61
2.81
2.83
2.56
1.97
1.12
0.15
-0.80
-1.59
-2.19
-2.63
-2.98
-3.28
-3.54
-3.73
-3.77
-3.63
-3.31
-2.80
-2.13
-1.30
-0.32
0.81
2.02
3.24
4.31
5.08
5.44
5.32
4.76
3.91
2.94
2.06
1.44
1.17
1.26
1.59
1.96
2.15
2.02
1.57
0.94
0.34
-0.05
-0.17
-0.15
-0.19
-0.44
-0.91
-1.48
-1.94
-2.16
-2.16
-2.11
-2.18
-2.48
-3.00
-3.59
-4.10
-4.47
-4.74
-5.02
-5.37
-5.71
-5.86
-5.60
-4.78
-3.43
-1.72
0.05
1.62
2.84
3.68
4.15
4.31
4.18
3.77
3.14
2.38
1.67
1.12
0.84
0.82
0.98
1.24
1.54
1.82
2.06
2.21
2.25
2.14
1.89
1.55
1.17
0.80
0.45
0.10
-0.27
-0.65
-1.04
-1.44
-1.86
-2.36
-2.96
-3.63
-4.33
-4.92
-5.34
-5.54
-5.59
-5.57
-5.60
-5.68
-5.78
-5.76
-5.43
-4.72
-3.63
-2.27
-0.83
0.49
1.57
2.33
2.79
2.98
2.95
2.77
2.54
2.35
2.29
2.36
2.52
2.68
2.77
2.79
2.80
2.86
3.01
3.21
3.40
3.46
3.31
2.90
2.27
1.53
0.80
0.22
-0.14
-0.31
-0.39
-0.52
-0.80
-1.24
-1.76
-2.25
-2.63
-2.93
-3.22
-3.63
-4.22
-4.96
-5.73
-6.36
-6.66
-6.54
-5.96
-5.02
-3.82
-2.49
-1.13
0.17
1.37
2.42
3.28
3.92
4.30
4.38
4.17
3.71
3.10
2.51
2.10
1.95
2.09
2.42
2.75
2.92
2.86
2.60
2.30
2.08
2.04
2.17
2.35
2.44
2.32
1.99
1.48
0.91
0.37
-0.11
-0.55
-0.98
-1.41
-1.84
-2.19
-2.44
-2.58
-2.67
-2.82
-3.11
-3.60
-4.26
-4.97
-5.63
-6.11
-6.30
-6.18
-5.72
-4.96
-3.97
-2.79
-1.50
-0.17
1.07
2.10
2.80
3.08
2.98
2.60
2.10
1.65
1.37
1.30
1.39
1.59
1.85
2.13
2.39
2.63
2.81
2.91
2.90
2.79
2.58
2.27
1.87
1.37
0.77
0.09
-0.60
-1.23
-1.70
-1.95
-1.97
-1.79
-1.50
-1.18
-0.93
-0.83
-0.94
-1.26
-1.79
-2.47
-3.20
-3.86
-4.32
-4.46
-4.27
-3.80
-3.17
-2.52
-1.95
-1.42
-0.81
0.05
1.23
2.71
4.28
5.68
6.70
7.28
7.58
7.82
8.27
9.04
10.14
11.49
13.03
14.81
16.95
19.52
22.41
25.29
27.73
29.30
29.84
29.49
28.62
27.70
27.12
27.15
27.87
29.27
31.31
33.86
36.75
39.73
42.57
45.04
47.05
48.57
49.62
50.20
50.33
49.97
49.11
47.80
46.07
43.99
41.61
38.98
36.14
33.13
29.92
26.41
22.41
17.72
12.16
5.66
-1.70
-9.75
-18.15
-26.56
-34.55
-41.76
-47.86
-52.65
-56.05
-58.10
-58.94
-58.76
-57.77
-56.15
-54.07
-51.67
-49.06
-46.26
-43.21
-39.70
-35.50
-30.43
-24.60
-18.41
-12.54
-7.71
-4.51
-3.25
-3.95
-6.48
-10.52
-15.57
-20.89
-25.50
-28.43
-29.03
-27.28
-23.78
-19.52
-15.45
-12.11
-9.56
-7.54
-5.81
-4.29
-3.03
-2.05
-1.06
0.53
3.49
8.42
15.48
24.23
33.73
42.77
50.25
55.43
58.04
58.28
56.62
53.61
49.75
45.40
40.83
36.29
31.98
28.04
24.43
20.94
17.26
13.19
8.78
4.41
0.66
-1.90
-2.93
-2.38
-0.48
2.38
5.73
9.13
12.13
14.36
15.53
15.55
14.42
12.34
9.45
5.85
1.61
-3.24
-8.55
-14.02
-19.18
-23.48
-26.41
-27.71
-27.47
-26.19
-24.62
-23.60
-23.84
-25.67
-29.06
-33.57
-38.45
-42.85
-46.04
-47.59
-47.51
-46.23
-44.33
-42.33
-40.47
-38.67
-36.73
-34.46
-31.92
-29.27
-26.73
-24.29
-21.84
-19.13
-16.04
-12.71
-9.50
-6.88
-5.24
-4.68
-4.96
-5.67
-6.43
-7.07
-7.69
-8.54
-9.87
-11.63
-13.59
-15.34
-16.57
-17.16
-17.26
-17.14
-17.04
-17.15
-17.46
-17.99
-18.66
-19.32
-19.60
-18.93
-16.67
-12.39
-6.18
1.20
8.40
13.86
16.31
15.12
10.62
3.83
-3.77
-10.75
-15.98
-18.92
-19.49
-18.02
-15.07
-11.30
-7.41
-3.96
-1.33
0.41
1.49
2.31
3.28
4.55
6.04
7.44
8.46
8.94
9.00
8.88
8.83
8.97
9.16
9.17
8.62
7.21
4.60
0.54
-5.21
-12.66
-21.47
-30.87
-39.68
-46.60
-50.48
-50.76
-47.54
-41.50
-33.66
-25.04
-16.41
-8.26
-0.88
5.56
10.92
15.15
18.26
20.32
21.40
21.48
20.49
18.32
14.94
10.47
5.17
-0.52
-6.15
-11.25
-15.41
-18.36
-19.98
-20.37
-19.78
-18.53
-16.95
-15.24
-13.48
-11.71
-9.90
-7.96
-5.71
-2.92
0.49
4.28
7.84
10.37
11.21
10.20
7.73
4.65
1.81
-0.31
-1.73
-2.75
-3.58
-4.08
-3.88
-2.89
-1.63
-1.27
-3.05
-7.62
-14.57
-22.62
-30.23
-36.27
-40.49
-43.41
-45.71
-47.52
-48.14
-46.35
-41.14
-32.43
-21.31
-9.68
0.50
7.82
11.83
12.82
11.57
8.93
5.66
2.48
0.13
-0.78
0.01
2.15
4.78
6.81
7.46
6.45
3.90
0.11
-4.54
-9.56
-14.17
-17.38
-18.17
-16.03
-11.19
-4.62
2.38
8.73
13.91
17.96
21.14
23.58
25.13
25.52
24.70
22.96
20.98
19.53
19.12
19.81
21.20
22.65
23.54
23.50
22.43
20.46
17.80
14.68
11.35
8.14
5.41
3.54
2.71
2.83
3.50
4.17
4.33
3.70
2.26
0.18
-2.21
-4.59
-6.63
-7.96
-8.27
-7.31
-5.03
-1.70
2.20
6.13
9.61
12.47
14.77
16.75
18.65
20.56
22.42
24.00
25.02
25.23
24.53
23.01
20.90
18.54
16.26
14.30
12.75
11.59
10.71
10.00
9.36
8.66
7.74
6.41
4.52
2.07
-0.77
-3.72
-6.51
-9.03
-11.35
-13.72
-16.39
-19.44
-22.65
-25.46
-27.13
-26.99
-24.67
-20.25
-14.26
-7.49
-0.76
5.31
10.41
14.43
17.42
19.45
20.61
21.06
21.08
21.03
21.27
22.06
23.43
25.17
26.94
28.39
29.26
29.43
28.88
27.64
25.74
23.21
20.15
16.77
13.31
10.05
7.22
4.94
3.21
1.95
0.97
-0.03
-1.43
-3.62
-6.82
-10.93
-15.46
-19.64
-22.59
-23.58
-22.31
-18.93
-13.98
-8.20
-2.34
3.04
7.57
11.12
13.67
15.27
15.97
15.80
14.84
13.23
11.24
9.18
7.36
6.01
5.26
5.13
5.63
6.74
8.49
10.85
13.70
16.81
19.84
22.42
24.24
25.12
25.00
23.90
21.79
18.62
14.27
8.69
2.00
-5.42
-12.95
-19.80
-25.23
-28.68
-29.89
-28.88
-25.86
-21.18
-15.28
-8.66
-1.90
4.41
9.71
13.60
15.92
16.79
16.54
15.64
14.63
13.99
14.10
15.14
17.04
19.44
21.75
23.35
23.79
22.91
20.92
18.24
15.37
12.68
10.37
8.42
6.74
5.17
3.58
1.89
0.04
-1.94
-3.96
-5.94
-7.84
-9.73
-11.77
-14.08
-16.61
-19.06
-20.95
-21.77
-21.16
-19.06
-15.74
-11.63
-7.26
-3.04
0.74
3.93
6.43
8.11
8.87
8.65
7.50
5.64
3.37
0.98
-1.38
-3.68
-6.00
-8.35
-10.62
-12.60
-14.08
-14.94
-15.21
-15.08
-14.76
-14.48
-14.39
-14.63
-15.26
-16.24
-17.47
-18.77
-19.98
-21.09
-22.21
-23.59
-25.44
-27.79
-30.48
-33.13
-35.31
-36.64
-36.80
-35.56
-32.73
-28.20
-22.01
-14.45
-6.08
2.33
10.03
16.49
21.50
25.26
28.12
30.48
32.50
34.11
35.05
35.11
34.29
32.88
31.32
30.01
29.10
28.44
27.65
26.36
24.33
21.56
18.17
14.33
10.07
5.41
0.35
-4.96
-10.29
-15.43
-20.30
-24.98
-29.63
-34.38
-39.16
-43.74
-47.84
-51.15
-53.45
-54.49
-54.02
-51.77
-47.59
-41.58
-34.15
-25.94
-17.66
-9.91
-3.09
2.61
7.13
10.54
12.99
14.75
16.12
17.37
18.62
19.93
21.24
22.54
23.86
25.24
26.69
28.10
29.34
30.22
30.69
30.76
30.51
29.97
29.11
27.82
26.03
23.73
21.05
18.21
15.46
13.00
10.89
9.05
7.25
5.15
2.41
-1.15
-5.38
-9.74
-13.49
-15.85
-16.38
-15.05
-12.27
-8.60
-4.58
-0.55
3.30
6.83
9.85
12.09
13.34
13.58
13.05
12.14
11.20
10.38
9.63
8.73
7.52
6.01
4.43
3.14
2.49
2.64
3.49
4.73
5.91
6.60
6.50
5.52
3.80
1.64
-0.61
-2.66
-4.37
-5.75
-7.00
-8.33
-9.99
-12.13
-14.78
-17.82
-20.94
-23.77
-25.88
-26.89
-26.57
-24.90
-22.03
-18.35
-14.33
-10.52
-7.37
-5.13
-3.82
-3.24
-3.10
-3.15
-3.26
-3.46
-3.84
-4.43
-5.12
-5.70
-5.87
-5.44
-4.35
-2.78
-1.02
0.61
1.87
2.69
3.09
3.15
2.92
2.39
1.50
0.26
-1.24
-2.89
-4.61
-6.44
-8.48
-10.86
-13.58
-16.46
-19.23
-21.60
-23.38
-24.45
-24.72
-24.07
-22.33
-19.39
-15.32
-10.35
-4.89
0.63
5.86
10.60
14.70
18.06
20.56
22.14
22.81
22.75
22.27
21.70
21.33
21.29
21.55
21.97
22.37
22.60
22.61
22.37
21.98
21.45
20.77
19.84
18.52
16.70
14.36
11.65
8.80
6.09
3.68
1.59
-0.30
-2.21
-4.32
-6.75
-9.52
-12.50
-15.44
-18.00
-19.76
-20.32
-19.44
-17.13
-13.65
-9.45
-5.07
-0.93
2.65
5.58
7.87
9.59
10.85
11.73
12.29
12.56
12.57
12.38
12.07
11.79
11.65
11.75
12.00
12.26
12.31
11.97
11.24
10.21
9.06
7.90
6.73
5.47
4.06
2.46
0.77
-0.83
-2.22
-3.34
-4.25
-5.11
-6.08
-7.27
-8.70
-10.27
-11.77
-12.90
-13.32
-12.75
-11.00
-8.09
-4.26
0.08
4.46
8.40
11.58
13.87
15.27
15.92
15.92
15.32
14.15
12.47
10.43
8.22
6.10
4.21
2.63
1.33
0.23
-0.73
-1.54
-2.10
-2.33
-2.19
-1.80
-1.37
-1.18
-1.44
-2.18
-3.22
-4.21
-4.81
-4.82
-4.32
-3.65
-3.26
-3.52
-4.58
-6.32
-8.37
-10.27
-11.53
-11.83
-11.02
-9.13
-6.39
-3.10
0.38
3.70
6.57
8.82
10.38
11.21
11.31
10.65
9.24
7.11
4.44
1.52
-1.27
-3.60
-5.27
-6.28
-6.80
-7.04
-7.13
-7.13
-6.99
-6.66
-6.14
-5.48
-4.81
-4.26
-3.89
-3.73
-3.75
-3.96
-4.37
-4.99
-5.80
-6.65
-7.40
-7.93
-8.24
-8.47
-8.77
-9.20
-9.62
-9.78
-9.36
-8.22
-6.39
-4.11
-1.68
0.66
2.80
4.65
6.11
7.09
7.48
7.28
6.65
5.80
5.03
4.55
4.49
4.87
5.61
6.53
7.31
7.60
6.96
5.10
1.90
-2.44
-7.45
-12.46
-16.80
-19.96
-21.72
-22.18
-21.69
-20.68
-19.56
-18.56
-17.82
-17.35
-17.16
-17.28
-17.70
-18.31
-18.87
-19.02
-18.41
-16.85
-14.37
-11.24
-7.85
-4.59
-1.68
0.81
2.89
4.58
5.84
6.60
6.83
6.60
6.00
5.19
4.28
3.36
2.47
1.68
1.06
0.70
0.65
0.85
1.19
1.49
1.67
1.70
1.65
1.62
1.68
1.82
1.96
1.97
1.75
1.29
0.66
-0.05
-0.79
-1.63
-2.62
-3.79
-5.05
-6.13
-6.75
-6.66
-5.76
-4.14
-1.99
0.50
3.18
5.95
8.74
11.37
13.65
15.40
16.56
17.17
17.38
17.33
17.12
16.78
16.35
15.87
15.39
14.94
14.49
13.93
13.14
12.02
10.63
9.10
7.64
6.38
5.36
4.48
3.63
2.69
1.61
0.41
-0.84
-2.07
-3.24
-4.28
-5.19
-5.95
-6.57
-7.13
-7.67
-8.24
-8.80
-9.27
-9.48
-9.27
-8.51
-7.17
-5.25
-2.91
-0.33
2.28
4.72
6.83
8.48
9.59
10.12
10.13
9.75
9.17
8.64
8.33
8.37
8.69
9.14
9.54
9.74
9.72
9.57
9.48
9.58
9.87
10.18
10.24
9.81
8.77
7.24
5.45
3.68
2.13
0.90
0.01
-0.56
-0.79
-0.74
-0.49
-0.20
-0.01
0.02
-0.12
-0.33
-0.48
-0.48
-0.30
0.10
0.75
1.70
3.00
4.66
6.58
8.56
10.32
11.61
12.24
12.15
11.40
10.13
8.52
6.74
4.92
3.16
1.59
0.37
-0.41
-0.69
-0.55
-0.19
0.20
0.44
0.50
0.46
0.42
0.45
0.52
0.51
0.33
-0.08
-0.67
-1.35
-2.03
-2.67
-3.22
-3.70
-4.08
-4.33
-4.49
-4.62
-4.84
-5.29
-6.00
-6.92
-7.83
-8.50
-8.67
-8.21
-7.13
-5.54
-3.67
-1.69
0.22
1.91
3.28
4.25
4.78
4.86
4.57
3.99
3.24
2.38
1.42
0.40
-0.63
-1.59
-2.36
-2.88
-3.15
-3.22
-3.19
-3.16
-3.18
-3.25
-3.34
-3.41
-3.46
-3.49
-3.56
-3.71
-3.95
-4.28
-4.67
-5.13
-5.66
-6.28
-6.97
-7.65
-8.23
-8.64
-8.91
-9.14
-9.41
-9.71
-9.92
-9.79
-9.10
-7.69
-5.61
-3.01
-0.14
2.74
5.43
7.77
9.66
11.04
11.87
12.20
12.14
11.86
11.54
11.33
11.28
11.32
11.30
11.08
10.54
9.69
8.67
7.60
6.62
5.75
4.95
4.08
3.04
1.80
0.38
-1.13
-2.67
-4.17
-5.62
-6.95
-8.06
-8.80
-9.05
-8.80
-8.15
-7.35
-6.69
-6.43
-6.67
-7.40
-8.45
-9.60
-10.60
-11.21
-11.28
-10.68
-9.43
-7.61
-5.45
-3.27
-1.41
-0.15
0.40
0.31
-0.20
-0.84
-1.38
-1.77
-2.06
-2.35
-2.68
-2.99
-3.16
-3.08
-2.71
-2.13
-1.48
-0.90
-0.46
-0.21
-0.08
-0.02
0.04
0.17
0.40
0.70
0.96
1.03
0.78
0.18
-0.71
-1.67
-2.51
-3.07
-3.32
-3.32
-3.23
-3.23
-3.45
-3.95
-4.68
-5.50
-6.22
-6.68
-6.72
-6.26
-5.30
-3.90
-2.22
-0.47
1.14
2.40
3.21
3.53
3.41
2.95
2.30
1.58
0.91
0.36
-0.03
-0.24
-0.27
-0.12
0.18
0.60
1.07
1.52
1.89
2.17
2.40
2.63
2.87
3.05
3.10
2.96
2.63
2.20
1.81
1.52
1.31
1.08
0.69
0.06
-0.80
-1.81
-2.81
-3.68
-4.30
-4.60
-4.47
-3.81
-2.55
-0.69
1.63
4.15
6.56
8.64
10.31
11.63
12.69
13.56
14.18
14.43
14.23
13.62
12.80
12.11
11.86
12.19
13.01
14.05
14.96
15.45
15.40
14.83
13.89
12.74
11.45
10.03
8.45
6.69
4.78
2.82
0.95
-0.74
-2.11
-3.09
-3.61
-3.65
-3.29
-2.68
-2.03
-1.46
-0.97
-0.32
0.88
3.08
6.57
11.33
17.02
22.99
28.54
33.12
36.51
38.83
40.41
41.57
42.40
42.67
41.91
39.68
35.87
30.86
25.42
20.48
16.76
14.56
13.69
13.64
13.79
13.70
13.24
12.69
12.54
13.27
15.07
17.76
20.82
23.51
25.18
25.32
23.66
20.14
14.82
7.88
-0.35
-9.42
-18.81
-27.94
-36.37
-43.74
-49.79
-54.18
-56.49
-56.34
-53.55
-48.31
-41.12
-32.83
-24.25
-16.11
-8.85
-2.66
2.41
6.45
9.58
12.04
14.12
16.06
18.03
20.11
22.35
24.83
27.68
30.94
34.47
37.90
40.79
42.79
43.73
43.65
42.66
40.89
38.49
35.71
32.87
30.30
28.19
26.39
24.50
21.99
18.50
13.95
8.56
2.69
-3.30
-9.05
-14.25
-18.64
-22.11
-24.71
-26.76
-28.72
-30.95
-33.62
-36.61
-39.63
-42.37
-44.74
-46.84
-48.86
-50.88
-52.74
-53.95
-53.90
-52.11
-48.44
-43.20
-37.08
-30.98
-25.72
-21.92
-19.81
-19.24
-19.81
-20.97
-22.25
-23.32
-24.05
-24.44
-24.55
-24.42
-23.99
-23.17
-21.84
-19.96
-17.59
-14.86
-11.94
-8.98
-6.15
-3.60
-1.54
-0.09
0.63
0.61
-0.10
-1.41
-3.13
-5.06
-6.88
-8.25
-8.86
-8.63
-7.83
-7.11
-7.36
-9.28
-13.10
-18.41
-24.27
-29.45
-32.85
-33.79
-32.19
-28.63
-24.25
-20.53
-18.69
-19.24
-21.61
-24.38
-25.92
-25.16
-22.10
-17.63
-12.99
-9.09
-6.25
-4.39
-3.44
-3.60
-5.30
-8.78
-13.76
-19.32
-24.14
-27.00
-27.22
-24.81
-20.43
-15.15
-10.06
-5.96
-3.13
-1.30
0.07
1.53
3.42
5.78
8.59
11.84
15.63
19.96
24.57
28.85
31.98
33.31
32.63
30.34
27.24
24.25
22.02
20.83
20.62
21.16
22.22
23.58
25.04
26.35
27.24
27.47
26.90
25.50
23.27
20.31
16.67
12.52
7.99
3.27
-1.51
-6.29
-10.95
-15.32
-19.03
-21.75
-23.19
-23.39
-22.54
-20.86
-18.42
-15.03
-10.53
-5.04
0.86
6.28
10.41
12.85
13.89
14.16
14.32
14.60
14.73
14.22
12.76
10.50
8.03
6.07
5.06
5.00
5.47
5.94
6.04
5.68
4.99
4.08
2.90
1.23
-1.16
-4.37
-8.21
-12.29
-16.17
-19.60
-22.61
-25.54
-28.83
-32.75
-37.16
-41.42
-44.50
-45.39
-43.43
-38.65
-31.72
-23.70
-15.62
-8.17
-1.62
4.02
8.75
12.47
15.03
16.39
16.71
16.31
15.56
14.69
13.74
12.65
11.47
10.40
9.78
9.84
10.56
11.53
12.13
11.76
10.16
7.57
4.52
1.67
-0.62
-2.33
-3.69
-4.95
-6.13
-7.07
-7.59
-7.71
-7.72
-7.98
-8.67
-9.61
-10.24
-9.96
-8.42
-5.65
-2.05
1.90
5.85
9.67
13.39
16.97
20.24
22.90
24.68
25.44
25.19
24.07
22.22
19.79
16.96
14.05
11.42
9.47
8.40
8.16
8.44
8.82
8.97
8.71
8.03
6.89
5.22
2.87
-0.19
-3.82
-7.73
-11.57
-15.14
-18.43
-21.58
-24.72
-27.87
-30.88
-33.52
-35.57
-36.79
-36.91
-35.57
-32.46
-27.37
-20.47
-12.22
-3.37
5.27
13.06
19.56
24.62
28.17
30.27
30.98
30.46
28.97
26.85
24.50
22.18
20.00
17.89
15.74
13.51
11.26
9.20
7.49
6.23
5.28
4.38
3.17
1.41
-0.99
-3.92
-7.12
-10.32
-13.30
-15.99
-18.45
-20.81
-23.25
-25.79
-28.28
-30.33
-31.44
-31.11
-29.12
-25.59
-20.94
-15.72
-10.37
-5.07
0.17
5.38
10.45
15.11
18.98
21.82
23.60
24.48
24.67
24.35
23.65
22.75
21.92
21.48
21.66
22.36
23.19
23.58
23.06
21.49
19.04
16.08
12.81
9.28
5.34
0.93
-3.85
-8.73
-13.41
-17.79
-21.97
-26.23
-30.75
-35.47
-40.04
-43.97
-46.84
-48.33
-48.34
-46.80
-43.83
-39.62
-34.51
-28.93
-23.33
-18.02
-12.89
-7.60
-1.73
4.54
10.58
15.46
18.29
18.63
16.72
13.40
9.90
7.48
6.64
7.51
9.92
13.39
17.13
20.09
21.33
20.48
18.04
14.56
11.06
8.73
8.53
10.60
14.22
17.96
20.20
19.71
15.12
6.25
-5.69
-18.49
-30.19
-40.02
-48.87
-58.99
-66.45
-68.63
-64.74
-56.29
-45.58
-34.36
-23.38
-12.90
-3.10
6.03
13.62
18.79
21.06
20.60
18.01
14.60
11.66
10.01
9.98
10.54
10.46
8.70
4.39
-3.52
-16.00
-31.79
-47.94
-59.56
-61.51
-50.31
-26.01
8.23
43.17
70.43
85.51
88.55
83.46
75.09
67.14
61.27
57.75
56.34
57.74
62.62
70.02
76.82
78.84
71.50
53.01
25.90
-3.79
-28.50
-42.58
-44.73
-37.95
-27.56
-18.57
-13.45
-11.77
-11.45
-10.05
-6.43
-1.22
3.76
6.56
6.05
2.56
-2.20
-6.03
-7.11
-4.82
-0.35
4.07
6.15
4.61
-0.28
-7.15
-14.53
-21.74
-28.36
-34.46
-40.13
-45.08
-48.59
-49.58
-47.29
-41.82
-34.36
-26.88
-21.33
-18.62
-17.89
-16.60
-11.52
-0.18
17.94
40.99
65.35
86.59
100.58
104.41
96.84
78.84
53.65
26.43
2.86
-12.79
-19.57
-20.19
-19.63
-22.38
-29.99
-40.32
-48.99
-51.91
-47.47
-36.96
-23.22
-8.71
5.45
19.15
31.93
42.20
47.40
45.49
36.30
22.13
6.95
-5.28
-12.22
-13.88
-12.20
-9.91
-9.30
-11.39
-15.86
-21.44
-26.52
-29.65
-29.86
-26.78
-20.70
-12.61
-4.00
3.43
8.27
9.96
9.06
7.01
5.58
6.05
8.70
12.72
16.77
19.69
21.00
21.00
20.27
19.20
17.67
15.16
11.22
5.80
-0.45
-6.40
-10.75
-12.54
-11.47
-8.06
-3.53
0.58
2.90
2.75
0.46
-2.81
-5.54
-6.52
-5.33
-2.43
1.25
4.69
7.23
8.60
8.84
8.16
6.95
5.73
5.05
5.35
6.66
8.61
10.51
11.73
11.90
11.04
9.45
7.53
5.71
4.26
3.40
3.21
3.62
4.46
5.48
6.47
7.16
7.31
6.57
4.52
0.93
-4.05
-9.61
-14.45
-17.15
-16.80
-13.41
-8.06
-2.48
1.60
3.24
2.61
0.85
-0.43
0.09
3.07
8.39
15.40
23.23
30.88
37.21
40.88
40.76
36.50
29.16
21.06
14.86
12.16
12.48
13.33
11.50
4.95
-5.82
-17.73
-26.43
-28.33
-22.13
-9.33
6.75
22.29
34.38
41.59
43.83
41.91
36.87
29.69
21.11
11.77
2.37
-6.16
-12.80
-16.82
-18.11
-17.50
-16.42
-16.40
-18.20
-21.37
-24.43
-25.65
-23.98
-19.52
-13.46
-7.32
-2.22
1.59
4.52
7.11
9.63
11.83
13.18
13.19
11.74
9.05
5.59
1.84
-1.79
-4.93
-7.30
-8.71
-9.15
-8.78
-7.96
-7.16
-6.83
-7.33
-8.76
-10.99
-13.69
-16.42
-18.83
-20.82
-22.41
-23.76
-24.95
-25.92
-26.53
-26.70
-26.53
-26.28
-26.23
-26.49
-26.95
-27.37
-27.48
-27.24
-26.70
-25.89
-24.67
-22.72
-19.66
-15.16
-9.20
-2.05
5.70
13.24
19.73
24.45
27.11
27.95
27.71
27.34
27.55
28.50
29.74
30.52
30.22
28.75
26.59
24.54
23.19
22.60
22.24
21.30
19.12
15.41
10.38
4.53
-1.50
-7.06
-11.46
-14.09
-14.48
-12.61
-9.09
-5.04
-1.88
-0.73
-2.15
-5.94
-11.40
-17.64
-23.84
-29.36
-33.67
-36.41
-37.44
-36.93
-35.28
-33.00
-30.37
-27.37
-23.68
-19.02
-13.52
-7.76
-2.59
1.24
3.48
4.35
4.32
3.80
3.01
2.03
1.04
0.41
0.62
1.94
4.24
7.10
9.97
12.50
14.60
16.26
17.36
17.57
16.59
14.45
11.74
9.50
8.87
10.58
14.61
20.04
25.34
28.81
28.99
25.02
16.81
5.08
-8.75
-22.86
-35.29
-44.38
-48.98
-48.66
-43.64
-34.77
-23.32
-10.81
1.33
11.98
20.50
26.87
31.59
35.58
39.79
44.94
51.13
57.79
63.66
67.22
67.05
62.26
52.86
39.64
24.05
7.72
-7.88
-21.66
-33.03
-41.79
-47.95
-51.66
-53.14
-52.75
-51.03
-48.72
-46.63
-45.40
-45.20
-45.72
-46.20
-45.81
-43.93
-40.41
-35.52
-29.79
-23.76
-17.81
-12.18
-7.02
-2.48
1.31
4.21
6.17
7.23
7.47
7.01
5.81
3.72
0.51
-4.01
-9.74
-16.24
-22.63
-27.81
-30.69
-30.48
-26.93
-20.42
-11.82
-2.23
7.20
15.54
22.02
26.09
27.41
25.96
22.17
16.95
11.63
7.51
5.51
5.79
7.69
9.97
11.22
10.28
6.57
0.32
-7.57
-15.68
-22.48
-26.61
-27.27
-24.34
-18.42
-10.61
-2.22
5.61
12.23
17.46
21.44
24.25
25.75
25.65
23.70
20.09
15.50
10.92
7.25
4.94
3.87
3.56
3.52
3.56
3.81
4.46
5.47
6.43
6.72
5.79
3.52
0.33
-3.03
-5.76
-7.36
-7.70
-7.02
-5.72
-4.23
-2.97
-2.34
-2.75
-4.43
-7.31
-11.04
-15.04
-18.79
-21.91
-24.14
-25.20
-24.66
-21.97
-16.75
-9.09
0.26
9.99
18.58
24.60
27.06
25.50
20.17
11.97
2.31
-7.09
-14.67
-19.32
-20.78
-19.47
-16.20
-11.68
-6.25
0.16
7.61
15.66
23.29
29.06
31.83
31.28
28.12
23.71
19.45
16.22
14.11
12.70
11.42
9.94
8.08
5.73
2.65
-1.26
-5.62
-9.23
-10.20
-6.64
2.30
15.73
30.93
44.35
52.86
54.94
51.05
43.16
33.64
24.39
16.32
9.54
3.88
-0.81
-4.58
-7.61
-10.32
-13.24
-16.67
-20.50
-24.19
-27.05
-28.70
-29.21
-29.03
-28.76
-28.84
-29.43
-30.42
-31.60
-32.71
-33.62
-34.36
-35.14
-36.41
-38.61
-41.98
-46.23
-50.53
-53.61
-54.29
-51.90
-46.68
-39.76
-32.68
-26.83
-22.84
-20.41
-18.54
-16.17
-12.73
-8.53
-4.64
-2.25
-2.05
-3.69
-5.85
-6.74
-4.97
-0.11
7.09
15.18
22.76
29.12
34.50
39.87
46.38
54.85
65.43
77.66
90.58
102.91
113.18
119.84
121.54
117.64
108.47
95.46
80.67
66.12
53.12
42.00
32.31
23.38
14.81
6.68
-0.57
-6.48
-10.92
-14.11
-16.51
-18.55
-20.48
-22.44
-24.42
-26.43
-28.42
-30.33
-31.97
-33.12
-33.51
-32.87
-30.99
-27.76
-23.25
-17.71
-11.71
-5.97
-1.21
2.05
3.65
3.83
3.16
2.26
1.76
2.01
3.06
4.68
6.41
7.73
8.21
7.73
6.46
4.78
3.09
1.59
0.25
-1.14
-2.80
-4.80
-7.08
-9.54
-12.03
-14.46
-16.67
-18.43
-19.52
-19.83
-19.52
-19.02
-18.87
-19.50
-21.06
-23.40
-26.18
-29.04
-31.62
-33.63
-34.69
-34.45
-32.63
-29.20
-24.48
-19.06
-13.61
-8.68
-4.62
-1.50
0.71
2.17
3.10
3.84
4.72
5.91
7.19
7.98
7.60
5.68
2.60
-0.52
-2.29
-1.62
1.66
6.91
12.98
18.86
23.96
28.01
30.71
31.55
29.94
25.67
19.31
12.09
5.58
1.04
-0.96
-0.52
1.91
5.84
10.88
16.55
22.06
26.30
28.10
26.71
22.18
15.37
7.75
0.79
-4.44
-7.56
-8.83
-8.86
-8.29
-7.56
-6.86
-6.22
-5.67
-5.38
-5.59
-6.47
-7.89
-9.45
-10.55
-10.82
-10.16
-8.82
-7.15
-5.34
-3.34
-0.95
1.94
5.30
8.92
12.60
16.22
19.73
23.05
25.90
27.87
28.60
27.97
26.18
23.68
20.94
18.22
15.58
12.89
10.04
7.05
4.10
1.42
-0.86
-2.89
-5.00
-7.47
-10.23
-12.70
-14.00
-13.41
-10.88
-7.29
-4.12
-2.88
-4.33
-8.15
-13.03
-17.31
-19.58
-19.27
-16.74
-13.06
-9.54
-7.30
-7.05
-8.92
-12.66
-17.72
-23.35
-28.73
-33.01
-35.44
-35.55
-33.36
-29.38
-24.53
-19.84
-16.15
-13.80
-12.56
-11.92
-11.33
-10.54
-9.72
-9.33
-9.91
-11.70
-14.52
-17.72
-20.43
-21.95
-22.08
-21.28
-20.41
-20.39
-21.64
-23.90
-26.33
-27.88
-27.89
-26.33
-23.73
-20.85
-18.16
-15.59
-12.64
-8.77
-3.78
1.98
7.73
12.68
16.35
18.77
20.39
21.77
23.27
24.79
25.91
26.11
25.20
23.40
21.23
19.26
17.77
16.63
15.50
14.11
12.46
10.87
9.67
9.05
8.88
8.83
8.63
8.19
7.63
7.15
6.79
6.44
5.81
4.63
2.75
0.23
-2.74
-5.90
-8.96
-11.64
-13.59
-14.46
-13.96
-11.99
-8.72
-4.59
-0.13
4.17
8.07
11.59
14.86
17.98
20.83
23.11
24.48
24.74
23.99
22.63
21.26
20.37
20.23
20.69
21.34
21.70
21.46
20.65
19.49
18.33
17.33
16.43
15.43
14.18
12.71
11.26
10.06
9.12
8.15
6.63
4.13
0.62
-3.53
-7.63
-11.11
-13.69
-15.58
-17.23
-19.12
-21.53
-24.43
-27.56
-30.44
-32.46
-33.02
-31.63
-28.15
-22.86
-16.51
-10.02
-4.26
0.30
3.55
5.70
7.09
8.04
8.81
9.56
10.37
11.19
11.92
12.41
12.59
12.51
12.34
12.34
12.69
13.51
14.76
16.34
18.13
20.06
22.12
24.24
26.26
27.90
28.72
28.37
26.70
23.92
20.46
16.83
13.33
10.01
6.81
3.76
1.08
-0.87
-1.89
-2.09
-2.00
-2.26
-3.29
-5.07
-7.10
-8.77
-9.65
-9.72
-9.34
-9.01
-9.07
-9.58
-10.30
-10.98
-11.47
-11.79
-12.12
-12.63
-13.38
-14.32
-15.26
-16.00
-16.32
-16.10
-15.35
-14.25
-13.07
-12.08
-11.42
-11.07
-10.93
-10.87
-10.88
-10.99
-11.25
-11.69
-12.30
-13.14
-14.33
-15.98
-18.05
-20.28
-22.26
-23.56
-24.06
-23.94
-23.61
-23.37
-23.24
-22.90
-21.86
-19.77
-16.55
-12.49
-7.98
-3.45
0.83
4.70
8.06
10.78
12.75
14.02
14.78
15.41
16.31
17.65
19.31
20.88
21.91
22.07
21.33
19.96
18.32
16.76
15.44
14.34
13.36
12.43
11.51
10.65
9.87
9.12
8.30
7.25
5.92
4.34
2.73
1.34
0.37
-0.12
-0.25
-0.27
-0.50
-1.18
-2.50
-4.50
-7.07
-9.85
-12.25
-13.51
-12.91
-10.11
-5.35
0.56
6.44
11.20
14.23
15.51
15.48
14.78
13.83
12.85
11.79
10.61
9.37
8.23
7.35
6.76
6.36
5.96
5.48
5.03
4.81
5.01
5.62
6.48
7.29
7.80
7.84
7.37
6.34
4.77
2.68
0.24
-2.24
-4.38
-5.94
-6.86
-7.33
-7.69
-8.26
-9.28
-10.85
-12.92
-15.29
-17.64
-19.56
-20.59
-20.36
-18.76
-15.95
-12.36
-8.51
-4.89
-1.79
0.64
2.37
3.47
3.99
4.10
3.96
3.87
4.15
5.00
6.38
7.90
8.99
9.07
7.92
5.78
3.35
1.48
0.92
1.98
4.45
7.72
10.93
13.34
14.47
14.23
12.92
11.11
9.37
8.12
7.47
7.26
7.26
7.22
6.99
6.36
5.11
2.97
-0.17
-4.06
-8.05
-11.26
-12.99
-12.99
-11.64
-9.67
-7.84
-6.50
-5.55
-4.46
-2.65
0.18
3.88
7.75
10.81
11.97
10.50
6.22
-0.31
-7.98
-15.49
-21.70
-25.97
-28.15
-28.40
-27.01
-24.29
-20.67
-16.75
-13.33
-11.18
-10.75
-11.89
-13.91
-15.86
-16.97
-17.01
-16.33
-15.54
-15.16
-15.28
-15.51
-15.27
-14.07
-11.76
-8.65
-5.27
-2.11
0.61
3.09
5.81
9.39
14.25
20.55
28.06
36.33
44.89
53.36
61.51
69.09
75.69
80.70
83.48
83.71
81.61
77.91
73.57
69.32
65.40
61.60
57.62
53.46
49.44
46.08
43.53
41.43
38.96
35.21
29.72
22.60
14.39
5.73
-2.95
-11.41
-19.51
-26.99
-33.44
-38.48
-41.94
-44.00
-45.21
-46.31
-48.01
-50.72
-54.31
-58.10
-60.96
-61.69
-59.45
-54.03
-45.91
-36.01
-25.39
-14.94
-5.46
2.33
7.78
10.40
10.14
7.44
3.24
-1.41
-5.60
-8.81
-10.89
-11.84
-11.69
-10.35
-7.73
-3.74
1.45
7.52
13.89
19.96
25.14
29.06
31.59
32.80
32.89
32.07
30.60
28.82
27.20
26.37
26.91
29.07
32.45
35.94
38.01
37.34
33.33
26.26
16.97
6.29
-5.31
-17.79
-30.95
-44.06
-55.73
-64.48
-69.65
-71.86
-72.76
-74.00
-76.13
-78.21
-78.40
-75.21
-68.58
-60.16
-52.46
-47.63
-46.49
-48.37
-51.76
-55.37
-58.79
-62.37
-66.32
-69.82
-70.80
-66.76
-55.97
-38.73
-17.47
4.11
22.50
35.53
42.73
44.72
42.34
36.08
26.21
13.38
-0.94
-14.65
-25.80
-33.54
-38.50
-42.44
-47.31
-54.29
-63.32
-73.11
-81.78
-87.68
-89.98
-88.79
-84.93
-79.27
-72.35
-64.26
-54.89
-44.50
-33.89
-24.36
-17.16
-12.84
-10.89
-9.97
-8.51
-5.45
-0.70
5.15
11.54
18.57
27.31
39.40
56.26
78.35
104.80
133.50
161.60
186.03
203.91
212.96
211.72
199.88
178.43
149.79
117.44
85.24
56.63
33.83
17.58
7.32
1.67
-0.92
-1.78
-1.86
-1.76
-1.77
-1.94
-2.01
-1.45
0.27
3.40
7.48
11.44
13.87
13.61
10.27
4.41
-2.67
-9.34
-14.23
-16.62
-16.54
-14.67
-11.95
-9.21
-6.89
-5.01
-3.49
-2.32
-1.82
-2.44
-4.66
-8.67
-14.38
-21.57
-29.92
-39.10
-48.42
-56.74
-62.44
-63.82
-59.76
-50.29
-36.83
-21.75
-7.72
3.11
9.60
11.64
9.86
5.40
-0.32
-5.73
-9.34
-10.17
-8.18
-4.37
-0.58
1.30
0.00
-4.57
-11.41
-18.76
-24.91
-28.68
-29.70
-28.26
-25.07
-20.85
-16.04
-10.74
-4.95
1.20
7.14
11.87
14.27
13.80
10.86
6.81
3.40
1.99
2.96
5.53
8.22
9.54
8.66
5.65
1.39
-2.96
-6.38
-8.32
-8.73
-7.86
-6.06
-3.50
-0.29
3.44
7.25
10.43
12.28
12.47
11.42
10.19
9.92
11.03
12.90
14.17
13.59
10.88
6.95
3.18
0.43
-1.62
-4.16
-8.16
-13.35
-18.11
-20.37
-19.09
-15.12
-10.87
-8.95
-10.62
-15.13
-20.39
-24.21
-25.42
-24.15
-21.21
-17.49
-13.64
-10.26
-8.22
-8.58
-11.95
-17.90
-24.67
-29.72
-30.91
-27.43
-20.15
-11.07
-2.20
5.20
10.86
15.10
18.25
20.30
20.96
20.09
17.87
14.95
12.20
10.44
10.26
11.92
15.43
20.50
26.62
33.02
38.88
43.47
46.35
47.40
46.74
44.58
41.10
36.52
31.13
25.39
19.80
14.75
10.44
6.78
3.63
0.86
-1.46
-3.17
-4.10
-4.18
-3.53
-2.40
-1.13
-0.01
0.72
0.96
0.82
0.57
0.54
0.96
1.80
2.69
3.13
2.76
1.62
0.23
-0.65
-0.27
1.77
5.43
10.28
15.74
21.22
26.21
30.25
32.91
33.91
33.12
30.75
27.25
23.22
19.17
15.33
11.65
7.94
4.12
0.35
-2.94
-5.20
-5.99
-5.14
-2.83
0.46
4.06
7.30
9.68
11.00
11.30
10.79
9.69
8.11
6.13
3.82
1.44
-0.70
-2.28
-3.16
-3.46
-3.39
-3.03
-2.26
-0.82
1.44
4.22
6.81
8.37
8.30
6.53
3.58
0.22
-2.88
-5.44
-7.63
-9.82
-12.35
-15.30
-18.52
-21.71
-24.56
-26.89
-28.65
-29.84
-30.50
-30.63
-30.22
-29.26
-27.78
-25.85
-23.72
-21.79
-20.58
-20.41
-21.24
-22.45
-23.06
-22.18
-19.51
-15.51
-11.12
-7.17
-3.73
0.04
5.54
13.95
25.38
38.47
50.74
59.35
62.09
58.02
47.55
32.15
13.76
-5.68
-24.42
-40.97
-53.94
-62.04
-64.46
-61.37
-54.23
-45.66
-38.61
-35.25
-36.16
-40.19
-45.01
-48.13
-47.82
-43.61
-36.21
-27.22
-18.56
-11.98
-8.59
-8.58
-11.21
-15.11
-18.79
-21.14
-21.69
-20.39
-17.35
-12.65
-6.47
0.68
7.84
13.83
17.76
19.45
19.50
18.94
18.65
18.94
19.39
19.15
17.28
13.25
7.14
-0.18
-7.33
-12.81
-15.51
-15.14
-12.20
-7.75
-2.87
1.72
5.76
9.29
12.37
15.00
17.16
19.04
21.14
24.07
28.22
33.38
38.65
42.76
44.69
44.24
42.18
39.97
39.18
40.83
45.04
51.11
57.91
64.35
69.68
73.52
75.67
75.92
74.01
69.76
63.32
55.31
46.70
38.52
31.49
25.81
21.25
17.42
14.09
11.35
9.46
8.63
8.79
9.57
10.50
11.16
11.43
11.39
11.19
10.87
10.25
9.04
6.99
4.07
0.54
-3.12
-6.40
-8.98
-10.84
-12.29
-13.73
-15.53
-17.75
-20.24
-22.68
-24.90
-26.94
-29.08
-31.63
-34.70
-38.07
-41.29
-43.89
-45.58
-46.28
-46.14
-45.31
-43.92
-42.12
-40.16
-38.41
-37.28
-37.03
-37.61
-38.80
-40.28
-41.85
-43.45
-45.01
-46.30
-46.92
-46.52
-45.03
-42.84
-40.58
-38.78
-37.54
-36.56
-35.38
-33.86
-32.31
-31.33
-31.43
-32.59
-34.28
-35.67
-36.10
-35.30
-33.37
-30.50
-26.77
-22.14
-16.59
-10.38
-4.11
1.47
5.75
8.50
9.97
10.72
11.34
12.21
13.38
14.57
15.38
15.45
14.56
12.75
10.27
7.47
4.81
2.73
1.65
1.84
3.39
6.08
9.44
12.83
15.63
17.44
18.20
18.16
17.70
17.12
16.56
15.90
14.97
13.64
11.95
10.06
8.22
6.64
5.45
4.73
4.54
4.86
5.59
6.55
7.47
8.18
8.70
9.33
10.51
12.59
15.69
19.64
24.12
28.82
33.62
38.45
43.21
47.60
51.13
53.39
54.28
54.23
54.00
54.31
55.50
57.32
59.03
59.71
58.67
55.59
50.63
44.19
36.82
29.17
21.92
15.78
11.32
8.73
7.64
7.16
6.18
3.71
-0.73
-7.12
-15.03
-23.82
-32.86
-41.50
-49.07
-54.88
-58.29
-58.93
-56.98
-53.20
-48.83
-45.26
-43.63
-44.55
-47.93
-53.14
-59.24
-65.27
-70.42
-74.06
-75.58
-74.45
-70.32
-63.26
-53.92
-43.49
-33.35
-24.60
-17.72
-12.57
-8.60
-5.23
-2.21
0.37
2.26
3.22
3.27
2.64
1.74
0.96
0.58
0.78
1.63
3.06
4.85
6.67
8.04
8.57
8.04
6.45
4.07
1.25
-1.68
-4.43
-6.87
-8.88
-10.45
-11.68
-12.80
-14.02
-15.47
-16.95
-17.99
-17.98
-16.48
-13.41
-9.09
-4.10
1.01
5.86
10.32
14.38
18.07
21.29
23.94
25.93
27.27
28.04
28.36
28.24
27.62
26.40
24.54
22.14
19.47
16.87
14.66
12.99
11.86
11.17
10.73
10.36
9.95
9.38
8.57
7.49
6.13
4.53
2.73
0.73
-1.52
-4.09
-6.98
-10.09
-13.19
-15.92
-17.89
-18.76
-18.33
-16.61
-13.78
-10.18
-6.22
-2.30
1.30
4.44
7.03
9.05
10.49
11.39
11.81
11.90
11.76
11.48
11.07
10.54
9.90
9.23
8.66
8.29
8.13
8.08
8.00
7.77
7.33
6.73
6.01
5.20
4.28
3.19
1.87
0.30
-1.52
-3.58
-5.83
-8.21
-10.61
-12.82
-14.54
-15.44
-15.23
-13.77
-11.13
-7.61
-3.61
0.46
4.27
7.59
10.31
12.33
13.61
14.18
14.16
13.71
13.05
12.33
11.65
11.01
10.40
9.83
9.35
9.03
8.92
9.04
9.30
9.56
9.65
9.40
8.69
7.56
6.13
4.61
3.16
1.83
0.56
-0.77
-2.28
-4.03
-6.00
-8.09
-10.18
-12.06
-13.46
-14.07
-13.64
-12.03
-9.38
-6.01
-2.39
1.07
4.08
6.55
8.48
9.93
10.92
11.43
11.46
11.07
10.38
9.56
8.73
7.99
7.38
6.88
6.48
6.15
5.93
5.80
5.72
5.58
5.20
4.42
3.18
1.54
-0.36
-2.30
-4.17
-5.95
-7.73
-9.61
-11.69
-14.00
-16.52
-19.18
-21.88
-24.42
-26.44
-27.50
-27.17
-25.18
-21.51
-16.44
-10.43
-3.97
2.51
8.73
14.47
19.56
23.79
26.98
29.04
30.06
30.23
29.85
29.14
28.26
27.26
26.15
24.93
23.64
22.36
21.16
20.09
19.19
18.41
17.68
16.86
15.80
14.38
12.57
10.46
8.23
6.10
4.22
2.61
1.23
-0.03
-1.24
-2.46
-3.69
-4.94
-6.20
-7.36
-8.19
-8.42
-7.77
-6.13
-3.64
-0.64
2.43
5.19
7.40
9.00
10.00
10.44
10.34
9.71
8.63
7.26
5.83
4.56
3.66
3.17
3.01
3.03
3.07
3.08
3.08
3.17
3.40
3.72
3.99
4.03
3.67
2.94
1.98
1.00
0.17
-0.44
-0.91
-1.40
-2.04
-2.91
-4.04
-5.38
-6.84
-8.28
-9.54
-10.40
-10.65
-10.13
-8.80
-6.74
-4.16
-1.35
1.41
3.86
5.87
7.40
8.49
9.21
9.57
9.58
9.21
8.46
7.39
6.13
4.86
3.76
2.90
2.31
1.94
1.72
1.61
1.63
1.78
2.05
2.38
2.68
2.82
2.74
2.42
1.91
1.29
0.62
-0.04
-0.73
-1.47
-2.32
-3.36
-4.64
-6.16
-7.86
-9.49
-10.74
-11.25
-10.77
-9.23
-6.80
-3.84
-0.78
1.96
4.12
5.60
6.44
6.80
6.82
6.62
6.24
5.67
4.93
4.09
3.30
2.70
2.41
2.43
2.63
2.82
2.86
2.68
2.32
1.90
1.50
1.15
0.79
0.35
-0.20
-0.82
-1.42
-1.96
-2.46
-2.98
-3.62
-4.43
-5.42
-6.54
-7.73
-8.92
-10.00
-10.82
-11.15
-10.79
-9.67
-7.89
-5.68
-3.36
-1.13
0.90
2.72
4.34
5.67
6.58
6.91
6.62
5.84
4.84
3.95
3.37
3.12
3.07
2.99
2.74
2.28
1.74
1.29
1.08
1.15
1.42
1.73
1.87
1.71
1.18
0.35
-0.62
-1.56
-2.34
-2.92
-3.35
-3.71
-4.11
-4.58
-5.14
-5.78
-6.53
-7.43
-8.43
-9.40
-10.08
-10.18
-9.47
-7.90
-5.61
-2.89
-0.16
2.20
3.96
5.06
5.58
5.71
5.58
5.26
4.78
4.14
3.40
2.64
1.99
1.53
1.27
1.19
1.21
1.31
1.50
1.78
2.11
2.41
2.56
2.48
2.19
1.76
1.29
0.85
0.41
-0.12
-0.83
-1.78
-2.90
-4.06
-5.10
-5.90
-6.47
-6.89
-7.33
-7.90
-8.57
-9.22
-9.57
-9.32
-8.29
-6.45
-3.99
-1.25
1.40
3.64
5.32
6.39
6.88
6.88
6.49
5.80
4.88
3.89
2.98
2.31
1.97
1.92
2.03
2.11
2.03
1.81
1.53
1.35
1.36
1.51
1.68
1.71
1.54
1.14
0.55
-0.19
-1.08
-2.07
-3.11
-4.04
-4.77
-5.24
-5.51
-5.71
-5.99
-6.45
-7.11
-7.88
-8.64
-9.22
-9.44
-9.14
-8.22
-6.70
-4.71
-2.50
-0.33
1.58
3.14
4.32
5.14
5.62
5.77
5.62
5.20
4.63
3.98
3.34
2.73
2.17
1.70
1.40
1.34
1.60
2.15
2.86
3.51
3.92
3.95
3.64
3.09
2.43
1.75
1.04
0.24
-0.71
-1.80
-2.98
-4.14
-5.19
-6.07
-6.73
-7.17
-7.43
-7.54
-7.62
-7.75
-8.02
-8.39
-8.68
-8.65
-8.07
-6.89
-5.25
-3.43
-1.77
-0.47
0.42
0.99
1.40
1.74
2.02
2.19
2.17
1.93
1.46
0.82
0.11
-0.57
-1.10
-1.39
-1.37
-1.07
-0.59
-0.08
0.38
0.74
1.02
1.24
1.37
1.32
1.00
0.34
-0.59
-1.60
-2.45
-2.93
-2.99
-2.71
-2.35
-2.16
-2.36
-3.00
-4.01
-5.21
-6.38
-7.36
-8.02
-8.24
-7.90
-6.89
-5.16
-2.81
-0.12
2.50
4.65
6.09
6.79
6.92
6.74
6.43
6.08
5.64
5.06
4.33
3.53
2.79
2.26
2.00
2.01
2.20
2.42
2.58
2.63
2.58
2.50
2.44
2.34
2.11
1.62
0.82
-0.21
-1.29
-2.18
-2.77
-3.10
-3.33
-3.62
-4.06
-4.59
-5.09
-5.48
-5.84
-6.34
-7.17
-8.36
-9.73
-10.99
-11.87
-12.24
-12.15
-11.79
-11.28
-10.71
-10.04
-9.22
-8.28
-7.34
-6.58
-6.19
-6.31
-6.97
-8.08
-9.50
-10.99
-12.36
-13.43
-14.08
-14.27
-13.95
-13.06
-11.51
-9.26
-6.40
-3.12
0.27
3.52
6.49
9.18
11.67
14.00
16.09
17.79
18.98
19.65
19.94
20.09
20.30
20.64
21.03
21.29
21.23
20.77
19.91
18.80
17.62
16.56
15.82
15.63
16.20
17.68
20.12
23.35
27.01
30.60
33.68
35.93
37.31
37.94
38.10
38.00
37.83
37.65
37.44
37.17
36.74
36.10
35.15
33.87
32.27
30.50
28.76
27.25
26.13
25.42
25.03
24.88
24.96
25.39
26.37
28.07
30.49
33.49
36.82
40.28
43.81
47.53
51.64
56.28
61.42
66.81
72.00
76.35
79.20
79.94
78.19
73.94
67.58
59.79
51.35
42.81
34.41
26.05
17.58
8.98
0.65
-6.74
-12.46
-16.12
-17.96
-18.87
-20.16
-23.13
-28.63
-36.78
-46.92
-57.86
-68.19
-76.66
-82.44
-85.25
-85.38
-83.50
-80.44
-76.97
-73.56
-70.26
-66.75
-62.45
-56.76
-49.29
-40.08
-29.67
-19.01
-9.29
-1.62
3.19
4.74
3.17
-0.88
-6.39
-11.99
-16.34
-18.40
-17.77
-14.78
-10.38
-5.81
-2.09
0.26
1.31
1.60
1.79
2.48
4.03
6.50
9.76
13.64
17.92
22.46
27.14
31.78
36.14
39.81
42.22
42.61
40.20
34.40
25.09
12.75
-1.60
-16.61
-31.01
-43.86
-54.71
-63.44
-70.17
-75.05
-78.22
-79.90
-80.29
-79.62
-77.90
-75.01
-70.72
-64.87
-57.50
-48.85
-39.35
-29.55
-20.19
-12.06
-5.97
-2.49
-1.75
-3.39
-6.64
-10.61
-14.52
-17.92
-20.65
-22.82
-24.62
-26.33
-28.20
-30.37
-32.88
-35.50
-37.83
-39.38
-39.82
-39.06
-37.33
-35.09
-32.81
-30.89
-29.51
-28.67
-28.26
-28.14
-28.22
-28.44
-28.68
-28.79
-28.55
-27.81
-26.58
-25.07
-23.65
-22.72
-22.58
-23.33
-24.83
-26.80
-28.88
-30.75
-32.18
-33.03
-33.26
-32.90
-32.04
-30.80
-29.30
-27.56
-25.53
-23.15
-20.35
-17.18
-13.76
-10.35
-7.20
-4.52
-2.46
-1.06
-0.29
0.03
0.09
0.12
0.20
0.32
0.36
0.27
0.08
-0.01
0.19
0.77
1.61
2.42
2.91
2.95
2.72
2.60
3.05
4.37
6.52
9.17
11.73
13.67
14.64
14.58
13.73
12.50
11.37
10.78
11.07
12.50
15.20
19.22
24.45
30.63
37.21
43.48
48.56
51.71
52.48
50.88
47.39
42.72
37.62
32.63
28.08
24.19
21.32
19.99
20.66
23.55
28.34
34.19
39.89
44.29
46.51
46.15
43.25
38.25
31.83
24.91
18.49
13.42
10.18
8.63
8.03
7.23
5.06
0.75
-5.85
-14.25
-23.53
-32.59
-40.43
-46.30
-49.78
-50.80
-49.57
-46.52
-42.19
-37.14
-31.80
-26.48
-21.28
-16.19
-11.14
-6.08
-1.13
3.44
7.27
10.07
11.68
12.18
11.79
10.77
9.36
7.74
6.06
4.45
2.96
1.57
0.09
-1.66
-3.76
-6.03
-8.07
-9.39
-9.65
-8.88
-7.47
-6.03
-5.13
-5.11
-5.94
-7.38
-9.18
-11.19
-13.48
-16.16
-19.26
-22.55
-25.58
-27.76
-28.67
-28.13
-26.32
-23.70
-20.88
-18.48
-16.96
-16.57
-17.24
-18.62
-20.18
-21.30
-21.50
-20.55
-18.57
-16.06
-13.68
-12.13
-11.79
-12.64
-14.19
-15.68
-16.34
-15.78
-14.10
-11.77
-9.29
-6.90
-4.46
-1.72
1.36
4.33
6.47
7.16
6.35
4.70
3.29
2.93
3.78
5.18
6.17
6.09
4.97
3.50
2.56
2.72
3.93
5.73
7.56
9.12
10.55
12.22
14.46
17.30
20.41
23.26
25.33
26.34
26.33
25.59
24.51
23.39
22.40
21.57
20.92
20.47
20.29
20.43
20.84
21.32
21.61
21.42
20.56
18.99
16.85
14.38
11.88
9.60
7.69
6.09
4.59
2.93
0.87
-1.65
-4.43
-7.06
-9.03
-9.89
-9.40
-7.60
-4.76
-1.29
2.42
6.05
9.38
12.26
14.56
16.18
17.06
17.22
16.80
16.01
15.09
14.18
13.37
12.60
11.85
11.09
10.42
9.96
9.79
9.90
10.13
10.25
10.03
9.35
8.23
6.82
5.32
3.92
2.75
1.81
1.04
0.30
-0.57
-1.67
-3.08
-4.80
-6.77
-8.83
-10.74
-12.17
-12.79
-12.32
-10.67
-7.97
-4.53
-0.78
2.89
6.18
8.94
11.09
12.65
13.66
14.16
14.19
13.84
13.23
12.55
11.95
11.54
11.31
11.15
10.90
10.45
9.82
9.13
8.53
8.09
7.77
7.40
6.81
5.91
4.75
3.45
2.19
1.06
0.04
-0.92
-1.90
-2.94
-4.07
-5.33
-6.75
-8.31
-9.86
-11.10
-11.58
-10.95
-9.03
-5.99
-2.24
1.65
5.22
8.16
10.43
12.05
13.06
13.49
13.33
12.70
11.78
10.80
9.98
9.40
9.02
8.67
8.25
7.69
7.03
6.35
5.77
5.34
5.08
4.90
4.66
4.16
3.26
1.95
0.35
-1.28
-2.69
-3.80
-4.66
-5.45
-6.34
-7.39
-8.51
-9.56
-10.38
-10.87
-10.92
-10.39
-9.12
-6.99
-4.01
-0.37
3.64
7.68
11.51
14.99
18.07
20.71
22.88
24.48
25.38
25.47
24.67
23.05
20.82
18.26
15.69
13.34
11.31
9.61
8.25
7.25
6.68
6.56
6.75
6.99
6.98
6.50
5.50
4.13
2.63
1.19
-0.10
-1.28
-2.43
-3.65
-5.02
-6.59
-8.39
-10.39
-12.46
-14.34
-15.69
-16.15
-15.49
-13.72
-11.02
-7.78
-4.38
-1.15
1.69
4.04
5.88
7.24
8.18
8.78
9.10
9.18
9.06
8.71
8.12
7.28
6.28
5.24
4.30
3.60
3.20
3.12
3.23
3.40
3.46
3.29
2.86
2.24
1.54
0.91
0.40
0.04
-0.22
-0.44
-0.70
-1.06
-1.64
-2.58
-3.96
-5.81
-7.95
-10.00
-11.48
-11.89
-10.95
-8.62
-5.20
-1.19
2.87
6.50
9.40
11.42
12.54
12.81
12.29
11.10
9.42
7.48
5.51
3.71
2.16
0.87
-0.26
-1.35
-2.47
-3.62
-4.71
-5.56
-5.99
-5.88
-5.25
-4.29
-3.34
-2.78
-2.91
-3.82
-5.40
-7.38
-9.43
-11.29
-12.81
-13.95
-14.79
-15.44
-16.03
-16.58
-17.06
-17.34
-17.27
-16.71
-15.62
-14.04
-12.08
-9.88
-7.52
-5.03
-2.41
0.32
3.09
5.72
7.98
9.67
10.66
10.98
10.80
10.36
9.85
9.38
8.87
8.20
7.29
6.16
5.01
4.04
3.37
2.96
2.61
2.11
1.40
0.60
-0.03
-0.25
-0.01
0.52
1.05
1.34
1.26
0.88
0.33
-0.33
-1.09
-2.00
-3.05
-4.05
-4.71
-4.74
-4.01
-2.55
-0.56
1.76
4.31
7.06
10.01
13.07
15.94
18.27
19.71
20.13
19.60
18.43
17.01
15.74
15.01
15.14
16.30
18.47
21.33
24.27
26.47
27.18
25.87
22.34
16.74
9.47
1.08
-7.80
-16.46
-24.17
-30.26
-34.28
-36.05
-35.66
-33.44
-29.83
-25.26
-20.12
-14.76
-9.40
-4.14
1.10
6.58
12.62
19.53
27.40
36.07
45.16
54.21
62.82
70.73
77.78
83.82
88.66
92.04
93.77
93.83
92.34
89.43
85.19
79.61
72.71
64.74
56.28
48.06
40.74
34.62
29.49
24.84
20.20
15.38
10.58
6.19
2.45
-0.77
-3.95
-7.72
-12.53
-18.45
-25.14
-32.01
-38.50
-44.20
-48.90
-52.48
-54.87
-56.01
-55.94
-54.91
-53.37
-51.84
-50.62
-49.72
-48.81
-47.42
-45.38
-42.95
-40.84
-39.93
-40.77
-43.23
-46.49
-49.30
-50.45
-49.26
-45.71
-40.36
-34.07
-27.66
-21.78
-16.75
-12.58
-9.09
-6.00
-3.03
-0.05
3.10
6.59
10.72
15.76
21.73
28.28
34.56
39.50
42.22
42.35
40.17
36.39
31.81
26.97
22.05
16.95
11.54
5.88
0.18
-5.22
-10.06
-14.19
-17.64
-20.43
-22.48
-23.57
-23.34
-21.57
-18.39
-14.30
-10.10
-6.61
-4.32
-3.27
-2.98
-2.78
-2.11
-0.79
0.95
2.58
3.56
3.56
2.46
0.32
-2.71
-6.46
-10.62
-14.80
-18.52
-21.33
-22.98
-23.58
-23.47
-23.23
-23.50
-24.72
-27.10
-30.47
-34.37
-38.18
-41.36
-43.58
-44.75
-44.97
-44.35
-42.96
-40.82
-38.09
-35.11
-32.27
-29.91
-28.10
-26.64
-25.20
-23.58
-21.81
-20.13
-18.80
-17.90
-17.29
-16.73
-16.04
-15.26
-14.57
-14.15
-13.99
-13.92
-13.61
-12.91
-11.86
-10.75
-9.96
-9.74
-10.15
-11.08
-12.38
-13.92
-15.66
-17.53
-19.41
-21.10
-22.45
-23.44
-24.28
-25.32
-26.84
-28.92
-31.29
-33.43
-34.80
-35.04
-34.10
-32.20
-29.67
-26.83
-23.87
-20.88
-17.93
-15.18
-12.84
-11.19
-10.39
-10.40
-11.01
-11.86
-12.51
-12.62
-12.01
-10.71
-8.93
-6.94
-4.96
-3.01
-0.90
1.66
4.92
8.89
13.27
17.54
21.11
23.59
24.93
25.40
25.47
25.54
25.76
25.98
25.91
25.28
24.09
22.65
21.44
20.92
21.26
22.28
23.50
24.35
24.38
23.37
21.37
18.63
15.47
12.29
9.55
7.68
7.05
7.70
9.33
11.24
12.51
12.42
10.67
7.66
4.37
1.94
1.18
2.21
4.43
6.87
8.71
9.68
10.12
10.68
11.83
13.57
15.46
16.86
17.39
17.05
16.17
15.14
14.22
13.47
12.91
12.56
12.54
13.05
14.26
16.27
19.01
22.26
25.64
28.82
31.67
34.45
37.71
41.88
46.80
51.53
54.65
54.97
52.29
47.59
42.54
38.55
36.01
34.17
31.78
27.94
22.68
16.90
11.74
7.85
5.09
2.73
0.03
-3.34
-7.12
-10.72
-13.61
-15.61
-16.97
-18.17
-19.63
-21.40
-23.26
-24.85
-25.98
-26.70
-27.15
-27.29
-26.69
-24.72
-20.98
-15.70
-9.80
-4.52
-0.75
1.44
2.81
4.44
7.15
11.09
15.77
20.46
24.64
28.13
31.03
33.51
35.70
37.74
39.86
42.24
44.88
47.37
48.98
48.99
47.18
44.06
40.76
38.49
37.96
39.02
40.73
41.78
41.07
38.10
33.07
26.55
19.23
11.53
3.59
-4.70
-13.47
-22.69
-32.02
-40.91
-48.74
-55.10
-59.93
-63.46
-66.12
-68.27
-70.16
-71.88
-73.54
-75.27
-77.20
-79.31
-81.15
-81.83
-80.29
-75.86
-68.87
-60.77
-53.59
-49.05
-47.58
-48.14
-48.78
-47.80
-44.58
-39.70
-34.27
-28.92
-23.33
-16.49
-7.59
3.16
14.46
24.55
32.15
37.12
40.29
42.78
45.28
47.78
49.78
50.88
51.17
51.28
52.02
53.96
57.27
61.71
66.92
72.42
77.59
81.46
82.78
80.33
73.46
62.45
48.51
33.29
18.26
4.37
-7.95
-18.45
-26.83
-32.74
-36.13
-37.62
-38.52
-40.38
-44.25
-50.10
-56.75
-62.46
-65.67
-65.72
-62.95
-58.36
-53.09
-47.95
-43.26
-38.96
-34.77
-30.38
-25.58
-20.39
-15.13
-10.44
-7.13
-5.83
-6.71
-9.30
-12.75
-16.16
-18.98
-21.09
-22.62
-23.65
-24.07
-23.71
-22.62
-21.33
-20.81
-22.21
-26.34
-33.25
-42.07
-51.16
-58.62
-62.91
-63.39
-60.48
-55.37
-49.34
-43.21
-36.96
-30.01
-21.72
-11.83
-0.63
11.37
23.83
36.75
50.33
64.51
78.72
91.91
102.90
110.84
115.43
116.85
115.40
111.19
104.22
94.53
82.56
69.18
55.53
42.69
31.29
21.47
12.94
5.22
-2.08
-9.17
-16.02
-22.43
-28.03
-32.36
-34.91
-35.29
-33.39
-29.47
-24.20
-18.49
-13.27
-9.27
-6.85
-5.93
-6.06
-6.54
-6.71
-6.15
-4.89
-3.36
-2.20
-1.97
-2.82
-4.45
-6.24
-7.61
-8.25
-8.26
-8.08
-8.25
-9.16
-11.01
-13.72
-17.06
-20.67
-24.13
-27.01
-28.96
-29.84
-29.71
-28.85
-27.53
-25.89
-23.80
-20.96
-17.13
-12.32
-6.91
-1.44
3.59
7.96
11.62
14.60
16.69
17.55
16.90
14.87
12.18
9.91
9.02
9.84
11.89
14.17
15.69
15.97
15.23
14.09
13.14
12.60
12.22
11.60
10.42
8.71
6.75
4.91
3.39
2.21
1.32
0.67
0.38
0.63
1.49
2.78
4.08
4.91
5.09
4.86
4.88
5.84
8.07
11.17
14.19
15.98
15.79
13.66
10.40
7.19
4.97
4.00
3.79
3.42
2.06
-0.58
-4.18
-7.92
-10.93
-12.59
-12.73
-11.57
-9.46
-6.78
-3.88
-1.10
1.13
2.38
2.40
1.37
-0.02
-0.80
0.08
3.29
9.07
17.07
26.49
36.18
44.78
50.98
53.84
53.13
49.42
43.94
38.04
32.67
28.03
23.64
18.72
12.66
5.41
-2.53
-10.33
-17.17
-22.49
-26.03
-27.79
-27.86
-26.42
-23.85
-20.87
-18.54
-17.97
-19.75
-23.54
-28.01
-31.39
-32.33
-30.58
-27.07
-23.30
-20.46
-18.72
-17.31
-15.07
-11.32
-6.23
-0.72
4.07
7.37
8.98
9.07
7.87
5.52
2.17
-1.79
-5.69
-8.69
-10.13
-9.81
-8.04
-5.43
-2.49
0.53
3.65
7.01
10.66
14.51
18.35
21.92
24.90
26.88
27.37
25.98
22.68
17.95
12.81
8.37
5.45
4.22
4.16
4.39
4.19
3.23
1.73
0.21
-0.85
-1.25
-1.09
-0.74
-0.56
-0.79
-1.45
-2.34
-3.24
-3.98
-4.61
-5.35
-6.48
-8.17
-10.35
-12.66
-14.64
-15.87
-16.12
-15.46
-14.10
-12.32
-10.36
-8.44
-6.71
-5.29
-4.13
-2.97
-1.35
1.18
4.78
9.09
13.24
16.17
16.99
15.35
11.56
6.38
0.75
-4.54
-8.90
-11.92
-13.28
-12.89
-10.97
-8.21
-5.59
-4.06
-4.04
-5.16
-6.47
-6.88
-5.74
-3.18
0.05
2.94
4.83
5.72
6.23
7.31
9.77
13.91
19.37
25.17
29.95
32.37
31.46
26.93
19.30
9.80
-0.03
-8.75
-15.51
-20.26
-23.67
-26.73
-30.26
-34.52
-39.17
-43.39
-46.31
-47.25
-45.90
-42.33
-36.99
-30.70
-24.44
-19.16
-15.42
-13.24
-12.05
-11.10
-9.78
-7.85
-5.47
-2.84
-0.06
2.94
6.19
9.41
11.94
12.97
11.91
8.70
3.89
-1.48
-6.26
-9.47
-10.61
-9.66
-7.11
-3.63
0.07
3.44
6.21
8.32
9.83
10.84
11.44
11.72
11.79
11.79
11.91
12.33
13.22
14.62
16.38
18.12
19.22
19.10
17.44
14.43
10.84
7.80
6.35
7.01
9.51
12.88
15.80
17.08
16.03
12.62
7.30
0.82
-6.02
-12.46
-17.80
-21.38
-22.67
-21.40
-17.72
-12.24
-5.93
0.19
5.41
9.52
12.79
15.69
18.52
21.18
23.23
24.14
23.65
21.99
19.72
17.50
15.78
14.61
13.76
12.97
12.14
11.40
10.98
11.03
11.41
11.75
11.54
10.33
7.89
4.22
-0.43
-5.67
-10.99
-15.81
-19.58
-21.87
-22.55
-21.76
-19.94
-17.58
-15.07
-12.62
-10.24
-7.96
-5.89
-4.31
-3.54
-3.72
-4.70
-6.11
-7.41
-8.17
-8.12
-7.19
-5.41
-2.90
0.18
3.52
6.72
9.35
11.05
11.69
11.40
10.46
9.16
7.73
6.18
4.47
2.48
0.12
-2.64
-5.82
-9.39
-13.23
-17.08
-20.54
-23.13
-24.45
-24.37
-23.05
-20.94
-18.54
-16.17
-13.84
-11.30
-8.22
-4.42
-0.07
4.41
8.48
11.81
14.33
16.28
18.00
19.85
22.00
24.50
27.28
30.19
33.01
35.49
37.40
38.60
39.19
39.48
39.82
40.42
41.09
41.32
40.47
38.14
34.41
29.83
25.20
21.18
18.04
15.63
13.56
11.45
9.14
6.67
4.19
1.78
-0.65
-3.28
-6.34
-9.98
-14.18
-18.76
-23.35
-27.52
-30.85
-33.06
-34.09
-34.10
-33.44
-32.46
-31.42
-30.44
-29.52
-28.71
-28.14
-28.01
-28.49
-29.53
-30.90
-32.18
-33.01
-33.28
-33.14
-32.85
-32.54
-32.02
-30.71
-27.79
-22.62
-14.94
-5.16
5.71
16.30
25.29
31.67
35.04
35.54
33.69
30.14
25.47
20.13
14.56
9.23
4.73
1.56
0.02
0.01
1.02
2.31
3.16
3.04
1.73
-0.71
-4.03
-7.80
-11.40
-14.01
-14.80
-13.08
-8.71
-2.23
5.17
12.08
17.26
20.15
20.98
20.67
20.41
21.18
23.47
27.13
31.54
35.83
39.13
40.74
40.27
37.63
33.03
26.94
19.99
12.84
6.07
0.12
-4.82
-8.73
-11.74
-13.97
-15.42
-15.91
-15.08
-12.55
-8.19
-2.37
3.88
9.13
11.91
11.25
7.04
0.09
-8.16
-16.14
-22.59
-26.80
-28.67
-28.50
-26.79
-24.06
-20.84
-17.63
-14.94
-13.20
-12.66
-13.28
-14.64
-16.06
-16.76
-16.17
-14.09
-10.73
-6.62
-2.40
1.38
4.32
6.21
6.92
6.38
4.58
1.62
-2.19
-6.37
-10.28
-13.31
-15.06
-15.45
-14.70
-13.21
-11.39
-9.51
-7.74
-6.15
-4.89
-4.20
-4.30
-5.32
-7.13
-9.37
-11.53
-13.15
-14.02
-14.17
-13.84
-13.29
-12.67
-11.95
-11.03
-9.75
-8.05
-5.97
-3.61
-1.13
1.32
3.61
5.61
7.21
8.33
8.95
9.15
9.06
8.87
8.78
8.95
9.44
10.18
10.97
11.55
11.66
11.17
10.12
8.72
7.25
5.93
4.89
4.11
3.49
2.87
2.07
0.91
-0.73
-2.87
-5.40
-8.10
-10.62
-12.60
-13.80
-14.13
-13.59
-12.33
-10.47
-8.14
-5.46
-2.54
0.49
3.49
6.31
8.79
10.83
12.32
13.25
13.59
13.34
12.52
11.18
9.43
7.45
5.47
3.68
2.22
1.07
0.15
-0.70
-1.59
-2.53
-3.47
-4.30
-4.92
-5.35
-5.67
-6.00
-6.43
-6.93
-7.40
-7.72
-7.85
-7.87
-7.89
-8.03
-8.26
-8.44
-8.37
-7.82
-6.67
-4.88
-2.52
0.22
3.06
5.70
7.86
9.39
10.30
10.69
10.71
10.49
10.06
9.44
8.66
7.77
6.87
6.06
5.43
4.97
4.69
4.53
4.43
4.30
4.06
3.70
3.22
2.72
2.30
1.99
1.75
1.48
1.05
0.36
-0.64
-1.96
-3.56
-5.33
-7.08
-8.53
-9.35
-9.33
-8.41
-6.73
-4.58
-2.26
-0.02
1.95
3.54
4.64
5.20
5.22
4.82
4.13
3.30
2.39
1.34
0.10
-1.30
-2.72
-3.93
-4.77
-5.16
-5.17
-4.95
-4.63
-4.30
-4.02
-3.83
-3.80
-4.03
-4.56
-5.33
-6.21
-7.04
-7.67
-8.03
-8.19
-8.25
-8.35
-8.50
-8.60
-8.43
-7.74
-6.35
-4.24
-1.57
1.41
4.42
7.23
9.66
11.60
12.94
13.58
13.51
12.82
11.73
10.53
9.49
8.74
8.27
7.91
7.50
6.95
6.31
5.69
5.20
4.85
4.53
4.08
3.36
2.34
1.11
-0.21
-1.50
-2.71
-3.82
-4.84
-5.83
-6.88
-8.07
-9.44
-10.90
-12.23
-13.11
-13.23
-12.40
-10.62
-8.06
-4.99
-1.70
1.55
4.57
7.18
9.27
10.77
11.65
11.96
11.80
11.29
10.60
9.88
9.27
8.81
8.49
8.23
7.95
7.57
7.08
6.50
5.87
5.22
4.57
3.92
3.27
2.57
1.78
0.86
-0.24
-1.54
-3.04
-4.74
-6.60
-8.55
-10.46
-12.11
-13.24
-13.57
-12.95
-11.37
-8.98
-6.08
-3.03
-0.15
2.31
4.19
5.46
6.17
6.42
6.35
6.05
5.58
4.95
4.20
3.38
2.61
2.05
1.81
1.94
2.41
3.10
3.89
4.64
5.23
5.58
5.66
5.50
5.16
4.68
4.08
3.30
2.24
0.84
-0.94
-3.03
-5.24
-7.30
-8.91
-9.81
-9.80
-8.87
-7.10
-4.66
-1.79
1.27
4.28
7.00
9.22
10.73
11.45
11.41
10.72
9.57
8.15
6.57
4.94
3.33
1.85
0.58
-0.38
-1.03
-1.42
-1.65
-1.84
-2.05
-2.33
-2.68
-3.06
-3.49
-4.00
-4.68
-5.59
-6.78
-8.24
-9.88
-11.59
-13.24
-14.72
-15.95
-16.82
-17.18
-16.81
-15.50
-13.14
-9.78
-5.74
-1.49
2.44
5.68
8.07
9.64
10.54
10.93
10.86
10.33
9.39
8.22
7.08
6.29
6.08
6.49
7.33
8.23
8.84
8.85
8.13
6.72
4.72
2.33
-0.24
-2.81
-5.20
-7.28
-8.93
-10.15
-10.98
-11.52
-11.91
-12.27
-12.72
-13.29
-13.95
-14.57
-14.93
-14.77
-13.80
-11.85
-8.88
-5.04
-0.64
3.88
8.11
11.72
14.54
16.53
17.75
18.30
18.25
17.67
16.60
15.11
13.30
11.39
9.57
8.06
6.96
6.27
5.87
5.55
5.13
4.46
3.48
2.21
0.74
-0.85
-2.48
-4.05
-5.47
-6.63
-7.51
-8.11
-8.58
-9.10
-9.83
-10.84
-12.01
-13.10
-13.74
-13.60
-12.45
-10.23
-7.07
-3.29
0.74
4.63
8.02
10.71
12.57
13.61
13.90
13.61
12.92
12.00
11.02
10.04
9.06
8.04
6.93
5.77
4.69
3.87
3.45
3.46
3.78
4.17
4.40
4.32
3.90
3.19
2.24
1.11
-0.18
-1.60
-3.06
-4.48
-5.80
-7.02
-8.19
-9.33
-10.35
-11.06
-11.21
-10.56
-9.04
-6.74
-3.86
-0.70
2.50
5.53
8.23
10.45
12.05
12.88
12.88
12.09
10.73
9.15
7.71
6.67
6.09
5.88
5.84
5.77
5.57
5.21
4.77
4.31
3.88
3.49
3.13
2.76
2.39
1.96
1.39
0.60
-0.55
-2.07
-3.95
-6.09
-8.42
-10.90
-13.51
-16.14
-18.54
-20.32
-21.06
-20.51
-18.69
-15.88
-12.49
-8.88
-5.28
-1.82
1.38
4.11
6.13
7.20
7.26
6.41
4.95
3.23
1.61
0.34
-0.45
-0.79
-0.82
-0.72
-0.63
-0.58
-0.51
-0.36
-0.11
0.13
0.18
-0.11
-0.78
-1.71
-2.66
-3.37
-3.72
-3.76
-3.70
-3.80
-4.31
-5.34
-6.81
-8.43
-9.81
-10.51
-10.21
-8.83
-6.45
-3.35
0.18
3.83
7.32
10.42
12.89
14.58
15.39
15.41
14.79
13.78
12.57
11.25
9.85
8.36
6.83
5.36
4.12
3.22
2.71
2.44
2.17
1.67
0.78
-0.46
-1.83
-3.10
-4.08
-4.75
-5.26
-5.80
-6.55
-7.57
-8.84
-10.27
-11.78
-13.23
-14.50
-15.37
-15.57
-14.88
-13.19
-10.58
-7.29
-3.70
-0.16
3.00
5.57
7.45
8.67
9.29
9.44
9.21
8.69
7.98
7.19
6.46
5.91
5.66
5.69
5.86
5.99
5.89
5.46
4.75
3.86
2.93
2.03
1.20
0.43
-0.34
-1.15
-2.03
-2.99
-4.03
-5.13
-6.29
-7.50
-8.78
-10.08
-11.29
-12.19
-12.52
-12.02
-10.57
-8.29
-5.45
-2.41
0.49
3.04
5.13
6.67
7.59
7.79
7.23
5.95
4.14
2.11
0.22
-1.27
-2.26
-2.81
-3.08
-3.22
-3.32
-3.37
-3.30
-3.03
-2.57
-1.99
-1.45
-1.11
-1.08
-1.37
-1.93
-2.68
-3.51
-4.35
-5.14
-5.89
-6.65
-7.55
-8.70
-10.10
-11.55
-12.69
-13.04
-12.25
-10.19
-7.04
-3.24
0.72
4.37
7.41
9.74
11.32
12.21
12.52
12.36
11.90
11.29
10.69
10.15
9.66
9.16
8.57
7.85
7.06
6.30
5.71
5.42
5.45
5.68
5.93
6.02
5.83
5.38
4.77
4.12
3.51
2.89
2.20
1.35
0.30
-0.92
-2.26
-3.63
-4.98
-6.23
-7.25
-7.86
-7.83
-6.98
-5.22
-2.69
0.31
3.37
6.10
8.22
9.63
10.38
10.57
10.28
9.56
8.45
7.02
5.40
3.76
2.28
1.06
0.14
-0.48
-0.85
-1.03
-1.10
-1.17
-1.34
-1.69
-2.22
-2.88
-3.56
-4.18
-4.71
-5.18
-5.65
-6.16
-6.74
-7.39
-8.15
-9.07
-10.16
-11.38
-12.53
-13.34
-13.54
-12.91
-11.44
-9.28
-6.67
-3.84
-0.98
1.80
4.40
6.72
8.65
10.11
11.05
11.47
11.41
10.90
10.05
8.99
7.91
7.01
6.37
5.96
5.68
5.39
5.04
4.68
4.38
4.11
3.77
3.17
2.18
0.82
-0.72
-2.17
-3.32
-4.11
-4.66
-5.19
-5.94
-7.02
-8.42
-9.96
-11.35
-12.29
-12.48
-11.77
-10.16
-7.82
-5.05
-2.18
0.51
2.83
4.69
6.03
6.80
6.98
6.59
5.73
4.63
3.50
2.56
1.93
1.61
1.51
1.52
1.53
1.49
1.39
1.23
1.05
0.85
0.61
0.31
-0.08
-0.58
-1.16
-1.73
-2.27
-2.76
-3.27
-3.89
-4.65
-5.56
-6.57
-7.67
-8.80
-9.89
-10.74
-11.11
-10.69
-9.28
-6.86
-3.64
0.00
3.62
6.79
9.26
10.90
11.72
11.85
11.44
10.63
9.55
8.31
7.02
5.80
4.79
4.06
3.63
3.45
3.47
3.66
3.97
4.38
4.78
5.03
4.94
4.40
3.43
2.14
0.74
-0.57
-1.69
-2.61
-3.42
-4.26
-5.27
-6.56
-8.17
-10.05
-12.00
-13.68
-14.69
-14.64
-13.34
-10.83
-7.43
-3.61
0.15
3.49
6.20
8.19
9.48
10.13
10.26
10.00
9.53
8.98
8.44
7.95
7.49
7.06
6.65
6.27
5.97
5.79
5.81
6.02
6.31
6.51
6.37
5.74
4.59
3.13
1.64
0.41
-0.43
-0.94
-1.30
-1.75
-2.48
-3.53
-4.86
-6.34
-7.75
-8.83
-9.29
-8.90
-7.52
-5.22
-2.26
1.00
4.10
6.69
8.49
9.37
9.32
8.45
6.98
5.14
3.22
1.41
-0.15
-1.38
-2.26
-2.80
-3.02
-2.99
-2.83
-2.69
-2.75
-3.10
-3.75
-4.63
-5.63
-6.65
-7.63
-8.56
-9.43
-10.22
-10.92
-11.54
-12.16
-12.91
-13.81
-14.82
-15.71
-16.16
-15.88
-14.70
-12.61
-9.80
-6.50
-3.03
0.32
3.29
5.70
7.42
8.44
8.80
8.60
7.96
7.00
5.89
4.81
3.97
3.55
3.64
4.20
5.08
6.09
7.03
7.74
8.09
8.00
7.42
6.32
4.76
2.87
0.92
-0.80
-2.04
-2.70
-2.87
-2.86
-3.03
-3.67
-4.87
-6.51
-8.26
-9.72
-10.51
-10.35
-9.14
-6.93
-3.97
-0.61
2.71
5.57
7.67
8.87
9.23
8.91
8.17
7.23
6.25
5.28
4.31
3.33
2.39
1.61
1.14
1.07
1.32
1.72
2.00
1.99
1.62
0.98
0.23
-0.48
-1.09
-1.65
-2.20
-2.80
-3.44
-4.11
-4.81
-5.60
-6.58
-7.76
-9.05
-10.13
-10.62
-10.14
-8.51
-5.87
-2.58
0.87
4.06
6.76
8.90
10.52
11.66
12.32
12.48
12.11
11.28
10.15
8.92
7.84
7.07
6.65
6.47
6.37
6.21
5.93
5.60
5.28
5.01
4.72
4.23
3.41
2.21
0.76
-0.72
-2.04
-3.06
-3.82
-4.45
-5.12
-6.03
-7.26
-8.79
-10.45
-11.98
-13.05
-13.36
-12.77
-11.28
-9.05
-6.29
-3.30
-0.32
2.36
4.53
6.02
6.73
6.68
6.00
4.88
3.54
2.21
1.05
0.18
-0.34
-0.54
-0.44
-0.16
0.23
0.63
0.98
1.22
1.30
1.17
0.77
0.06
-0.93
-2.12
-3.35
-4.50
-5.43
-6.11
-6.59
-6.95
-7.27
-7.63
-8.08
-8.62
-9.21
-9.69
-9.83
-9.39
-8.17
-6.15
-3.50
-0.51
2.47
5.14
7.31
8.87
9.76
9.98
9.57
8.67
7.46
6.19
5.13
4.46
4.22
4.34
4.63
4.91
5.03
5.01
4.93
4.91
5.02
5.21
5.38
5.39
5.14
4.61
3.83
2.91
1.91
0.90
-0.08
-1.03
-1.99
-3.05
-4.30
-5.79
-7.47
-9.17
-10.66
-11.65
-11.91
-11.33
-9.98
-8.02
-5.71
-3.26
-0.85
1.40
3.37
4.95
6.00
6.44
6.30
5.71
4.88
4.03
3.31
2.79
2.47
2.30
2.28
2.39
2.65
3.02
3.41
3.72
3.85
3.77
3.51
3.17
2.85
2.60
2.41
2.21
1.89
1.34
0.53
-0.54
-1.79
-3.05
-4.15
-4.89
-5.12
-4.76
-3.80
-2.28
-0.37
1.78
3.93
5.87
7.42
8.49
9.02
9.03
8.56
7.66
6.42
4.96
3.47
2.13
1.07
0.35
-0.11
-0.38
-0.58
-0.81
-1.14
-1.63
-2.28
-3.01
-3.72
-4.28
-4.66
-4.92
-5.19
-5.56
-6.05
-6.54
-6.91
-7.12
-7.31
-7.72
-8.60
-9.98
-11.62
-13.06
-13.78
-13.41
-11.87
-9.39
-6.35
-3.18
-0.18
2.46
4.67
6.35
7.43
7.80
7.45
6.49
5.15
3.72
2.47
1.56
1.02
0.79
0.75
0.78
0.78
0.70
0.53
0.28
-0.02
-0.33
-0.64
-0.95
-1.27
-1.60
-1.92
-2.24
-2.59
-3.01
-3.60
-4.41
-5.48
-6.77
-8.21
-9.63
-10.82
-11.48
-11.33
-10.20
-8.10
-5.23
-1.96
1.33
4.29
6.71
8.47
9.54
9.98
9.91
9.48
8.85
8.13
7.37
6.59
5.87
5.30
4.99
4.98
5.17
5.43
5.67
5.88
6.12
6.43
6.72
6.82
6.55
5.81
4.68
3.31
1.86
0.43
-0.98
-2.36
-3.70
-4.95
-6.10
-7.21
-8.32
-9.43
-10.42
-11.07
-11.15
-10.51
-9.11
-7.08
-4.61
-1.97
0.58
2.80
4.56
5.78
6.50
6.78
6.75
6.52
6.16
5.73
5.29
4.88
4.56
4.38
4.38
4.57
4.89
5.22
5.40
5.28
4.80
3.99
2.98
1.90
0.85
-0.11
-1.00
-1.85
-2.72
-3.69
-4.85
-6.28
-7.92
-9.59
-11.01
-11.90
-12.07
-11.47
-10.23
-8.53
-6.57
-4.51
-2.45
-0.50
1.22
2.55
3.38
3.66
3.48
3.03
2.63
2.58
3.14
4.39
6.24
8.42
10.66
12.72
14.48
15.91
16.99
17.66
17.86
17.53
16.69
15.43
13.88
12.19
10.44
8.68
6.99
5.52
4.41
3.77
3.57
3.67
3.86
4.00
4.10
4.38
5.17
6.74
9.21
12.32
15.53
18.04
18.99
17.56
13.20
5.72
-4.62
-17.06
-30.39
-43.14
-53.77
-61.11
-64.50
-63.98
-60.15
-53.92
-46.22
-37.77
-29.12
-20.67
-12.89
-6.23
-1.09
2.29
3.92
4.06
3.07
1.44
-0.15
-0.87
0.18
3.63
9.43
16.70
23.96
29.74
33.31
35.06
36.27
38.53
42.84
49.18
56.54
63.40
68.40
70.73
70.21
66.98
61.33
53.52
43.85
32.85
21.30
10.14
0.27
-7.63
-13.28
-16.75
-18.40
-18.73
-18.24
-17.33
-16.17
-14.66
-12.53
-9.52
-5.57
-1.03
3.38
6.79
8.48
8.16
6.09
2.86
-0.84
-4.55
-8.13
-11.72
-15.55
-19.75
-24.30
-29.02
-33.69
-38.12
-42.09
-45.34
-47.50
-48.14
-46.92
-43.78
-39.08
-33.53
-28.04
-23.36
-19.83
-17.20
-14.71
-11.39
-6.43
0.47
9.05
18.46
27.68
35.70
41.83
45.78
47.52
47.17
44.88
40.79
35.15
28.35
20.96
13.63
6.88
0.96
-4.20
-9.00
-13.91
-19.43
-25.84
-33.24
-41.45
-50.03
-58.31
-65.52
-70.92
-74.02
-74.74
-73.39
-70.58
-66.96
-63.04
-59.06
-54.95
-50.40
-44.98
-38.24
-29.87
-19.83
-8.48
3.41
14.84
24.91
33.14
39.63
44.96
49.87
54.75
59.38
62.91
64.28
62.65
57.83
50.42
41.57
32.59
24.56
18.14
13.53
10.58
9.00
8.48
8.75
9.61
10.96
12.78
15.14
18.23
22.21
27.18
33.04
39.42
45.70
51.14
54.99
56.66
55.78
52.28
46.39
38.63
29.70
20.33
11.20
2.70
-5.04
-12.07
-18.55
-24.57
-30.20
-35.45
-40.38
-44.98
-49.21
-52.86
-55.66
-57.37
-57.94
-57.59
-56.75
-55.91
-55.42
-55.41
-55.74
-56.04
-55.94
-55.12
-53.55
-51.45
-49.17
-47.06
-45.19
-43.31
-40.91
-37.35
-32.11
-24.94
-15.96
-5.68
5.03
15.14
23.68
29.97
33.91
35.92
36.78
37.26
37.78
38.24
38.18
37.01
34.29
29.92
24.13
17.39
10.32
3.65
-1.86
-5.49
-6.75
-5.56
-2.37
1.98
6.43
10.09
12.50
13.78
14.51
15.46
17.27
20.12
23.69
27.15
29.37
29.29
26.22
20.04
11.33
1.15
-9.15
-18.33
-25.46
-30.10
-32.23
-32.12
-30.23
-26.98
-22.82
-18.16
-13.35
-8.72
-4.54
-1.07
1.43
2.65
2.36
0.41
-3.17
-8.04
-13.63
-19.16
-23.87
-27.20
-28.94
-29.21
-28.39
-26.95
-25.21
-23.32
-21.23
-18.82
-16.01
-12.82
-9.39
-5.87
-2.43
0.79
3.68
6.16
8.19
9.76
10.94
11.84
12.59
13.31
14.09
14.91
15.64
16.05
15.89
14.99
13.36
11.25
9.04
7.12
5.75
4.98
4.70
4.70
4.83
4.97
5.10
5.17
5.11
4.77
4.00
2.68
0.84
-1.33
-3.48
-5.16
-6.02
-5.79
-4.43
-2.06
1.10
4.76
8.63
12.43
15.87
18.67
20.62
21.61
21.65
20.91
19.64
18.06
16.35
14.56
12.74
10.95
9.28
7.88
6.85
6.18
5.74
5.36
4.89
4.27
3.57
2.85
2.16
1.43
0.55
-0.59
-2.05
-3.83
-5.87
-8.08
-10.29
-12.26
-13.69
-14.28
-13.83
-12.32
-9.92
-6.91
-3.63
-0.36
2.71
5.46
7.80
9.69
11.05
11.84
12.06
11.75
11.00
9.98
8.89
7.92
7.22
6.83
6.70
6.72
6.80
6.90
7.03
7.20
7.35
7.36
7.05
6.32
5.17
3.77
2.34
1.06
0.01
-0.94
-2.01
-3.43
-5.26
-7.37
-9.43
-10.99
-11.64
-11.16
-9.52
-6.95
-3.78
-0.42
2.83
5.72
8.12
9.97
11.20
11.82
11.87
11.50
10.88
10.21
9.59
9.04
8.50
7.87
7.11
6.24
5.36
4.52
3.83
3.30
2.92
2.64
2.39
2.04
1.51
0.71
-0.40
-1.85
-3.61
-5.65
-7.94
-10.36
-12.79
-15.04
-16.86
-17.97
-18.15
-17.21
-15.16
-12.15
-8.50
-4.63
-0.96
2.15
4.48
5.93
6.52
6.35
5.56
4.37
3.01
1.75
0.80
0.30
0.28
0.64
1.25
1.91
2.47
2.81
2.84
2.55
1.92
1.03
-0.04
-1.13
-2.11
-2.93
-3.61
-4.27
-5.04
-6.00
-7.17
-8.48
-9.74
-10.68
-10.99
-10.39
-8.71
-6.00
-2.53
1.27
4.96
8.19
10.76
12.60
13.69
14.04
13.68
12.72
11.31
9.69
8.05
6.53
5.18
4.01
2.98
2.06
1.23
0.48
-0.20
-0.83
-1.46
-2.12
-2.84
-3.64
-4.49
-5.37
-6.23
-7.03
-7.74
-8.33
-8.81
-9.21
-9.54
-9.78
-9.85
-9.59
-8.80
-7.29
-5.03
-2.14
1.06
4.19
6.87
8.89
10.19
10.89
11.16
11.20
11.11
10.96
10.75
10.47
10.14
9.80
9.49
9.19
8.85
8.39
7.76
7.00
6.19
5.42
4.69
3.92
2.99
1.81
0.39
-1.14
-2.63
-3.96
-5.13
-6.23
-7.36
-8.59
-9.89
-11.14
-12.15
-12.69
-12.57
-11.62
-9.76
-7.07
-3.74
-0.11
3.43
6.49
8.80
10.24
10.82
10.69
9.99
8.91
7.60
6.17
4.77
3.51
2.52
1.88
1.56
1.44
1.34
1.06
0.52
-0.22
-0.98
-1.54
-1.78
-1.74
-1.65
-1.76
-2.27
-3.23
-4.46
-5.76
-6.97
-8.05
-9.12
-10.27
-11.48
-12.54
-13.08
-12.75
-11.42
-9.24
-6.58
-3.91
-1.58
0.28
1.72
2.82
3.57
3.87
3.57
2.63
1.20
-0.40
-1.73
-2.49
-2.55
-2.03
-1.23
-0.47
0.01
0.14
0.04
-0.13
-0.19
-0.04
0.35
0.91
1.55
2.17
2.67
2.94
2.84
2.27
1.20
-0.30
-1.95
-3.40
-4.24
-4.19
-3.13
-1.21
1.28
3.98
6.53
8.63
10.09
10.75
10.59
9.68
8.16
6.27
4.23
2.21
0.34
-1.31
-2.67
-3.67
-4.24
-4.38
-4.15
-3.68
-3.13
-2.61
-2.19
-1.89
-1.68
-1.55
-1.49
-1.47
-1.48
-1.48
-1.45
-1.45
-1.57
-1.96
-2.72
-3.78
-4.89
-5.66
-5.69
-4.67
-2.56
0.47
4.01
7.57
10.68
13.01
14.40
14.86
14.54
13.64
12.35
10.85
9.22
7.57
5.98
4.54
3.35
2.41
1.60
0.82
-0.10
-1.22
-2.55
-4.03
-5.58
-7.14
-8.61
-9.94
-11.07
-11.97
-12.73
-13.45
-14.29
-15.32
-16.54
-17.82
-18.95
-19.69
-19.78
-19.04
-17.39
-14.91
-11.77
-8.30
-4.85
-1.75
0.80
2.74
4.11
5.05
5.65
5.99
6.09
5.93
5.51
4.87
4.09
3.29
2.57
2.05
1.80
1.88
2.31
3.03
3.89
4.62
4.96
4.74
3.95
2.74
1.34
-0.04
-1.27
-2.36
-3.38
-4.43
-5.60
-6.92
-8.34
-9.74
-10.88
-11.49
-11.30
-10.15
-8.07
-5.25
-2.03
1.22
4.13
6.45
8.02
8.83
8.97
8.61
7.93
7.12
6.31
5.62
5.11
4.86
4.90
5.19
5.66
6.15
6.55
6.79
6.88
6.88
6.88
6.85
6.72
6.37
5.72
4.75
3.54
2.20
0.80
-0.64
-2.21
-3.98
-5.92
-7.84
-9.37
-10.08
-9.56
-7.64
-4.38
-0.12
4.65
9.39
13.62
16.97
19.24
20.31
20.18
18.88
16.54
13.35
9.56
5.49
1.46
-2.22
-5.29
-7.52
-8.77
-8.97
-8.17
-6.55
-4.43
-2.21
-0.34
0.88
1.34
1.15
0.61
0.00
-0.48
-0.85
-1.28
-2.02
-3.24
-4.97
-7.07
-9.27
-11.28
-12.78
-13.54
-13.31
-11.96
-9.43
-5.90
-1.76
2.46
6.20
9.03
10.77
11.47
11.31
10.51
9.27
7.70
5.89
3.98
2.15
0.60
-0.48
-1.00
-0.98
-0.55
0.09
0.73
1.21
1.41
1.33
1.00
0.48
-0.16
-0.90
-1.71
-2.58
-3.50
-4.50
-5.63
-6.96
-8.54
-10.33
-12.13
-13.63
-14.47
-14.37
-13.27
-11.33
-8.88
-6.29
-3.83
-1.63
0.32
2.06
3.62
4.96
6.03
6.78
7.26
7.55
7.71
7.81
7.85
7.79
7.61
7.33
7.05
6.88
6.92
7.22
7.73
8.33
8.88
9.31
9.59
9.77
9.96
10.18
10.43
10.58
10.47
9.93
8.78
6.89
4.25
0.96
-2.71
-6.36
-9.55
-11.92
-13.28
-13.68
-13.30
-12.38
-11.11
-9.59
-7.90
-6.17
-4.58
-3.34
-2.58
-2.34
-2.52
-3.02
-3.74
-4.62
-5.56
-6.39
-6.90
-6.88
-6.22
-4.98
-3.32
-1.48
0.33
1.97
3.36
4.44
5.16
5.47
5.36
4.85
4.03
3.05
2.04
1.10
0.20
-0.74
-1.80
-3.00
-4.18
-5.08
-5.39
-4.89
-3.53
-1.47
1.05
3.75
6.38
8.72
10.55
11.69
12.04
11.60
10.47
8.87
7.04
5.17
3.48
2.09
1.09
0.48
0.18
0.04
-0.07
-0.26
-0.57
-0.97
-1.43
-1.89
-2.34
-2.76
-3.12
-3.45
-3.76
-4.14
-4.66
-5.41
-6.37
-7.53
-8.81
-10.16
-11.58
-12.98
-14.24
-15.09
-15.20
-14.34
-12.44
-9.69
-6.48
-3.26
-0.38
2.01
3.90
5.38
6.46
7.09
7.16
6.63
5.63
4.44
3.39
2.74
2.60
2.84
3.22
3.51
3.54
3.27
2.79
2.25
1.75
1.35
1.05
0.78
0.47
0.01
-0.66
-1.54
-2.53
-3.47
-4.22
-4.74
-5.10
-5.51
-6.14
-7.12
-8.38
-9.71
-10.77
-11.21
-10.79
-9.40
-7.13
-4.26
-1.15
1.77
4.14
5.70
6.39
6.23
5.39
4.09
2.61
1.27
0.36
0.14
0.72
2.07
3.94
5.99
7.82
9.11
9.68
9.50
8.70
7.48
6.07
4.66
3.38
2.33
1.61
1.31
1.48
2.07
2.89
3.62
3.91
3.51
2.41
0.83
-0.78
-1.96
-2.32
-1.69
-0.10
2.28
5.16
8.27
11.34
14.20
16.76
18.98
20.89
22.49
23.71
24.42
24.47
23.78
22.45
20.73
18.97
17.43
16.20
15.15
14.00
12.47
10.43
7.96
5.25
2.54
-0.09
-2.70
-5.48
-8.58
-12.04
-15.73
-19.41
-22.83
-25.78
-28.14
-29.91
-31.12
-31.87
-32.36
-32.77
-33.25
-33.81
-34.26
-34.25
-33.38
-31.33
-28.00
-23.56
-18.42
-13.10
-8.15
-3.99
-0.91
1.06
2.01
2.21
1.98
1.61
1.36
1.46
2.04
3.19
4.88
6.96
9.12
11.05
12.45
13.22
13.38
13.10
12.48
11.54
10.22
8.50
6.49
4.49
2.84
1.76
1.22
0.85
0.18
-1.23
-3.58
-6.79
-10.61
-14.68
-18.69
-22.35
-25.38
-27.44
-28.25
-27.61
-25.51
-22.12
-17.83
-13.08
-8.33
-3.96
-0.25
2.68
4.81
6.29
7.34
8.27
9.37
10.87
12.81
15.03
17.13
18.59
18.96
18.11
16.35
14.43
13.30
13.84
16.46
20.94
26.54
32.18
36.82
39.76
40.81
40.20
38.51
36.47
34.71
33.76
33.90
35.24
37.67
40.89
44.41
47.58
49.67
50.00
48.13
43.97
37.80
30.21
21.95
13.72
5.94
-1.22
-7.79
-13.81
