1513812179.00
64.000000
-0.00
-0.00
-0.00
-0.00
-0.00
-0.00
-0.00
-0.00
-0.00
-0.00
0.00
0.01
0.01
-0.00
-0.03
-0.05
-0.05
0.00
0.13
0.36
0.66
1.01
1.37
1.72
2.06
2.40
2.79
3.24
3.80
4.42
5.06
5.66
6.20
6.68
7.15
7.68
8.31
9.14
10.09
11.04
11.88
12.56
13.14
13.76
14.65
15.96
17.91
20.32
22.90
25.38
27.58
29.57
31.68
34.32
37.81
42.54
48.15
54.10
59.83
64.97
69.58
74.14
79.34
85.71
93.76
103.00
112.62
121.73
129.77
136.75
143.30
150.75
157.77
166.64
177.95
191.79
206.97
220.57
228.25
225.36
208.53
176.87
132.76
80.05
23.07
-34.94
-92.44
-149.16
-205.23
-260.37
-313.74
-363.87
-409.83
-450.91
-486.50
-515.74
-537.23
-549.22
-549.96
-538.37
-514.21
-478.67
-433.88
-382.45
-327.02
-269.84
-212.63
-156.66
-102.95
-52.37
-5.90
35.58
71.43
101.35
125.50
144.38
158.69
169.15
176.37
180.75
182.57
182.07
179.51
175.23
169.65
163.18
156.15
148.81
141.30
133.69
126.02
118.33
110.69
103.16
95.80
88.68
81.83
75.25
68.95
62.95
57.25
51.86
46.78
42.03
37.59
33.45
29.61
26.07
22.81
19.83
17.11
14.67
12.48
10.54
8.83
7.35
6.07
4.97
4.05
3.27
2.62
2.09
1.65
1.30
1.01
0.79
0.61
0.48
0.37
0.29
0.24
0.20
0.18
0.16
0.17
0.18
0.20
0.23
0.26
0.30
0.34
0.38
0.43
0.47
0.52
0.57
0.61
0.66
0.72
0.77
0.83
0.90
0.98
1.06
1.16
1.26
1.38
1.52
1.67
1.84
2.04
2.25
2.49
2.75
3.03
3.35
3.71
4.11
4.54
4.98
5.45
5.90
6.37
6.86
7.41
8.03
8.73
9.51
10.33
11.15
11.98
12.79
13.64
14.56
15.58
16.73
17.97
19.23
20.43
21.43
22.15
22.51
22.45
21.94
20.88
19.19
16.69
13.29
8.92
3.78
-1.82
-7.42
-12.62
-17.08
-20.71
-23.62
-26.03
-28.11
-29.90
-31.22
-31.81
-31.42
-30.04
-27.96
-25.78
-24.12
-23.48
-23.99
-25.33
-26.95
-28.26
-28.94
-28.97
-28.78
-28.84
-29.72
-31.88
-35.53
-40.57
-46.12
-50.44
-51.18
-46.44
-35.76
-20.70
-4.59
8.83
17.03
19.79
18.92
17.19
16.81
18.65
22.39
27.09
31.77
35.62
37.85
37.62
34.31
28.06
19.90
11.51
4.22
-1.43
-5.95
-10.13
-14.37
-18.60
-22.38
-25.96
-30.43
-37.01
-46.83
-60.01
-75.32
-90.35
-102.60
-109.74
-110.11
-102.42
-85.99
-61.17
-29.82
4.27
36.12
60.81
75.50
80.28
78.22
73.88
71.36
72.94
78.42
85.94
92.98
97.86
100.22
101.10
102.41
105.93
113.01
123.81
137.37
151.38
162.59
167.38
162.42
145.69
116.83
77.76
32.37
-13.75
-54.51
-84.77
-101.93
-107.25
-105.54
-103.71
-107.77
-120.41
-139.98
-161.72
-180.64
-193.97
-202.34
-208.43
-214.90
-222.36
-229.42
-234.20
-236.20
-237.41
-241.11
-249.83
-262.96
-276.56
-284.88
-283.15
-270.10
-248.15
-222.09
-196.27
-172.53
-149.47
-123.77
-92.26
-53.63
-9.12
38.64
87.09
135.04
182.56
229.98
276.58
320.12
358.08
389.09
414.35
437.08
460.74
486.43
511.36
529.60
534.94
524.64
501.25
471.91
445.00
426.34
416.99
413.38
409.82
401.24
385.07
361.45
332.19
299.53
265.05
229.63
193.75
157.78
122.14
87.13
52.65
18.11
-16.99
-52.11
-84.44
-109.10
-120.42
-114.68
-92.94
-61.60
-30.46
-8.79
-1.41
-6.91
-18.84
-28.97
-30.99
-22.70
-6.03
14.40
33.26
46.00
49.63
42.96
26.47
2.13
-27.53
-59.88
-92.71
-124.54
-154.79
-183.85
-212.83
-243.10
-275.43
-309.23
-341.94
-369.79
-389.07
-397.54
-395.71
-386.59
-374.98
-365.71
-362.24
-365.67
-374.40
-384.33
-389.61
-384.09
-362.82
-323.78
-268.66
-202.82
-133.72
-68.88
-14.07
27.88
56.68
74.01
82.30
84.27
82.56
79.38
76.14
72.81
68.21
60.60
48.95
33.69
16.68
0.35
-13.73
-25.67
-37.49
-52.13
-72.22
-98.56
-129.33
-160.06
-184.38
-195.74
-189.23
-163.59
-121.88
-71.10
-19.99
23.64
55.23
74.49
84.69
91.19
99.29
112.89
133.57
160.33
189.94
217.35
237.29
245.79
241.86
227.90
208.70
189.15
171.94
156.85
141.66
124.42
104.95
84.89
66.25
49.65
33.98
17.47
-0.24
-17.16
-29.57
-34.05
-29.46
-17.39
-1.11
16.38
33.35
49.55
65.16
79.92
92.94
103.33
111.03
116.89
122.20
127.48
131.84
133.36
130.31
122.58
112.15
102.59
97.62
99.46
107.82
119.87
131.32
137.88
136.76
127.25
110.61
89.22
65.58
41.49
17.69
-5.83
-29.53
-53.80
-78.93
-104.77
-130.55
-154.68
-174.59
-187.24
-190.15
-182.70
-166.68
-145.60
-123.41
-102.75
-84.48
-68.18
-53.56
-41.33
-33.05
-29.94
-31.66
-36.05
-40.04
-41.51
-40.50
-39.38
-41.79
-51.02
-68.71
-94.38
-125.57
-158.67
-189.98
-216.67
-237.54
-252.91
-263.73
-270.54
-272.76
-269.07
-258.49
-241.38
-219.50
-195.07
-169.54
-142.82
-113.77
-81.37
-45.97
-9.53
25.27
56.15
81.92
102.25
117.16
126.48
129.86
127.22
118.87
105.66
89.04
70.97
53.78
39.60
29.88
25.18
25.44
30.74
41.49
58.07
79.61
102.85
122.30
131.66
126.50
106.13
73.91
35.79
-2.00
-34.80
-60.06
-77.03
-86.12
-88.58
-86.17
-80.89
-74.41
-67.70
-61.32
-55.74
-51.68
-50.10
-51.47
-55.11
-59.44
-62.75
-64.22
-64.40
-64.55
-65.60
-67.39
-68.94
-69.43
-69.26
-70.03
-73.40
-79.48
-86.05
-89.32
-85.74
-74.19
-56.72
-37.88
-22.42
-12.89
-8.51
-5.82
-1.17
6.88
16.19
22.20
20.74
10.74
-4.65
-19.59
-28.61
-29.54
-24.31
-17.51
-13.15
-12.18
-12.23
-9.61
-2.27
8.55
18.81
24.31
23.36
17.86
12.22
10.39
13.49
19.20
23.58
23.63
19.28
13.18
8.78
8.11
10.46
13.23
13.87
11.87
9.33
9.62
15.03
25.02
36.34
44.61
46.95
43.46
37.00
31.72
31.22
37.57
51.16
71.18
95.69
121.35
143.36
155.91
153.60
133.26
95.45
45.19
-8.89
-56.68
-89.67
-104.03
-102.43
-93.25
-87.17
-92.35
-110.61
-136.76
-161.68
-177.16
-179.99
-172.90
-161.98
-152.98
-148.63
-148.43
-150.55
-153.98
-159.25
-167.51
-179.01
-191.88
-202.36
-206.29
-200.87
-185.97
-164.27
-140.25
-118.68
-102.91
-93.87
-90.12
-88.74
-86.71
-82.17
-74.85
-65.92
-57.16
-50.05
-44.98
-41.16
-36.94
-30.36
-20.00
-5.41
12.78
33.23
54.42
75.24
95.30
114.88
134.83
156.40
181.24
211.07
246.73
286.97
327.49
360.99
379.20
375.94
350.19
307.08
256.37
208.94
173.14
153.03
148.28
155.83
171.61
191.50
211.74
229.45
243.54
255.62
269.46
289.05
315.68
346.18
373.30
388.40
384.86
360.24
316.86
260.95
201.33
148.14
110.89
95.84
103.55
127.61
156.21
176.23
178.22
159.29
123.02
76.34
25.85
-23.77
-69.69
-109.48
-140.35
-159.55
-165.84
-160.09
-144.59
-121.47
-91.92
-56.47
-16.73
23.21
56.98
78.08
82.89
72.47
51.93
28.00
6.03
-11.64
-25.51
-37.51
-49.30
-61.56
-74.21
-87.25
-101.30
-117.24
-135.69
-156.68
-179.73
-204.62
-232.03
-263.36
-300.14
-342.80
-389.33
-434.71
-471.79
-493.42
-494.90
-475.79
-439.20
-390.48
-335.66
-279.51
-225.27
-174.99
-130.47
-93.29
-64.42
-42.37
-23.51
-3.54
21.74
54.94
95.77
140.38
181.60
210.47
220.41
209.14
179.05
136.84
90.85
47.75
11.22
-16.51
-43.00
-76.27
-116.90
-161.51
-203.47
-235.53
-252.78
-254.39
-243.86
-227.58
-210.78
-195.77
-182.45
-168.72
-152.41
-132.70
-110.39
-86.85
-62.82
-36.52
-4.86
34.22
80.65
131.88
183.60
231.36
272.13
305.14
332.40
357.53
384.08
414.78
450.72
490.78
531.62
568.13
594.67
607.20
604.51
588.54
563.52
534.37
504.71
476.13
448.39
420.56
392.20
363.66
335.59
308.31
281.38
253.83
224.80
194.08
162.14
129.89
98.04
66.77
35.47
3.20
-31.05
-67.80
-106.99
-148.10
-190.35
-233.16
-275.96
-318.19
-358.78
-395.99
-427.42
-450.53
-463.45
-465.36
-456.92
-439.69
-415.68
-386.72
-354.19
-319.11
-282.35
-244.93
-207.83
-172.04
-138.25
-107.08
-79.15
-55.19
-36.14
-22.52
-14.32
-10.52
-9.60
-9.85
-10.07
-9.84
-9.31
-8.97
-8.97
-9.17
-9.08
-8.26
-6.49
-3.87
-0.79
2.39
5.24
7.50
8.94
9.51
9.29
8.50
7.41
6.16
4.84
3.26
1.15
-1.86
-6.13
-11.86
-19.02
-27.02
-34.82
-41.00
-44.24
-43.75
-39.57
-32.58
-24.05
-15.37
-7.46
-0.85
4.33
8.02
10.20
10.96
10.39
8.92
7.02
5.23
3.93
3.26
3.15
3.38
3.74
4.05
4.28
4.41
4.48
4.46
4.24
3.72
2.65
0.84
-1.89
-5.51
-9.79
-14.34
-18.68
-22.52
-25.79
-28.79
-31.85
-35.30
-39.10
-42.85
-45.92
-47.39
-46.58
-42.94
-36.38
-27.33
-16.68
-5.76
4.09
11.74
16.65
18.83
18.73
17.02
14.38
11.39
8.49
6.19
4.74
4.28
4.61
5.34
6.01
6.28
6.09
5.52
4.87
4.30
3.90
3.52
2.86
1.58
-0.67
-3.88
-7.87
-12.08
-15.96
-19.16
-21.63
-23.73
-25.90
-28.49
-31.32
-33.75
-34.88
-33.79
-30.00
-23.47
-14.77
-4.70
5.72
15.53
23.94
30.34
34.44
36.10
35.52
33.03
29.17
24.58
19.85
15.54
11.96
9.37
7.76
7.13
7.32
8.17
9.48
10.91
12.15
12.76
12.55
11.37
9.40
6.95
4.35
1.84
-0.64
-3.14
-5.80
-8.46
-10.76
-12.24
-12.62
-12.17
-11.51
-11.62
-13.05
-15.66
-18.43
-19.83
-18.54
-13.97
-6.63
2.30
11.32
19.44
26.23
31.70
35.99
38.93
40.33
39.93
37.96
34.99
31.90
29.39
27.71
26.73
25.86
24.63
22.75
20.38
17.91
15.73
14.09
12.80
11.53
9.75
7.19
3.86
0.12
-3.52
-6.67
-9.11
-11.03
-12.72
-14.62
-16.95
-19.84
-23.24
-26.99
-30.98
-34.84
-38.16
-40.15
-40.03
-37.06
-30.97
-22.19
-11.65
-0.70
9.45
17.87
24.13
28.13
29.96
29.80
27.83
24.49
20.37
16.31
13.09
11.25
10.93
11.76
13.18
14.52
15.43
15.79
15.79
15.59
15.17
14.33
12.67
9.96
6.11
1.42
-3.62
-8.47
-12.61
-15.84
-18.16
-19.91
-21.52
-23.53
-26.29
-29.76
-33.57
-36.77
-38.38
-37.39
-33.30
-26.20
-16.78
-6.22
4.25
13.43
20.56
25.25
27.55
27.75
26.35
23.94
21.02
18.12
15.52
13.46
11.93
10.85
10.11
9.46
8.72
7.57
5.93
3.78
1.38
-0.96
-3.00
-4.67
-6.21
-7.89
-9.98
-12.30
-14.50
-16.09
-16.75
-16.64
-16.27
-16.44
-17.72
-20.37
-24.09
-28.12
-31.41
-32.80
-31.49
-27.10
-19.98
-11.00
-1.40
7.65
15.34
21.25
25.38
27.82
28.86
28.73
27.79
26.48
25.14
24.08
23.27
22.65
21.97
21.22
20.40
19.57
18.82
18.04
17.18
16.08
14.67
12.88
10.66
7.95
4.70
1.07
-2.73
-6.29
-9.38
-11.92
-14.12
-16.33
-18.85
-21.92
-25.48
-29.39
-33.27
-36.62
-38.72
-38.76
-36.09
-30.41
-22.16
-12.25
-2.04
7.31
15.05
20.89
24.92
27.19
27.81
26.75
24.36
21.25
18.41
16.87
17.18
19.33
22.49
25.54
27.41
27.68
26.54
24.65
22.80
21.34
20.29
19.25
17.78
15.59
12.69
9.29
5.66
2.09
-1.28
-4.34
-7.16
-9.81
-12.46
-15.35
-18.65
-22.48
-26.69
-30.96
-34.58
-36.70
-36.45
-33.28
-27.36
-19.47
-10.97
-3.26
2.55
6.02
7.28
6.78
5.05
2.40
-0.85
-4.49
-8.06
-11.10
-13.22
-14.15
-14.00
-12.95
-11.33
-9.32
-7.10
-4.74
-2.41
-0.38
1.05
1.47
0.65
-1.48
-4.68
-8.56
-12.59
-16.28
-19.38
-21.76
-23.61
-25.12
-26.57
-28.21
-30.23
-32.77
-35.63
-38.35
-39.99
-39.53
-36.11
-29.49
-20.20
-9.47
1.16
10.37
17.25
21.52
23.17
22.39
19.27
14.02
7.27
0.02
-6.24
-10.24
-11.23
-9.46
-5.97
-2.11
1.01
3.03
4.11
4.74
5.28
5.73
5.90
5.55
4.72
3.64
2.77
2.47
2.98
4.33
6.16
7.76
7.92
5.47
-0.41
-9.52
-20.60
-31.54
-40.04
-44.37
-43.71
-38.36
-29.30
-17.93
-5.58
6.64
17.92
27.76
35.79
41.89
45.96
48.18
48.91
48.72
48.32
48.10
48.00
47.18
44.60
39.38
31.54
22.24
13.36
6.89
3.93
4.44
7.18
10.47
12.85
13.63
12.95
11.38
9.57
7.76
5.98
4.03
1.87
-0.40
-2.62
-4.66
-6.71
-8.97
-11.67
-14.56
-17.00
-18.01
-16.66
-12.58
-5.97
2.19
10.74
18.51
24.74
29.11
31.58
32.37
31.66
29.72
26.80
23.34
19.78
16.58
14.14
12.63
12.07
12.14
12.49
12.69
12.47
11.74
10.55
9.09
7.40
5.59
3.59
1.40
-0.98
-3.61
-6.61
-10.34
-15.10
-21.20
-28.45
-36.29
-43.77
-49.83
-53.77
-55.19
-54.17
-50.87
-45.50
-38.10
-28.72
-17.67
-5.55
6.67
17.99
27.58
35.04
40.35
43.75
45.49
45.69
44.40
41.57
37.36
32.04
26.08
19.91
13.82
7.95
2.27
-3.03
-7.67
-11.11
-12.89
-12.93
-11.58
-9.59
-7.61
-5.95
-4.26
-1.75
2.37
8.38
15.69
23.07
28.97
32.32
32.72
30.70
27.26
23.47
20.08
17.42
15.61
14.69
14.91
16.47
19.49
23.59
27.90
31.21
32.20
30.05
24.53
16.41
7.22
-1.05
-6.57
-8.39
-6.80
-3.42
-0.52
-0.28
-3.86
-11.05
-20.78
-31.71
-43.39
-56.63
-73.32
-95.65
-125.48
-163.89
-210.80
-264.64
-321.52
-375.01
-416.67
-438.18
-433.85
-402.82
-349.49
-281.62
-207.35
-132.25
-58.76
12.92
82.37
147.36
203.98
248.16
277.68
293.13
297.48
294.36
286.67
275.80
261.81
244.60
224.64
203.48
183.02
164.94
149.82
137.12
125.60
113.99
101.69
88.86
76.38
65.13
55.80
48.51
42.86
38.25
33.93
29.44
24.38
18.68
12.33
5.54
-1.36
-8.05
-14.21
-19.84
-24.95
-29.81
-34.65
-39.65
-44.91
-50.30
-55.69
-60.65
-64.68
-66.97
-66.71
-63.33
-56.77
-47.71
-37.36
-27.13
-17.97
-10.20
-3.30
3.49
10.73
18.38
25.68
31.65
35.43
36.88
36.52
35.28
34.03
33.06
32.13
30.51
27.70
23.61
18.88
14.52
11.45
10.17
10.43
11.59
12.69
13.04
12.21
10.06
6.66
2.00
-3.80
-10.55
-17.68
-24.44
-30.05
-34.16
-37.10
-39.59
-42.39
-45.52
-48.26
-49.30
-47.63
-43.03
-36.16
-28.29
-20.35
-12.80
-5.47
1.67
8.29
13.48
16.26
16.30
14.00
10.54
6.99
4.05
1.67
-0.58
-3.18
-6.40
-10.15
-14.29
-18.56
-22.85
-26.94
-30.52
-33.27
-34.88
-35.40
-35.04
-34.27
-33.37
-32.50
-31.58
-30.54
-29.64
-29.24
-29.80
-31.30
-33.21
-34.42
-33.74
-30.44
-24.41
-16.39
-7.36
1.50
9.39
15.73
20.12
22.30
22.15
20.02
16.65
13.18
10.67
9.82
10.58
12.29
13.87
14.12
12.17
7.58
0.63
-7.91
-16.86
-25.07
-31.90
-37.33
-42.03
-46.74
-52.10
-58.06
-64.13
-69.77
-74.61
-78.73
-82.13
-84.76
-86.12
-85.75
-83.49
-79.68
-75.09
-70.21
-64.86
-58.01
-48.44
-35.35
-19.09
-1.19
16.21
31.04
42.04
48.76
51.50
50.95
47.97
43.45
38.20
32.99
28.20
24.00
20.28
16.93
13.93
11.27
8.96
6.71
4.18
0.92
-3.18
-7.93
-12.73
-16.71
-19.09
-19.35
-17.58
-14.45
-11.36
-9.79
-11.00
-15.47
-22.79
-31.99
-41.85
-51.52
-60.55
-68.95
-76.59
-83.05
-87.54
-89.12
-87.26
-82.09
-74.62
-66.29
-58.66
-52.84
-49.33
-48.14
-48.89
-51.33
-55.33
-61.16
-69.18
-79.68
-92.59
-107.27
-122.57
-136.75
-147.93
-154.14
-153.77
-145.81
-130.33
-108.82
-84.32
-61.22
-44.22
-37.30
-42.62
-60.17
-87.99
-122.78
-160.48
-196.43
-225.79
-243.77
-246.67
-232.84
-203.49
-162.91
-117.62
-75.22
-42.29
-22.95
-17.57
-22.60
-31.38
-35.98
-29.90
-9.96
22.29
61.57
100.84
134.13
158.26
173.26
181.36
185.07
186.17
185.24
182.55
178.67
174.89
172.68
172.67
174.33
175.92
175.60
172.26
166.14
158.49
150.66
143.58
137.11
130.54
122.90
113.76
103.42
92.96
83.83
77.08
73.01
70.60
68.14
63.65
56.06
45.81
34.93
26.60
23.90
28.93
41.91
61.30
84.17
107.26
128.01
145.30
159.91
173.77
189.30
207.87
229.20
250.88
268.90
278.83
276.90
261.42
233.04
194.82
151.36
107.80
68.75
37.77
16.63
4.91
0.40
-0.35
-1.29
-6.25
-18.29
-38.69
-65.98
-95.90
-122.45
-138.96
-139.88
-122.41
-87.48
-39.74
13.90
66.82
113.80
151.39
178.40
195.41
203.94
205.25
199.80
187.71
171.62
154.35
137.80
123.05
111.29
103.87
101.41
102.82
105.35
110.06
116.95
123.89
128.28
130.26
133.44
142.49
160.33
186.62
225.09
274.59
326.81
369.37
393.13
396.60
385.11
367.57
352.98
356.64
386.16
436.68
494.47
546.64
586.84
614.63
632.49
579.09
427.78
203.50
-32.97
-230.85
-371.42
-459.26
-507.90
-531.44
-539.54
-533.90
-514.97
-488.54
-464.85
-452.27
-454.03
-470.17
-500.96
-535.12
-556.08
-552.98
-526.90
-488.09
-447.18
-409.94
-377.64
-349.45
-323.96
-297.14
-266.70
-234.34
-204.29
-179.74
-161.10
-146.92
-135.14
-124.23
-112.41
-99.03
-85.39
-73.66
-65.07
-59.27
-54.96
-50.71
-45.92
-40.72
-35.80
-32.27
-30.96
-31.64
-33.12
-33.97
-33.06
-30.53
-27.81
-26.45
-27.29
-29.80
-32.07
-31.49
-27.31
-17.31
-1.70
17.70
38.43
58.56
77.02
93.29
106.71
116.72
123.75
129.09
134.78
141.88
148.91
151.29
143.20
120.26
83.00
36.99
-9.49
-49.11
-78.49
-98.47
-112.21
-122.13
-129.13
-132.57
-132.13
-129.36
-127.24
-128.77
-135.26
-145.96
-158.14
-168.55
-174.20
-173.17
-164.93
-150.57
-132.52
-113.82
-98.93
-88.42
-81.81
-76.45
-68.70
-55.86
-38.41
-20.24
-6.79
-1.80
-4.48
-9.83
-10.69
-1.52
18.62
45.82
73.50
96.10
112.12
123.81
134.28
145.06
155.02
161.30
161.48
155.16
144.32
132.13
121.84
114.79
110.52
107.42
103.55
97.69
89.79
81.03
73.06
67.33
64.17
62.74
61.53
59.09
54.70
48.74
42.55
37.72
35.32
35.77
37.94
40.64
42.99
44.73
46.15
47.66
49.24
50.48
50.66
49.29
46.48
42.91
39.36
36.12
33.15
29.36
23.96
16.64
7.67
-1.96
-11.29
-19.58
-26.58
-32.21
-36.52
-39.28
-40.23
-39.30
-36.60
-32.55
-27.89
-23.41
-19.67
-16.98
-15.16
-13.94
-13.16
-12.79
-13.14
-14.77
-18.29
-23.97
-31.64
-40.64
-49.32
-57.24
-63.98
-69.51
-74.06
-77.99
-81.73
-85.56
-89.72
-94.11
-98.28
-100.97
-100.69
-96.32
-87.85
-76.75
-65.45
-56.46
-51.48
-50.87
-53.61
-58.22
-63.48
-68.97
-74.78
-81.09
-87.59
-93.62
-98.47
-101.48
-102.71
-101.91
-99.07
-93.82
-85.67
-73.50
-56.65
-35.14
-9.76
17.90
46.02
72.78
96.86
116.72
132.52
144.57
153.20
158.53
160.59
159.59
155.84
150.14
144.02
138.14
133.09
129.13
126.12
123.58
121.31
119.02
116.65
114.12
111.41
108.63
106.50
106.37
109.49
115.81
122.52
124.40
115.76
93.00
57.07
13.35
-30.47
-68.42
-97.05
-115.42
-123.49
-121.04
-108.30
-87.45
-63.71
-44.28
-35.09
-37.57
-47.55
-57.49
-60.57
-54.45
-41.97
-29.07
-21.04
-19.95
-24.50
-31.80
-39.57
-47.14
-55.21
-64.83
-76.53
-90.04
-104.43
-119.09
-133.49
-146.70
-156.72
-160.19
-153.58
-134.91
-105.66
-70.78
-37.40
-11.71
3.12
7.65
5.18
-0.56
-6.97
-13.35
-19.94
-27.00
-33.72
-39.04
-42.37
-44.05
-45.37
-47.73
-52.18
-58.60
-66.06
-72.74
-77.27
-79.21
-78.90
-77.47
-76.17
-76.04
-77.31
-79.73
-81.93
-82.85
-81.94
-79.10
-74.49
-68.32
-60.27
-48.47
-36.32
-24.62
-13.84
-4.41
3.29
8.81
11.64
11.30
8.76
4.84
0.69
-3.20
-6.45
-8.52
-8.81
-7.00
-3.17
4.89
18.17
36.48
58.01
80.61
102.88
124.18
144.40
163.78
186.95
216.45
251.83
289.37
324.77
355.66
382.36
407.10
432.31
464.36
504.52
548.20
586.55
611.53
619.57
611.77
592.03
528.56
409.26
244.47
63.04
-105.99
-245.59
-350.87
-424.45
-471.44
-498.00
-503.86
-491.96
-466.90
-435.54
-404.29
-377.14
-355.85
-338.81
-323.62
-303.62
-277.71
-247.25
-216.07
-187.56
-162.89
-141.17
-118.09
-89.17
-48.74
5.32
71.65
145.87
223.41
300.96
360.97
390.28
383.64
347.69
295.12
238.06
183.40
133.96
90.17
51.29
18.74
-6.10
-22.42
-31.38
-35.48
-38.21
-41.96
-47.82
-56.16
-65.11
-72.49
-77.11
-79.32
-78.04
-76.74
-77.73
-81.46
-87.69
-94.75
-100.56
-103.72
-103.94
-101.87
-99.30
-97.70
-96.93
-96.56
-95.57
-92.37
-85.83
-75.45
-61.46
-45.14
-27.60
-7.43
17.90
47.34
81.56
120.96
165.58
215.12
269.04
314.44
341.65
345.25
324.58
282.10
221.02
146.40
66.34
-9.08
-70.81
-112.33
-133.23
-138.41
-134.52
-127.15
-119.01
-110.57
-101.94
-94.11
-87.39
-82.13
-78.25
-74.79
-70.72
-64.89
-57.10
-48.18
-39.81
-32.81
-27.53
-23.73
-20.57
-17.15
-12.55
-6.55
0.34
6.84
12.04
15.25
16.26
15.35
12.87
9.64
6.17
2.49
-1.81
-7.23
-14.14
-22.60
-31.37
-40.09
-47.74
-53.40
-56.52
-57.27
-56.43
-55.07
-54.23
-54.44
-55.75
-57.38
-58.55
-58.54
-57.15
-54.74
-51.92
-49.59
-48.84
-50.94
-56.31
-64.01
-71.00
-72.76
-64.92
-45.10
-14.43
22.61
59.38
89.12
106.49
108.66
95.59
69.79
36.35
1.87
-26.83
-44.83
-50.30
-45.11
-33.70
-21.12
-11.51
-7.13
-9.18
-17.74
-31.47
-47.01
-59.07
-62.07
-51.92
-30.24
-2.61
23.13
40.40
46.44
43.05
34.85
26.63
21.07
18.14
16.46
14.46
11.57
8.23
5.36
3.49
2.69
2.60
2.37
1.51
-0.23
-2.74
-5.55
-7.96
-9.13
-8.40
-5.46
-0.59
5.54
11.98
18.02
23.35
28.21
33.27
39.33
47.03
56.89
69.34
84.23
100.08
113.55
119.86
114.47
95.46
65.05
29.33
-3.94
-28.66
-42.78
-48.49
-50.20
-51.75
-54.19
-55.93
-54.45
-48.35
-38.68
-28.31
-20.38
-16.03
-14.80
-14.15
-10.84
-3.16
8.53
21.56
31.91
36.30
32.96
22.11
5.33
-15.08
-36.30
-54.16
-63.59
-60.00
-41.89
-12.99
17.63
38.70
41.57
24.27
-6.90
-40.63
-65.88
-76.50
-72.98
-60.44
-44.98
-29.56
-15.89
-2.92
10.51
24.16
36.41
45.02
48.44
46.55
40.54
32.30
23.97
17.05
11.43
5.80
-1.21
-9.67
-17.85
-22.98
-23.36
-18.95
-11.66
-3.60
4.85
16.33
34.98
63.22
98.57
132.77
154.90
156.43
136.30
102.07
67.09
43.91
38.20
46.49
58.71
64.28
57.11
38.07
13.35
-8.59
-21.07
-21.06
-9.33
10.56
33.53
53.25
65.56
64.99
49.35
22.65
-4.89
-20.14
-12.52
21.51
76.78
141.66
202.32
247.94
273.13
277.74
265.11
240.04
207.54
172.30
138.67
110.20
89.32
76.60
70.27
67.01
62.88
54.93
42.10
25.09
5.62
-14.50
-34.06
-53.09
-72.38
-92.93
-115.35
-139.41
-164.38
-189.38
-213.85
-237.72
-261.69
-286.81
-314.20
-344.32
-376.41
-408.61
-437.87
-460.54
-472.57
-470.72
-453.77
-423.47
-384.32
-341.68
-299.82
-260.85
-225.74
-196.43
-176.83
-171.82
-183.67
-209.01
-238.09
-258.16
-259.11
-238.23
-201.43
-159.46
-122.47
-95.14
-76.13
-60.46
-43.26
-22.15
2.74
29.65
57.16
84.48
112.01
140.82
172.97
211.39
259.15
318.05
386.27
457.51
521.25
565.60
580.85
562.67
513.84
443.83
366.71
298.03
251.10
233.20
243.04
270.23
298.17
309.63
292.71
245.88
178.89
109.50
56.36
31.52
35.81
59.23
86.47
102.94
99.76
75.37
34.31
-15.35
-65.12
-108.49
-140.79
-158.93
-163.25
-159.07
-156.44
-166.53
-196.51
-245.37
-305.40
-363.64
-406.35
-424.41
-416.04
-385.75
-340.36
-285.98
-227.65
-172.84
-129.33
-102.73
-94.21
-99.35
-109.15
-113.10
-103.50
-67.29
-7.10
59.78
112.38
140.83
149.50
149.06
148.71
151.55
158.59
168.12
179.86
195.33
215.33
237.80
256.53
262.05
247.32
211.16
156.37
88.72
14.50
-61.59
-131.24
-184.79
-212.85
-210.81
-181.37
-134.62
-83.50
-38.23
-3.01
24.23
46.21
67.25
88.19
102.66
103.75
87.05
53.84
10.88
-32.65
-70.15
-100.22
-127.63
-157.14
-194.55
-243.37
-302.40
-365.43
-423.13
-466.72
-490.66
-494.24
-480.58
-454.68
-420.90
-381.26
-335.68
-283.67
-226.27
-166.87
-110.40
-60.98
-20.33
13.13
42.91
72.54
103.62
135.32
164.83
188.88
205.69
215.58
221.30
227.42
239.23
261.06
294.45
336.73
380.58
415.69
431.42
420.37
380.15
313.90
228.92
134.60
40.73
-43.56
-110.49
-154.76
-174.31
-171.19
-150.76
-119.97
-85.22
-50.88
-19.08
9.45
34.34
55.81
74.75
94.11
118.66
152.77
197.62
249.01
297.49
330.98
339.73
318.29
269.46
203.19
133.42
74.30
36.90
27.16
45.60
88.75
146.10
205.87
256.14
287.27
294.39
278.24
243.91
198.79
151.98
105.74
61.63
19.07
-22.88
-63.62
-100.16
-127.99
-142.74
-139.52
-122.59
-95.79
-63.86
-30.14
5.19
45.12
92.95
130.95
177.96
222.33
254.52
267.54
260.05
236.94
207.15
179.09
157.11
143.42
131.16
116.54
97.97
76.39
54.59
35.22
18.04
-0.95
-25.30
-62.04
-113.57
-180.15
-260.95
-352.82
-449.95
-544.61
-629.14
-695.15
-738.97
-759.37
-759.73
-747.17
-727.47
-702.31
-669.91
-628.10
-574.63
-509.33
-432.80
-340.46
-236.99
-133.97
-40.90
45.13
130.07
212.32
288.35
354.67
408.78
449.14
477.65
499.11
518.64
538.59
559.28
581.08
604.23
628.61
651.98
670.79
680.06
673.79
645.77
592.91
517.45
425.62
325.11
222.19
121.51
26.43
-60.61
-138.42
-206.41
-264.67
-315.11
-361.72
-409.66
-462.27
-518.86
-573.84
-618.32
-643.20
-642.97
-618.57
-577.38
-530.41
-487.41
-453.24
-426.71
-402.43
-374.21
-337.85
-292.67
-240.52
-184.37
-126.39
-67.41
-7.12
55.39
121.17
191.15
265.72
344.00
422.57
495.11
553.07
588.25
596.12
577.87
540.53
494.16
447.93
407.02
371.63
338.05
300.90
255.69
200.52
136.95
70.13
8.27
-39.00
-63.30
-61.13
-36.45
-0.23
32.74
49.75
44.88
20.79
-13.90
-49.44
-79.72
-104.16
-126.04
-149.61
-177.28
-209.45
-245.65
-285.60
-329.17
-374.49
-416.65
-448.23
-462.35
-456.02
-432.12
-398.29
-363.63
-334.92
-314.63
-301.21
-291.00
-280.43
-267.03
-249.33
-226.02
-195.35
-155.25
-103.41
-37.93
42.18
135.56
237.54
339.59
430.60
499.78
539.79
549.53
533.73
500.44
457.29
409.04
357.48
302.73
245.61
188.47
135.29
90.52
58.72
44.10
50.06
77.82
124.15
180.31
233.20
269.03
278.00
257.74
213.34
154.43
90.92
29.40
-27.67
-80.80
-131.57
-181.95
-233.91
-289.58
-350.82
-417.40
-485.65
-548.18
-595.83
-621.10
-620.98
-598.21
-560.00
-515.16
-471.11
-432.31
-400.19
-374.13
-352.60
-333.66
-315.35
-295.64
-273.01
-246.59
-216.35
-182.59
-145.42
-104.43
-58.55
-6.79
51.03
113.49
177.95
240.81
298.61
349.11
391.77
428.07
461.17
495.13
533.69
578.80
628.99
678.58
719.07
741.85
741.69
718.85
678.43
627.89
573.40
517.56
458.94
394.68
323.15
246.24
168.54
94.88
28.48
-30.09
-81.78
-128.38
-170.87
-210.02
-245.87
-278.37
-307.90
-333.65
-353.26
-362.96
-360.33
-347.89
-331.84
-320.10
-313.94
-312.35
-311.19
-307.09
-295.07
-274.39
-242.17
-202.82
-162.35
-126.44
-98.85
-78.85
-61.62
-39.82
-8.28
34.50
85.41
139.96
194.79
247.80
297.74
341.15
371.60
380.51
362.27
318.17
258.16
197.37
148.19
115.37
93.96
74.24
47.34
10.89
-30.98
-71.32
-105.04
-132.42
-156.68
-180.20
-200.92
-212.75
-209.06
-187.65
-153.44
-116.43
-88.01
-75.29
-78.68
-92.49
-108.47
-119.86
-123.21
-118.85
-108.27
-93.11
-74.10
-51.79
-27.70
-4.25
15.33
29.09
36.69
40.31
43.35
49.03
59.53
75.12
95.27
118.88
145.28
173.38
201.35
225.99
242.80
247.49
236.74
209.92
168.18
114.55
52.99
-11.29
-71.41
-119.89
-149.63
-157.62
-145.75
-121.54
-95.02
-74.98
-66.25
-68.53
-78.85
-93.01
-108.49
-123.66
-137.17
-147.17
-151.13
-147.72
-137.21
-122.44
-106.79
-93.28
-82.81
-73.91
-63.79
-49.38
-29.73
-5.68
19.12
40.22
53.52
56.94
51.25
39.06
24.49
10.35
-1.72
-12.46
-23.55
-36.28
-50.48
-63.67
-72.73
-74.30
-67.45
-53.23
-34.68
-15.27
2.56
17.32
29.00
37.22
41.93
42.67
39.78
34.82
30.22
28.91
32.28
40.38
51.11
61.80
69.95
74.35
75.39
73.98
71.50
67.95
62.90
55.13
44.03
30.24
15.55
2.85
-6.00
-9.90
-9.95
-8.15
-6.76
-7.25
-9.49
-12.66
-15.14
-16.52
-16.86
-17.34
-18.93
-21.79
-25.29
-27.96
-29.15
-28.63
-27.62
-27.28
-28.32
-30.20
-31.08
-29.20
-23.15
-13.51
-1.90
9.14
17.63
22.81
25.02
25.83
26.22
26.94
27.35
26.45
23.29
17.63
10.47
2.91
-3.55
-8.70
-12.60
-15.90
-18.84
-20.98
-21.69
-19.98
-16.13
-10.70
-5.16
-0.52
2.90
5.53
8.56
12.22
16.36
19.38
19.80
16.64
10.33
2.81
-3.63
-6.65
-5.83
-1.78
3.40
7.68
9.80
9.53
7.94
5.89
4.41
3.33
2.34
0.93
-0.98
-2.88
-4.43
-5.02
-5.15
-5.19
-5.82
-7.06
-8.33
-8.98
-8.25
-6.52
-4.25
-2.62
-2.26
-3.32
-5.25
-6.86
-7.30
-5.50
-1.56
4.35
11.30
18.31
24.25
27.83
28.26
24.74
18.04
9.63
2.21
-1.65
-0.47
5.54
14.01
22.22
27.44
29.05
27.96
26.13
25.44
26.21
27.51
26.73
21.56
10.41
-6.10
-24.79
-40.33
-46.12
-37.07
-11.34
27.10
69.48
103.73
118.61
107.04
68.34
9.27
-58.49
-120.26
-163.24
-179.32
-167.66
-134.59
-90.85
-48.43
-15.73
3.52
11.00
10.95
7.79
4.54
2.22
1.57
2.83
6.67
12.78
19.74
25.26
26.93
23.86
16.52
7.23
-1.72
-8.16
-11.31
-11.34
-9.00
-5.72
-2.54
-1.10
-2.21
-6.37
-12.71
-19.25
-23.57
-23.35
-18.31
-9.46
0.33
8.40
12.96
13.87
12.54
10.36
8.53
6.44
3.27
-1.94
-8.80
-15.48
-19.57
-18.75
-12.84
-3.04
7.59
16.36
21.71
23.93
24.92
26.28
29.07
32.14
33.81
32.35
27.58
21.07
15.18
12.25
12.46
14.72
16.38
15.60
12.06
7.35
4.32
4.98
10.18
18.14
26.30
31.95
33.88
32.84
30.57
29.39
30.17
32.92
36.02
37.64
35.87
28.94
15.39
-6.53
-37.15
-75.38
-117.02
-155.83
-184.84
-198.81
-196.42
-180.16
-155.79
-128.92
-103.78
-81.69
-61.99
-43.53
-25.57
-8.85
5.93
17.95
27.53
35.26
41.63
46.67
49.55
49.75
46.91
42.11
36.80
32.68
30.74
30.82
32.00
32.49
31.01
26.61
19.72
11.68
4.57
0.76
1.60
7.41
16.36
25.82
32.63
34.74
31.81
25.12
17.26
10.50
6.70
6.16
8.53
12.79
17.83
22.80
26.71
29.05
29.04
26.65
21.92
15.31
7.54
-0.71
-8.38
-14.69
-18.34
-18.62
-14.94
-7.60
2.33
13.33
23.25
30.52
33.55
32.02
26.24
17.53
8.00
-0.17
-4.59
-4.25
1.14
10.11
20.63
30.33
37.39
41.26
42.07
41.13
39.29
37.46
35.76
34.03
32.02
29.31
25.89
21.22
15.19
7.36
-2.10
-12.64
-23.29
-32.63
-39.84
-44.11
-45.73
-44.92
-42.25
-37.94
-31.97
-24.64
-16.29
-8.44
-2.54
-0.31
-2.35
-8.12
-15.87
-23.10
-28.09
-29.72
-28.82
-26.74
-25.18
-24.96
-25.79
-26.78
-26.44
-24.22
-19.58
-12.73
-3.62
7.79
21.35
36.63
52.13
66.43
77.67
84.93
87.76
86.23
80.32
69.40
53.19
31.75
7.36
-16.08
-33.26
-39.48
-32.50
-13.46
12.72
39.72
60.99
72.23
71.51
59.16
36.85
6.64
-28.36
-64.57
-97.03
-121.08
-133.04
-131.79
-119.01
-98.09
-73.48
-48.45
-25.53
-5.88
9.79
21.32
29.17
34.08
37.51
40.17
42.45
43.58
42.78
39.75
35.05
30.12
25.73
22.38
19.20
15.47
10.82
5.86
1.85
-0.44
-0.59
0.32
1.34
1.42
0.40
-1.35
-3.48
-5.60
-8.18
-11.14
-14.61
-17.84
-20.01
-20.44
-18.82
-15.86
-12.19
-9.02
-6.65
-5.35
-4.78
-4.56
-4.70
-5.18
-6.81
-9.87
-14.71
-20.67
-26.63
-31.11
-32.88
-32.07
-29.63
-27.88
-28.63
-32.96
-40.10
-47.85
-53.81
-56.00
-54.57
-50.74
-47.16
-46.05
-48.80
-55.42
-64.41
-73.50
-79.19
-78.44
-68.57
-49.15
-22.21
7.84
35.22
55.13
64.56
63.85
55.17
42.18
28.22
15.80
6.66
1.38
0.28
2.45
6.76
11.37
14.81
16.35
15.88
14.15
11.50
8.75
6.36
5.60
8.10
15.53
28.81
46.64
66.27
83.24
93.90
96.15
90.57
79.80
66.93
54.73
44.02
35.05
27.32
21.13
17.22
16.41
19.04
24.07
30.05
34.82
37.15
36.54
33.66
29.82
26.10
23.71
22.84
23.80
26.19
29.57
33.06
35.53
35.72
31.97
23.75
11.03
-4.62
-21.02
-35.85
-47.35
-54.60
-57.38
-56.60
-52.74
-46.54
-38.46
-29.16
-19.98
-12.58
-8.37
-7.94
-11.47
-18.00
-26.13
-34.07
-39.78
-41.42
-37.27
-25.75
-6.77
17.98
46.37
76.90
109.63
145.67
184.88
224.66
260.23
284.81
292.29
280.42
251.99
213.59
172.85
135.18
95.04
50.28
2.35
-43.31
-80.17
-104.26
-115.39
-116.24
-110.87
-103.20
-94.32
-84.41
-72.76
-58.65
-42.54
-25.72
-10.08
2.69
11.16
16.09
18.81
20.61
22.66
24.73
26.01
25.44
22.38
16.54
9.69
3.67
0.68
2.33
7.54
13.80
17.73
15.58
4.14
-17.35
-49.07
-90.61
-132.67
-168.43
-193.56
-220.00
-256.46
-309.10
-370.79
-434.48
-492.42
-537.89
-567.33
-580.48
-560.10
-498.77
-402.79
-289.55
-179.69
-87.48
-17.48
33.79
74.14
112.19
152.68
195.47
236.65
272.53
299.14
314.48
320.09
318.61
312.66
302.39
287.08
266.94
243.67
220.62
192.35
161.05
129.67
100.05
71.50
42.54
12.72
-16.97
-44.49
-67.84
-84.69
-94.98
-100.24
-103.26
-106.23
-110.09
-114.82
-118.51
-118.95
-113.23
-100.07
-79.50
-52.91
-22.22
10.56
41.31
67.55
88.01
103.36
114.62
122.86
128.95
133.16
135.13
134.17
130.29
123.85
116.20
108.87
103.10
99.66
98.94
100.97
105.38
111.06
115.05
113.12
101.06
76.96
42.97
5.08
-29.09
-53.45
-65.56
-67.27
-62.81
-56.20
-49.51
-42.58
-34.52
-25.16
-15.62
-7.58
-2.25
0.47
1.85
3.37
5.99
9.14
11.03
9.41
2.65
-9.47
-25.47
-42.31
-57.31
-68.50
-75.59
-79.69
-82.64
-86.12
-90.77
-95.90
-99.94
-101.63
-100.27
-96.50
-91.79
-87.82
-85.98
-87.11
-91.47
-98.48
-106.57
-112.51
-112.20
-102.30
-81.21
-51.16
-17.84
11.79
32.38
41.92
42.48
37.95
32.27
27.49
23.84
20.57
17.43
15.27
15.28
18.54
24.78
32.86
41.21
48.46
54.04
58.16
61.46
64.32
66.73
68.02
67.26
63.34
56.25
46.52
34.99
22.76
10.63
-0.74
-11.02
-20.06
-27.56
-33.38
-37.41
-39.88
-41.16
-41.78
-41.89
-41.28
-39.29
-34.91
-27.43
-16.75
-3.75
10.15
23.48
35.30
45.41
54.38
63.17
72.71
83.65
96.38
110.93
125.49
137.88
144.19
140.25
123.80
96.31
63.08
31.57
8.44
-3.06
-3.88
2.09
10.41
18.21
24.64
29.97
34.14
36.17
34.42
27.69
16.01
0.73
-16.03
-31.80
-45.41
-56.65
-66.19
-74.80
-82.95
-90.41
-96.47
-100.24
-101.39
-99.85
-96.50
-92.13
-87.42
-82.89
-78.37
-73.30
-67.15
-59.29
-49.86
-39.21
-28.14
-17.32
-7.33
1.53
9.44
16.42
22.88
28.76
34.13
38.79
42.50
45.14
46.42
46.52
45.29
43.08
39.96
36.26
32.32
28.12
24.00
19.80
15.92
12.29
9.45
7.58
6.99
7.99
10.00
12.76
15.45
17.85
19.48
20.51
21.20
21.74
22.51
22.72
22.00
19.51
15.17
8.99
1.62
-5.88
-12.90
-18.83
-24.56
-30.71
-38.43
-48.15
-60.27
-75.42
-94.39
-118.90
-146.00
-174.01
-200.29
-222.33
-238.35
-247.74
-251.02
-248.34
-239.52
-223.27
-199.70
-170.13
-137.93
-107.63
-82.73
-64.73
-52.07
-42.07
-31.75
-20.29
-8.07
4.26
16.37
29.07
43.54
61.25
82.52
107.54
135.89
166.82
198.75
227.67
247.48
250.59
230.93
186.18
118.86
35.33
-57.03
-151.17
-241.33
-321.31
-383.91
-421.10
-426.82
-400.40
-347.69
-280.15
-210.01
-146.48
-92.69
-46.63
-3.95
38.96
82.53
124.83
162.37
192.83
215.52
232.01
245.69
260.91
282.51
314.31
358.20
411.90
468.90
519.59
554.17
567.21
559.48
538.57
514.72
497.12
489.55
489.87
492.38
490.33
479.37
457.14
423.66
379.87
328.39
273.15
218.85
169.89
127.25
88.60
48.33
2.04
-50.74
-104.44
-148.99
-174.74
-176.68
-158.06
-128.24
-99.10
-79.52
-72.96
-78.08
-90.46
-106.26
-122.82
-139.45
-155.15
-167.84
-174.25
-171.79
-160.97
-144.58
-127.67
-114.49
-107.79
-107.85
-112.55
-117.95
-121.72
-124.80
-129.30
-138.54
-154.50
-178.08
-209.78
-247.82
-286.82
-322.13
-352.05
-375.61
-393.91
-408.86
-422.45
-437.74
-453.76
-462.77
-458.57
-440.05
-409.58
-373.68
-341.17
-319.50
-315.20
-327.28
-344.01
-355.28
-356.42
-346.45
-328.48
-308.33
-270.50
-210.33
-160.78
-132.72
-117.70
-111.45
-108.99
-104.57
-92.35
-66.66
-27.05
26.42
102.98
198.62
298.13
385.04
448.53
485.95
500.91
496.72
477.78
452.16
423.60
392.97
361.72
331.34
303.34
278.52
255.38
232.66
212.20
193.96
177.13
161.88
148.37
136.87
127.08
117.58
107.55
98.32
90.53
84.48
82.58
82.91
83.61
82.61
78.24
70.22
60.40
51.27
45.32
44.19
47.09
51.88
55.40
55.29
50.95
43.92
37.23
34.83
40.27
54.38
75.05
96.88
112.85
115.48
99.18
62.87
12.38
-40.38
-81.84
-101.20
-90.05
-46.80
20.49
96.21
163.90
213.58
243.96
259.08
264.10
262.11
254.26
239.17
212.87
173.29
122.71
69.81
25.60
-2.30
-26.04
-55.66
-97.59
-148.66
-205.42
-261.89
-311.68
-351.77
-383.82
-411.20
-436.63
-460.79
-487.26
-517.27
-547.53
-572.52
-588.67
-596.39
-597.14
-592.84
-548.87
-448.91
-301.61
-134.92
22.42
153.05
242.54
299.80
333.09
349.86
351.61
340.39
321.48
300.06
278.85
256.65
231.32
198.89
157.66
104.86
42.10
-23.25
-79.80
-116.37
-126.64
-110.55
-77.01
-39.25
-12.88
-7.37
-21.59
-44.72
-61.67
-60.98
-38.99
-2.55
36.56
66.54
82.37
87.19
88.20
90.71
93.80
91.82
78.54
53.18
22.02
-4.31
-16.57
-12.59
1.60
15.65
21.22
16.27
5.57
-2.98
-3.45
4.91
17.75
28.86
33.54
30.63
22.11
11.16
0.45
-8.91
-16.94
-23.93
-29.69
-33.55
-34.89
-33.61
-30.55
-27.09
-24.79
-24.68
-26.97
-30.89
-34.85
-37.08
-35.93
-30.52
-20.81
-7.71
7.13
21.59
33.42
40.79
42.55
38.77
30.69
20.60
11.19
4.87
3.30
6.93
15.07
25.76
36.30
43.79
46.09
42.69
34.98
25.92
18.43
14.16
12.07
9.05
1.61
-11.94
-29.96
-48.11
-61.23
-66.18
-63.35
-57.30
-54.47
-60.11
-75.84
-99.22
-125.11
-147.60
-161.65
-163.12
-150.09
-123.16
-85.68
-44.09
-6.93
17.69
26.05
21.66
15.42
19.60
42.04
82.77
134.08
184.41
223.68
247.53
258.21
262.42
264.37
262.91
252.94
229.34
190.82
141.84
91.59
43.64
6.62
-13.67
-20.49
-24.38
-34.65
-52.80
-72.23
-85.28
-87.31
-78.30
-64.12
-53.13
-51.28
-59.90
-75.82
-93.95
-109.74
-120.46
-125.04
-125.00
-123.26
-122.30
-123.59
-128.03
-136.31
-148.44
-162.34
-173.01
-174.42
-161.49
-131.89
-87.45
-34.10
19.73
66.02
99.91
120.70
130.25
131.27
126.28
117.54
107.39
98.10
91.45
88.53
89.31
92.46
95.64
96.68
94.52
89.80
83.74
77.89
74.10
74.14
78.80
87.37
97.48
105.57
108.19
101.66
84.29
58.55
31.41
12.30
9.76
28.02
65.08
113.45
160.56
193.45
203.58
189.31
154.82
107.33
54.42
-2.32
-54.36
-92.00
-110.03
-109.83
-95.42
-70.77
-39.79
-6.98
22.77
45.26
55.73
51.92
36.12
15.15
-2.32
-8.90
-0.51
24.62
66.30
116.12
159.63
181.95
174.74
138.80
82.29
17.37
-43.74
-96.05
-138.73
-171.56
-194.71
-208.49
-214.10
-214.20
-212.98
-216.69
-223.26
-234.33
-250.10
-268.37
-284.45
-293.36
-292.14
-281.59
-266.16
-251.96
-244.91
-246.90
-254.97
-262.66
-262.54
-248.80
-218.79
-173.38
-116.41
-54.36
5.71
57.42
95.75
117.91
123.66
115.30
97.25
75.22
54.70
40.06
33.72
35.42
42.35
50.47
55.87
55.63
48.15
32.88
10.43
-16.80
-44.39
-66.31
-76.20
-69.76
-46.12
-8.25
38.16
86.44
130.59
166.18
190.47
202.72
203.77
195.97
182.20
165.32
147.45
129.82
113.29
98.48
86.07
75.85
66.55
55.87
41.61
23.31
2.99
-14.96
-25.96
-27.14
-19.11
-5.66
7.73
15.87
15.56
5.84
-12.28
-36.77
-64.78
-93.08
-118.02
-136.02
-144.73
-143.70
-134.97
-122.30
-110.08
-101.77
-98.89
-100.77
-104.85
-108.06
-107.48
-101.64
-90.49
-75.15
-56.85
-35.82
-11.25
18.50
54.01
93.80
133.86
169.30
196.85
216.66
232.19
247.10
262.29
273.68
274.32
258.11
223.94
177.14
126.88
82.28
48.14
24.55
8.26
-4.17
-14.36
-22.18
-26.95
-29.22
-30.55
-32.87
-36.62
-40.37
-41.28
-36.08
-22.93
-2.06
23.04
46.49
61.26
61.90
46.97
20.02
-11.25
-38.61
-56.16
-63.04
-62.82
-61.33
-63.80
-72.50
-86.98
-104.58
-122.70
-139.10
-152.11
-160.15
-161.48
-155.07
-141.01
-121.11
-97.73
-73.14
-48.22
-22.65
4.09
31.98
59.48
84.57
105.37
121.62
134.74
146.99
160.25
174.36
187.28
195.09
193.87
180.75
155.20
119.52
78.35
38.32
6.01
-13.28
-17.57
-8.64
8.44
26.97
40.86
46.17
42.14
30.25
13.46
-5.29
-23.73
-39.97
-52.52
-59.67
-60.07
-52.81
-38.43
-19.06
1.59
18.81
28.04
25.71
10.55
-16.07
-49.62
-83.02
-108.32
-119.20
-113.88
-96.20
-74.59
-58.12
-52.40
-56.99
-66.09
-72.43
-71.34
-63.36
-52.84
-44.67
-40.28
-36.51
-27.65
-9.11
19.12
51.94
80.97
98.25
99.16
83.89
57.12
26.19
-0.87
-17.69
-20.97
-11.43
6.55
26.57
42.34
49.94
48.75
41.23
31.20
22.19
16.26
13.65
13.51
14.43
15.27
15.14
13.69
11.02
7.52
3.46
-1.73
-9.08
-19.62
-32.62
-44.84
-51.05
-46.32
-28.89
-1.65
28.27
52.94
66.96
70.07
66.70
63.08
64.18
71.24
82.41
94.51
105.55
115.53
125.32
134.83
141.14
138.91
122.23
88.25
39.71
-14.31
-60.63
-87.10
-87.58
-65.34
-31.67
-1.32
13.93
9.82
-9.91
-36.63
-62.31
-83.01
-100.02
-117.44
-138.81
-164.36
-190.19
-209.91
-216.60
-205.59
-175.61
-129.85
-75.25
-20.72
24.98
55.86
69.31
65.95
47.93
18.11
-20.35
-63.53
-105.92
-141.00
-162.25
-164.96
-147.32
-110.92
-60.81
-5.09
46.24
83.88
101.93
100.82
87.92
74.95
72.95
86.97
113.91
144.18
167.33
177.15
174.54
165.78
157.92
154.52
153.55
149.54
137.04
114.19
83.67
51.37
23.59
4.09
-6.90
-12.34
-16.14
-21.23
-28.26
-35.61
-40.46
-40.69
-36.36
-29.56
-23.56
-20.72
-21.12
-22.63
-22.04
-17.20
-8.11
2.89
12.72
19.12
21.63
21.46
20.26
19.41
19.20
19.23
18.88
18.05
17.25
17.44
19.67
24.25
30.34
35.12
34.54
24.91
4.87
-23.13
-53.09
-77.35
-89.82
-88.15
-74.63
-54.72
-34.42
-18.13
-7.36
-1.56
0.81
0.92
-0.70
-3.75
-7.58
-10.89
-12.40
-11.09
-7.01
-1.24
4.48
8.57
10.31
9.97
8.70
7.59
7.36
7.95
8.63
8.72
7.62
5.28
1.85
-2.22
-6.51
-10.52
-13.61
-15.27
-15.02
-13.01
-9.76
-6.30
-3.71
-2.73
-3.57
-5.80
-8.75
-11.57
-13.72
-14.88
-14.95
-14.07
-12.34
-9.94
-6.89
-3.40
0.46
4.33
7.79
10.38
11.67
11.65
10.50
8.81
7.11
5.81
4.96
4.24
3.30
1.85
0.07
-1.66
-2.83
-3.18
-2.73
-1.72
-0.55
0.65
1.77
3.00
4.39
5.89
7.27
8.16
8.34
7.71
6.63
5.55
5.03
5.47
6.86
8.87
10.76
11.86
11.55
9.76
6.74
3.11
-0.34
-3.03
-4.56
-4.92
-4.31
-3.17
-1.93
-1.00
-0.63
-0.83
-1.42
-2.00
-2.18
-1.65
-0.44
1.13
2.71
3.87
4.53
4.67
4.51
4.14
3.50
2.53
1.12
-0.55
-2.30
-3.78
-4.88
-5.57
-5.90
-6.01
-5.78
-5.18
-4.08
-2.61
-0.99
0.42
1.29
1.52
1.14
0.47
-0.29
-0.96
-1.53
-2.08
-2.65
-3.28
-3.80
-4.12
-4.10
-3.79
-3.40
-3.15
-3.38
-4.22
-5.77
-7.73
-9.73
-11.22
-11.84
-11.50
-10.35
-8.82
-7.23
-5.85
-4.69
-3.75
-3.03
-2.55
-2.40
-2.48
-2.57
-2.21
-1.06
1.03
3.80
6.69
9.13
10.62
11.15
10.87
10.23
9.57
8.96
8.33
7.48
6.40
5.15
4.01
3.10
2.41
1.78
1.00
0.04
-1.01
-1.84
-2.32
-2.41
-2.31
-2.32
-2.61
-3.23
-3.95
-4.61
-5.03
-5.26
-5.49
-5.91
-6.70
-7.80
-9.09
-10.32
-11.31
-11.88
-11.87
-11.20
-9.72
-7.51
-4.65
-1.51
1.51
4.05
5.88
7.10
7.86
8.46
8.89
9.12
8.92
8.18
7.02
5.65
4.43
3.49
2.92
2.51
2.04
1.40
0.53
-0.33
-1.05
-1.42
-1.51
-1.44
-1.42
-1.66
-2.20
-3.02
-3.94
-4.97
-6.09
-7.42
-9.00
-10.72
-12.33
-13.37
-13.55
-12.69
-11.00
-8.88
-6.84
-5.38
-4.77
-5.09
-6.10
-7.52
-8.94
-10.02
-10.62
-10.68
-10.39
-9.89
-9.32
-8.61
-7.68
-6.45
-4.90
-3.22
-1.61
-0.36
0.48
0.86
0.93
0.87
0.79
0.83
0.91
1.03
1.07
1.11
1.20
1.44
1.86
2.31
2.69
2.88
3.01
3.25
3.84
4.86
6.17
7.56
8.71
9.54
9.98
10.05
9.75
9.02
7.87
6.33
4.63
2.82
1.06
-0.71
-2.52
-4.26
-5.83
-6.90
-7.32
-6.96
-5.99
-4.67
-3.26
-1.99
-0.87
0.05
0.83
1.33
1.50
1.24
0.55
-0.39
-1.35
-2.05
-2.42
-2.44
-2.33
-2.29
-2.50
-3.00
-3.56
-3.94
-3.77
-2.97
-1.65
-0.15
1.05
1.69
1.69
1.33
0.88
0.62
0.51
0.31
-0.17
-1.03
-1.98
-2.69
-2.79
-2.37
-1.78
-1.55
-2.13
-3.47
-5.21
-6.69
-7.48
-7.46
-6.95
-6.45
-6.33
-6.77
-7.48
-8.21
-8.66
-8.83
-8.78
-8.58
-8.24
-7.62
-6.65
-5.25
-3.61
-1.85
-0.17
1.31
2.64
3.75
4.66
5.15
5.12
4.45
3.20
1.62
-0.07
-1.48
-2.47
-2.86
-2.76
-2.26
-1.55
-0.83
-0.10
0.52
1.10
1.49
1.62
1.30
0.41
-1.02
-2.86
-4.71
-6.30
-7.33
-7.83
-7.98
-7.98
-8.03
-8.08
-8.10
-7.90
-7.49
-6.88
-6.12
-5.30
-4.32
-3.21
-1.91
-0.63
0.45
1.07
1.12
0.72
0.04
-0.63
-1.21
-1.65
-2.05
-2.45
-2.80
-3.04
-3.05
-2.90
-2.63
-2.43
-2.40
-2.61
-3.11
-3.83
-4.76
-5.70
-6.58
-7.16
-7.36
-7.19
-6.77
-6.38
-6.17
-6.21
-6.26
-6.09
-5.43
-4.14
-2.31
-0.07
2.27
4.53
6.43
7.87
8.66
8.62
7.77
6.15
4.07
1.81
-0.27
-1.96
-3.09
-3.65
-3.66
-3.19
-2.38
-1.28
-0.11
1.01
1.89
2.40
2.51
2.27
1.85
1.40
1.15
1.17
1.40
1.74
2.03
2.33
2.69
3.34
4.25
5.33
6.28
6.82
6.90
6.70
6.61
6.92
7.68
8.59
9.17
9.04
8.02
6.33
4.30
2.33
0.64
-0.73
-1.84
-2.76
-3.48
-3.95
-4.05
-3.85
-3.43
-3.05
-2.91
-3.08
-3.45
-3.75
-3.76
-3.27
-2.36
-1.27
-0.25
0.46
0.91
1.10
1.10
0.78
-0.09
-1.72
-4.14
-7.01
-9.84
-11.94
-12.91
-12.63
-11.30
-9.34
-7.18
-5.17
-3.39
-1.90
-0.52
0.81
2.11
3.29
4.18
4.71
4.89
4.97
5.08
5.36
5.69
5.78
5.46
4.59
3.37
2.00
0.73
-0.48
-1.73
-3.13
-4.73
-6.29
-7.64
-8.54
-9.02
-9.19
-9.24
-9.23
-9.06
-8.62
-7.77
-6.54
-5.00
-3.28
-1.43
0.51
2.45
4.32
5.81
6.76
6.93
6.31
5.05
3.45
1.85
0.52
-0.34
-0.81
-0.95
-0.92
-0.81
-0.59
-0.19
0.53
1.50
2.62
3.60
4.22
4.40
4.10
3.44
2.43
1.13
-0.47
-2.30
-4.24
-6.10
-7.56
-8.47
-8.66
-8.22
-7.31
-6.24
-5.26
-4.50
-3.99
-3.53
-2.98
-2.15
-1.10
-0.00
0.95
1.60
1.94
2.05
2.15
2.29
2.53
2.79
2.96
2.99
2.85
2.65
2.44
2.34
2.36
2.43
2.50
2.48
2.43
2.38
2.39
2.40
2.31
1.98
1.30
0.35
-0.74
-1.68
-2.40
-2.84
-3.13
-3.47
-3.87
-4.26
-4.35
-3.95
-2.88
-1.30
0.41
1.79
2.42
2.24
1.45
0.60
0.11
0.32
1.15
2.28
3.38
4.12
4.55
4.75
4.98
5.31
5.66
5.88
5.79
5.38
4.69
3.95
3.20
2.49
1.74
0.79
-0.31
-1.46
-2.37
-2.88
-2.87
-2.52
-2.10
-1.81
-1.84
-2.04
-2.30
-2.39
-2.31
-2.08
-1.77
-1.48
-1.13
-0.75
-0.30
0.10
0.35
0.31
0.01
-0.37
-0.63
-0.54
-0.11
0.59
1.30
1.80
2.01
1.98
1.87
1.80
1.90
2.09
2.24
2.18
1.71
0.80
-0.55
-2.09
-3.59
-4.72
-5.29
-5.30
-4.80
-4.07
-3.26
-2.52
-1.85
-1.29
-0.83
-0.54
-0.49
-0.57
-0.65
-0.45
0.12
1.10
2.31
3.45
4.31
4.67
4.61
4.23
3.72
3.19
2.65
2.14
1.64
1.31
1.28
1.72
2.59
3.65
4.59
4.96
4.62
3.55
2.18
0.86
-0.04
-0.45
-0.52
-0.43
-0.43
-0.51
-0.74
-1.05
-1.53
-2.29
-3.39
-4.87
-6.52
-8.16
-9.51
-10.51
-11.08
-11.26
-11.15
-10.78
-10.28
-9.75
-9.41
-9.39
-9.77
-10.51
-11.36
-12.12
-12.59
-12.80
-12.87
-13.07
-13.56
-14.45
-15.76
-17.49
-19.71
-22.51
-25.98
-30.07
-34.63
-39.36
-43.93
-48.23
-52.29
-56.49
-61.33
-67.29
-74.58
-82.97
-91.82
-100.19
-107.34
-112.92
-117.31
-121.53
-126.92
-134.62
-144.94
-156.95
-168.25
-175.44
-174.93
-164.29
-143.21
-113.78
-79.80
-45.10
-12.12
18.77
48.78
79.34
110.59
140.72
166.94
186.53
198.76
205.37
210.16
217.63
231.69
254.73
286.89
326.05
367.29
403.37
425.95
427.56
404.43
357.97
294.58
223.38
153.22
89.86
35.08
-12.17
-53.20
-86.80
-108.51
-111.72
-90.95
-44.71
22.77
102.02
180.65
246.28
289.94
307.26
298.64
267.10
217.76
157.12
92.87
33.22
-14.71
-45.82
-58.32
-54.04
-39.45
-23.21
-13.43
-15.25
-29.77
-54.17
-82.47
-107.40
-123.04
-130.06
-134.16
-143.12
-162.33
-192.24
-228.29
-262.89
-288.52
-300.91
-304.17
-306.53
-315.99
-336.75
-369.14
-411.73
-463.08
-521.26
-561.13
-559.57
-505.43
-408.21
-291.21
-178.17
-84.84
-17.76
24.63
49.24
61.12
63.85
59.37
50.03
38.03
27.41
21.60
22.91
32.41
47.23
63.71
78.59
90.82
101.35
111.74
123.30
137.44
156.14
176.97
198.69
221.30
246.43
275.64
307.95
338.38
359.03
361.93
341.39
297.99
237.69
170.47
106.30
51.66
7.96
-27.19
-56.88
-83.03
-104.25
-117.02
-116.23
-97.23
-58.62
-3.63
59.91
121.61
171.56
203.40
214.56
206.60
183.44
148.80
105.84
57.63
8.39
-36.84
-68.90
-82.85
-80.04
-63.96
-41.42
-20.19
-7.40
-8.02
-24.03
-53.26
-90.15
-125.78
-148.80
-149.15
-120.65
-63.52
14.90
101.56
181.48
241.50
274.07
278.47
258.70
221.16
172.22
117.38
61.18
7.65
-40.12
-80.55
-114.02
-143.24
-171.77
-202.18
-234.34
-265.53
-291.73
-309.48
-316.72
-312.63
-297.21
-271.72
-239.63
-207.51
-183.97
-176.28
-186.12
-207.50
-228.65
-237.83
-229.80
-208.33
-183.61
-165.36
-156.52
-151.17
-138.50
-109.83
-64.20
-9.31
42.99
82.81
106.57
117.09
120.69
122.85
125.78
128.39
128.27
123.96
115.88
106.07
97.24
91.41
89.29
90.18
92.55
94.60
95.06
93.36
89.62
84.46
78.40
71.59
63.61
53.94
42.32
29.41
16.71
6.14
-0.65
-3.19
-2.28
0.07
1.76
1.34
-1.32
-5.04
-8.08
-8.82
-6.60
-1.73
4.65
11.23
16.89
20.86
22.83
22.72
20.74
17.27
13.01
8.74
5.19
2.90
1.98
2.38
3.73
5.72
8.02
10.33
12.47
14.25
15.61
16.47
16.93
16.98
16.66
15.96
14.86
13.36
11.43
9.13
6.46
3.61
0.68
-2.13
-4.62
-6.69
-8.20
-9.20
-9.70
-9.83
-9.62
-9.16
-8.46
-7.51
-6.36
-4.99
-3.59
-2.25
-1.10
-0.18
0.65
1.53
2.65
3.99
5.50
6.97
8.14
8.85
8.93
8.43
7.39
6.02
4.45
2.90
1.57
0.58
0.10
-0.01
0.12
0.09
-0.47
-1.84
-4.03
-6.67
-9.28
-11.33
-12.67
-13.50
-14.33
-15.73
-17.92
-20.66
-23.27
-25.00
-25.29
-24.19
-22.19
-20.00
-18.34
-17.49
-17.48
-18.00
-18.67
-18.85
-17.80
-14.64
-8.61
0.37
11.54
23.23
33.66
41.55
46.77
50.13
52.78
55.50
58.09
59.72
59.39
56.60
51.63
45.27
38.49
31.93
26.06
20.96
16.82
13.64
11.26
9.44
7.71
5.79
3.58
1.32
-0.65
-1.88
-2.11
-1.36
0.25
2.29
4.37
5.97
6.75
6.54
5.49
4.02
2.63
1.84
1.81
2.51
3.59
4.66
5.37
5.53
5.18
4.43
3.59
2.82
2.28
2.01
1.92
1.93
1.90
1.82
1.60
1.35
1.07
0.80
0.56
0.21
-0.32
-1.26
-2.63
-4.48
-6.63
-8.88
-11.02
-12.80
-14.12
-14.82
-14.85
-14.21
-13.02
-11.49
-9.87
-8.34
-6.83
-5.22
-3.29
-0.98
1.54
4.06
6.26
8.03
9.26
10.05
10.34
10.04
9.10
7.51
5.53
3.47
1.80
0.69
0.14
-0.10
-0.39
-0.87
-1.61
-2.32
-2.77
-2.72
-2.17
-1.31
-0.42
0.22
0.51
0.36
-0.07
-0.69
-1.36
-1.95
-2.36
-2.46
-2.23
-1.56
-0.60
0.59
1.84
3.09
4.35
5.67
7.09
8.53
9.91
10.95
11.51
11.49
10.91
9.93
8.70
7.44
6.27
5.31
4.60
4.09
3.77
3.46
3.14
2.69
2.12
1.45
0.77
0.20
-0.18
-0.29
-0.27
-0.23
-0.49
-1.18
-2.35
-3.90
-5.60
-7.25
-8.64
-9.76
-10.47
-10.70
-10.35
-9.31
-7.65
-5.53
-3.29
-1.19
0.57
1.98
3.16
4.14
5.03
5.68
6.05
6.00
5.56
4.80
3.93
3.19
2.75
2.76
3.14
3.82
4.58
5.19
5.47
5.28
4.62
3.55
2.39
1.36
0.70
0.51
0.60
0.77
0.68
0.22
-0.70
-1.98
-3.48
-5.07
-6.52
-7.64
-8.15
-7.93
-6.97
-5.59
-4.18
-3.11
-2.58
-2.43
-2.45
-2.33
-2.05
-1.67
-1.29
-0.95
-0.51
0.16
1.15
2.29
3.31
3.90
3.87
3.29
2.38
1.49
0.81
0.46
0.38
0.46
0.62
0.74
0.80
0.73
0.58
0.28
-0.16
-0.78
-1.62
-2.65
-3.82
-4.97
-6.01
-6.77
-7.14
-7.08
-6.46
-5.33
-3.76
-2.01
-0.38
0.80
1.34
1.32
0.93
0.52
0.24
0.23
0.38
0.57
0.75
0.92
1.24
1.74
2.50
3.31
4.04
4.59
4.92
5.14
5.35
5.66
5.95
6.19
6.20
5.90
5.35
4.60
3.81
3.06
2.47
1.94
1.46
0.85
-0.07
-1.37
-3.10
-5.07
-6.97
-8.42
-9.16
-9.08
-8.28
-7.10
-5.79
-4.62
-3.62
-2.76
-1.94
-1.08
-0.14
0.94
2.13
3.52
5.00
6.41
7.50
8.01
7.86
7.13
6.13
5.16
4.48
4.09
3.83
3.51
2.92
2.10
1.08
0.00
-1.08
-2.15
-3.21
-4.25
-5.14
-5.83
-6.22
-6.35
-6.37
-6.47
-6.78
-7.25
-7.74
-8.00
-7.87
-7.27
-6.32
-5.17
-3.95
-2.73
-1.42
-0.02
1.49
2.97
4.29
5.30
5.95
6.29
6.33
6.13
5.63
4.84
3.78
2.60
1.55
0.78
0.40
0.26
0.19
-0.04
-0.53
-1.21
-1.98
-2.73
-3.50
-4.33
-5.31
-6.42
-7.52
-8.48
-9.14
-9.48
-9.54
-9.40
-9.13
-8.71
-8.12
-7.31
-6.38
-5.33
-4.34
-3.48
-2.84
-2.48
-2.39
-2.52
-2.69
-2.81
-2.68
-2.33
-1.81
-1.22
-0.79
-0.67
-0.97
-1.65
-2.63
-3.73
-4.80
-5.78
-6.67
-7.64
-8.81
-10.35
-12.28
-14.47
-16.66
-18.52
-19.82
-20.38
-20.32
-19.87
-19.55
-19.87
-21.30
-23.96
-27.31
-30.07
-30.34
-26.27
-16.77
-2.14
15.86
34.60
51.40
64.48
73.15
77.77
79.04
77.62
73.99
68.48
61.63
54.11
46.68
39.72
33.27
27.02
20.56
13.69
6.50
-0.56
-6.96
-12.13
-15.72
-17.74
-18.42
-18.26
-17.72
-17.15
-16.67
-16.21
-15.62
-14.86
-14.02
-13.26
-12.82
-12.75
-13.03
-13.55
-14.11
-14.57
-14.75
-14.55
-13.85
-12.66
-11.10
-9.40
-7.91
-6.82
-6.24
-6.06
-6.11
-6.17
-6.14
-6.04
-5.81
-5.47
-4.91
-4.12
-3.11
-2.02
-1.00
-0.17
0.42
0.88
1.23
1.53
1.64
1.46
0.93
0.09
-0.89
-1.86
-2.66
-3.28
-3.68
-3.88
-3.91
-3.79
-3.66
-3.60
-3.77
-4.18
-4.82
-5.50
-6.00
-6.21
-5.94
-5.22
-4.05
-2.61
-1.08
0.34
1.51
2.49
3.32
4.24
5.32
6.60
7.89
8.87
9.28
8.87
7.69
5.96
4.10
2.49
1.42
0.94
0.86
0.92
0.83
0.56
0.15
-0.18
-0.25
-0.04
0.42
0.92
1.34
1.56
1.59
1.41
0.96
0.19
-0.96
-2.27
-3.42
-3.88
-3.38
-1.85
0.42
2.98
5.57
8.12
10.79
13.69
16.66
19.14
20.44
20.08
18.00
14.71
10.87
7.06
3.44
-0.15
-3.93
-7.92
-11.72
-14.73
-16.32
-16.27
-14.74
-12.23
-9.39
-6.63
-4.22
-2.22
-0.75
0.04
-0.08
-1.32
-3.57
-6.57
-9.74
-12.59
-14.71
-15.98
-16.47
-16.35
-15.78
-14.71
-13.16
-11.05
-8.54
-5.90
-3.39
-1.22
0.65
2.32
4.01
5.68
7.13
8.07
8.17
7.42
6.03
4.41
2.90
1.72
0.86
0.16
-0.45
-1.01
-1.35
-1.37
-1.06
-0.59
-0.25
-0.23
-0.60
-1.08
-1.45
-1.42
-1.02
-0.44
0.03
0.14
-0.13
-0.67
-1.22
-1.69
-2.01
-2.21
-2.30
-2.16
-1.75
-1.02
-0.14
0.68
1.15
1.15
0.70
0.00
-0.63
-1.11
-1.38
-1.61
-1.95
-2.47
-3.08
-3.53
-3.62
-3.12
-2.09
-0.69
0.84
2.30
3.62
4.78
5.91
7.00
8.09
9.00
9.47
9.27
8.23
6.44
4.15
1.83
-0.20
-1.77
-2.98
-4.07
-5.10
-6.01
-6.37
-5.81
-4.08
-1.37
1.86
5.01
7.54
9.30
10.28
10.70
10.60
9.96
8.68
6.73
4.35
1.99
0.22
-0.62
-0.52
0.09
0.57
0.42
-0.50
-1.91
-3.37
-4.51
-5.32
-6.15
-7.40
-9.34
-11.75
-14.09
-15.58
-15.72
-14.39
-11.97
-9.19
-6.84
-5.56
-5.63
-6.85
-8.62
-10.04
-10.09
-7.87
-3.01
4.23
12.77
20.84
26.50
28.20
25.44
18.98
10.76
3.23
-1.43
-2.06
1.07
6.57
12.31
16.32
17.29
14.90
9.74
2.98
-4.13
-10.78
-16.73
-22.40
-28.35
-35.00
-42.15
-49.08
-54.85
-58.74
-60.65
-60.98
-60.50
-59.70
-58.80
-57.80
-56.81
-56.33
-56.87
-58.45
-59.80
-58.59
-52.06
-38.51
-18.27
6.28
31.46
53.94
71.55
84.02
92.26
97.81
102.13
106.50
112.55
122.45
138.80
163.57
196.79
235.68
274.57
306.32
324.26
324.52
307.34
277.19
241.03
205.82
176.22
152.98
133.33
112.41
85.91
52.25
13.80
-23.58
-52.20
-64.84
-57.07
-28.51
16.48
69.69
120.75
159.77
180.09
180.06
163.30
136.96
108.90
85.09
68.29
58.27
53.01
49.96
46.55
40.08
27.56
6.09
-26.46
-70.90
-126.65
-192.12
-264.65
-340.01
-411.93
-472.47
-513.69
-530.21
-521.57
-492.76
-452.48
-409.82
-371.20
-338.80
-311.00
-284.16
-254.27
-217.76
-171.29
-111.51
-36.29
53.42
151.96
249.44
334.42
397.74
435.69
450.82
450.04
440.86
428.42
414.18
397.14
375.93
350.53
322.25
292.65
262.32
230.06
193.89
152.28
105.19
54.26
2.32
-47.11
-90.47
-124.52
-147.35
-159.10
-162.89
-164.64
-171.16
-187.19
-212.55
-241.61
-265.35
-275.94
-270.43
-252.36
-229.69
-210.53
-199.34
-195.42
-194.76
-192.75
-186.64
-175.70
-160.41
-141.41
-119.21
-95.33
-72.55
-54.70
-44.61
-42.48
-45.41
-48.60
-47.78
-40.70
-27.96
-11.88
4.69
19.20
29.58
34.05
31.77
23.30
11.35
-0.13
-7.32
-8.32
-3.97
2.64
7.27
6.40
-2.27
-19.06
-42.34
-68.32
-91.17
-104.08
-101.18
-80.21
-44.10
-0.92
38.69
65.22
73.46
64.05
42.62
18.02
-0.30
-4.25
11.03
45.72
94.71
147.96
192.98
217.87
215.24
184.56
132.41
70.44
11.50
-33.82
-59.81
-65.83
-55.52
-34.96
-10.91
10.48
24.78
29.63
25.15
13.59
-1.35
-15.71
-26.57
-32.65
-34.66
-34.35
-33.69
-33.89
-35.24
-37.16
-38.70
-39.47
-39.89
-41.65
-46.75
-56.38
-69.90
-84.38
-95.69
-100.24
-96.83
-87.03
-74.64
-63.77
-57.09
-55.05
-56.06
-58.04
-59.41
-59.76
-59.43
-58.63
-56.84
-52.77
-45.26
-33.90
-19.86
-5.48
6.58
14.44
17.82
17.86
16.49
15.15
14.41
13.84
12.79
11.12
9.16
7.60
6.97
7.23
7.75
7.67
6.35
3.65
0.15
-3.31
-5.70
-6.46
-5.61
-3.73
-1.67
-0.13
0.58
0.71
0.62
0.65
0.82
0.87
0.58
-0.00
-0.37
0.03
1.60
4.18
7.07
9.44
10.69
10.87
10.51
10.41
11.02
12.32
13.85
14.98
15.50
15.55
15.72
16.45
17.90
19.67
21.04
21.31
20.02
17.26
13.40
9.12
5.01
1.52
-1.09
-2.74
-3.36
-3.09
-1.98
-0.24
1.96
4.36
6.69
8.70
10.17
11.05
11.42
11.58
11.87
12.54
13.72
15.28
17.03
18.73
20.33
21.82
23.26
24.58
25.58
26.04
25.69
24.47
22.32
19.34
15.65
11.52
7.30
3.34
-0.00
-2.65
-4.68
-6.33
-7.85
-9.35
-10.83
-12.13
-13.15
-13.81
-14.09
-13.93
-13.21
-11.89
-9.92
-7.52
-4.90
-2.42
-0.28
1.38
2.51
3.05
2.89
1.99
0.36
-1.69
-3.66
-5.00
-5.34
-4.65
-3.17
-1.37
0.43
2.01
3.42
4.82
6.36
8.14
10.00
11.79
13.24
14.17
14.44
14.03
13.06
11.71
10.23
8.74
7.35
6.08
4.94
4.05
3.54
3.53
4.00
4.85
5.84
6.74
7.42
7.76
7.87
7.77
7.52
7.10
6.47
5.60
4.47
3.22
1.96
0.95
0.24
-0.18
-0.46
-0.74
-1.01
-1.20
-1.07
-0.63
0.03
0.63
0.91
0.83
0.56
0.50
0.89
1.81
2.99
4.01
4.56
4.46
3.92
3.20
2.71
2.56
2.75
3.03
3.09
2.80
2.14
1.38
0.73
0.41
0.40
0.63
0.97
1.33
1.76
2.17
2.54
2.60
2.19
1.23
-0.09
-1.42
-2.42
-2.87
-2.81
-2.38
-1.73
-0.94
0.01
1.07
2.20
3.15
3.83
4.12
4.12
3.90
3.51
3.02
2.33
1.54
0.64
-0.24
-0.97
-1.44
-1.51
-1.17
-0.43
0.46
1.25
1.66
1.58
1.11
0.50
0.04
-0.19
-0.22
-0.29
-0.52
-0.89
-1.24
-1.29
-0.94
-0.19
0.65
1.25
1.30
0.75
-0.07
-0.64
-0.31
1.20
3.77
6.75
9.30
10.72
10.74
9.66
8.07
6.62
5.62
4.98
4.39
3.56
2.45
1.29
0.49
0.34
0.93
2.03
3.23
4.15
4.54
4.43
3.95
3.35
2.79
2.34
2.03
1.82
1.77
1.85
2.03
2.19
2.24
2.13
1.89
1.63
1.35
1.06
0.67
0.15
-0.35
-0.59
-0.30
0.49
1.61
2.65
3.35
3.58
3.56
3.57
3.76
4.11
4.32
4.16
3.48
2.40
1.17
0.08
-0.60
-0.89
-0.78
-0.47
-0.13
0.10
0.10
-0.15
-0.67
-1.29
-2.01
-2.76
-3.56
-4.44
-5.40
-6.42
-7.38
-8.22
-8.80
-9.08
-8.95
-8.34
-7.23
-5.70
-3.94
-2.11
-0.42
1.08
2.39
3.57
4.64
5.55
6.28
6.71
6.89
6.75
6.27
5.44
4.28
2.93
1.58
0.47
-0.29
-0.61
-0.56
-0.13
0.67
1.80
3.22
4.69
5.96
6.79
7.07
6.87
6.35
5.74
5.05
4.21
2.96
1.12
-1.42
-4.47
-7.59
-10.26
-11.95
-12.49
-11.96
-10.73
-9.17
-7.46
-5.56
-3.30
-0.70
2.03
4.41
6.03
6.73
6.72
6.44
6.17
6.01
5.67
4.81
3.31
1.36
-0.49
-1.71
-1.91
-1.16
0.18
1.60
2.62
3.05
2.94
2.56
2.02
1.44
0.65
-0.57
-2.31
-4.49
-6.71
-8.59
-9.82
-10.41
-10.49
-10.30
-9.94
-9.30
-8.33
-6.89
-5.19
-3.48
-2.09
-1.19
-0.72
-0.50
-0.24
0.17
0.82
1.54
2.10
2.27
1.78
0.59
-1.26
-3.44
-5.60
-7.28
-8.05
-7.68
-6.09
-3.61
-0.69
1.98
3.84
4.58
4.25
3.20
1.80
0.33
-1.29
-3.12
-5.17
-7.22
-8.86
-9.83
-10.13
-10.17
-10.29
-10.61
-10.76
-10.24
-8.82
-6.66
-4.51
-2.85
-1.76
-0.50
1.84
5.66
10.30
13.96
14.70
11.19
3.65
-6.40
-16.89
-26.12
-33.49
-39.34
-44.55
-49.74
-55.08
-60.09
-64.03
-66.33
-66.74
-65.50
-63.05
-60.11
-57.17
-54.41
-51.58
-48.08
-43.37
-37.06
-29.10
-19.55
-8.56
3.72
17.06
31.10
45.42
59.48
73.05
86.04
98.51
110.36
121.17
130.25
136.64
139.59
138.50
133.38
124.65
113.14
99.94
86.01
72.17
58.61
45.33
32.21
19.47
7.69
-2.37
-10.00
-15.00
-17.62
-18.61
-18.73
-18.59
-18.38
-17.88
-16.74
-14.59
-11.59
-8.08
-4.69
-1.81
0.67
3.16
6.18
9.88
14.05
18.06
21.36
23.70
24.98
24.93
22.71
17.58
9.22
-1.54
-13.26
-24.70
-35.69
-47.34
-60.83
-76.49
-92.56
-105.99
-113.77
-114.59
-109.76
-102.26
-95.13
-89.49
-84.42
-77.56
-66.90
-52.04
-33.92
-14.20
5.67
24.58
41.38
54.16
60.57
59.02
50.12
37.55
26.74
22.75
27.49
38.72
51.10
58.79
58.36
49.68
35.75
20.47
7.06
-2.82
-9.03
-11.93
-11.88
-8.70
-2.30
7.06
18.11
28.84
37.14
41.50
41.95
39.72
36.93
35.34
35.72
37.61
39.75
41.05
40.98
40.06
39.36
39.96
42.37
46.30
50.67
53.84
54.42
51.33
44.25
33.46
19.92
5.34
-8.35
-19.44
-27.44
-32.96
-37.71
-43.30
-50.35
-58.10
-64.71
-68.60
-69.27
-67.72
-65.47
-63.47
-61.17
-56.88
-49.14
-37.86
-25.14
-14.09
-7.32
-5.75
-8.23
-12.24
-15.24
-16.14
-15.19
-13.76
-13.04
-13.21
-13.51
-12.54
-9.43
-4.09
2.37
8.46
12.80
14.78
14.80
13.77
12.89
12.75
13.40
14.08
13.85
11.89
7.99
2.67
-3.18
-8.29
-11.75
-12.85
-11.43
-7.71
-2.12
4.65
12.04
19.40
26.40
32.76
38.37
43.27
47.65
51.84
55.83
59.48
62.14
63.21
62.45
60.23
57.62
55.74
55.44
56.60
58.46
60.04
60.82
61.08
61.47
62.49
63.50
62.99
58.92
50.04
36.53
20.19
3.87
-10.04
-20.35
-27.78
-34.08
-41.03
-49.38
-58.50
-66.89
-72.82
-75.43
-74.62
-71.13
-65.90
-59.65
-52.85
-45.54
-37.67
-28.89
-19.00
-7.94
3.99
16.01
27.20
36.57
43.61
48.19
50.52
50.79
49.13
45.82
41.23
36.12
31.02
26.28
21.62
16.52
10.69
4.44
-1.19
-5.05
-6.19
-4.61
-0.94
3.84
8.81
13.44
17.23
19.96
21.22
21.02
19.75
18.16
16.91
15.67
13.08
6.73
-5.39
-24.03
-47.60
-72.59
-94.78
-110.43
-117.74
-116.71
-109.10
-97.41
-84.42
-72.59
-63.66
-58.56
-56.66
-56.49
-55.61
-51.75
-43.63
-31.54
-17.38
-3.85
6.26
11.51
11.67
7.69
0.84
-7.84
-17.53
-27.42
-36.03
-41.59
-42.36
-37.63
-27.87
-14.36
1.38
18.47
36.27
54.06
70.49
83.83
92.80
97.25
98.23
96.69
92.74
84.69
70.05
47.14
16.50
-18.85
-54.63
-87.11
-114.90
-138.83
-160.99
-183.04
-204.90
-224.51
-238.58
-244.01
-238.80
-222.64
-196.75
-163.40
-125.59
-86.46
-49.11
-15.92
11.75
33.72
50.71
63.80
73.99
81.98
88.42
93.92
99.23
104.89
110.90
116.70
121.32
124.04
124.71
124.16
123.60
124.12
126.02
128.51
130.15
129.39
125.40
118.24
108.89
98.64
88.42
78.60
68.77
58.39
46.99
34.78
22.43
11.00
1.46
-5.54
-9.78
-11.60
-11.49
-10.11
-8.12
-6.04
-4.44
-3.93
-5.12
-8.12
-12.55
-17.06
-19.80
-19.14
-14.34
-6.24
3.09
10.89
15.06
14.57
9.87
2.34
-6.57
-15.49
-23.64
-30.16
-34.32
-35.34
-32.81
-26.96
-18.54
-9.01
0.36
8.28
14.09
17.40
18.11
16.51
13.05
8.68
4.31
0.98
-0.91
-1.42
-1.09
-0.60
-0.23
0.13
1.34
4.02
8.44
13.74
18.09
19.30
15.36
5.78
-8.58
-25.09
-40.57
-52.01
-57.41
-56.38
-49.71
-39.46
-27.72
-16.88
-8.71
-4.39
-4.43
-8.29
-15.07
-23.17
-31.38
-38.47
-43.79
-46.81
-47.11
-44.57
-39.33
-32.51
-25.42
-19.76
-16.54
-15.80
-16.58
-17.13
-16.11
-12.74
-7.56
-1.72
3.17
5.75
5.45
2.33
-2.53
-7.66
-10.77
-9.82
-3.01
10.37
29.35
51.56
73.28
91.09
102.37
106.68
105.40
101.22
97.00
94.42
94.01
94.71
95.20
94.06
90.38
83.70
73.77
60.74
44.90
27.30
9.42
-6.80
-19.83
-28.99
-34.54
-37.58
-39.16
-39.97
-39.60
-37.30
-32.25
-24.33
-14.65
-4.86
3.31
9.54
15.03
22.12
32.53
45.83
58.99
66.86
64.99
51.34
27.72
-1.14
-29.60
-53.24
-70.20
-80.38
-84.91
-84.73
-81.05
-75.83
-72.26
-74.24
-84.26
-102.18
-124.02
-143.84
-155.90
-157.41
-149.65
-136.82
-124.25
-115.50
-111.94
-112.39
-114.73
-116.57
-115.61
-109.71
-96.19
-73.20
-39.84
2.13
48.48
93.11
129.68
153.96
164.49
163.57
155.20
143.98
133.03
123.55
115.39
107.62
100.15
92.85
86.14
79.55
72.03
62.37
49.67
34.48
17.91
1.91
-12.29
-23.97
-33.07
-39.92
-44.54
-47.48
-49.04
-50.32
-52.21
-55.63
-60.54
-65.73
-69.31
-68.99
-64.20
-55.81
-46.75
-40.14
-37.79
-39.14
-41.15
-40.46
-34.50
-23.73
-10.69
1.11
9.32
14.10
17.41
22.15
29.68
39.91
51.14
61.84
71.48
80.06
87.67
92.68
92.80
85.99
72.92
57.44
45.27
41.17
45.87
56.18
65.83
69.45
64.72
53.31
39.36
26.83
18.16
13.09
10.50
8.90
7.57
6.31
4.69
1.83
-4.26
-15.31
-32.56
-54.99
-79.54
-101.52
-116.31
-121.63
-118.03
-109.14
-99.06
-90.80
-84.39
-77.25
-65.85
-47.64
-23.10
4.98
31.96
53.72
67.66
73.38
72.52
67.56
61.71
57.25
56.06
58.34
62.99
67.54
68.54
63.05
48.83
26.19
-2.88
-34.41
-63.94
-87.33
-101.61
-105.81
-100.42
-87.73
-70.38
-51.35
-33.07
-17.28
-5.15
3.10
7.47
8.92
8.44
7.34
6.58
6.56
7.20
7.77
7.89
7.07
5.63
3.93
2.53
1.94
2.24
3.65
5.74
8.26
10.52
12.08
12.69
12.42
11.83
11.16
10.85
10.80
11.21
12.39
14.84
18.93
24.22
29.95
34.51
36.99
36.95
35.06
32.57
30.59
29.98
30.54
31.97
33.35
34.05
33.44
30.99
26.48
19.52
10.25
-1.48
-15.34
-31.04
-47.86
-64.70
-80.24
-92.90
-101.85
-106.67
-108.14
-107.52
-106.13
-104.80
-103.50
-101.98
-99.63
-96.65
-93.48
-90.79
-88.73
-86.46
-82.74
-76.14
-66.44
-54.24
-41.09
-28.19
-15.87
-3.72
9.13
22.78
36.80
49.97
61.41
70.93
79.13
87.03
94.99
102.82
109.31
113.49
114.64
112.90
108.93
103.44
97.19
90.38
83.57
77.11
71.85
68.50
67.49
68.84
71.70
75.18
77.85
78.89
77.55
73.64
67.45
59.50
50.76
41.77
33.11
24.53
15.68
6.11
-4.21
-14.52
-23.87
-31.05
-35.91
-38.90
-41.40
-44.72
-49.51
-55.59
-61.66
-66.49
-68.81
-68.28
-65.02
-59.57
-52.52
-44.12
-34.90
-25.29
-16.50
-9.89
-6.99
-8.67
-14.55
-23.20
-32.08
-39.04
-42.49
-42.50
-40.24
-37.37
-35.35
-34.50
-34.56
-34.46
-33.56
-31.49
-28.64
-25.63
-22.88
-20.59
-18.09
-14.69
-9.61
-2.94
4.58
11.84
17.97
22.94
26.65
28.72
27.33
20.19
5.87
-14.48
-36.48
-54.28
-62.73
-60.49
-50.06
-36.54
-24.60
-16.24
-10.60
-5.30
0.98
7.91
13.47
15.99
15.25
12.84
11.42
12.95
18.14
25.92
34.54
42.14
47.64
50.98
52.87
54.87
58.28
64.05
71.81
80.08
86.77
89.96
88.92
83.84
75.72
65.10
52.09
36.57
19.07
1.46
-13.77
-24.29
-29.68
-31.31
-31.93
-33.83
-37.82
-43.14
-48.23
-52.41
-56.16
-61.39
-69.87
-82.19
-96.91
-110.82
-120.23
-122.16
-116.10
-103.85
-89.23
-76.15
-66.91
-61.35
-56.89
-50.43
-39.47
-23.73
-4.50
16.02
36.02
54.64
71.44
86.25
98.17
106.22
109.57
108.29
103.47
96.85
90.52
85.95
84.02
84.49
86.32
87.89
87.60
84.56
78.68
70.94
62.52
54.56
47.51
41.17
35.18
29.10
22.95
16.44
9.41
1.33
-7.94
-17.89
-27.22
-34.24
-38.07
-38.91
-38.60
-39.42
-43.07
-49.64
-57.34
-63.68
-66.34
-64.79
-59.87
-53.52
-47.50
-42.68
-39.09
-36.00
-32.93
-29.54
-26.12
-23.00
-20.42
-18.31
-16.21
-13.75
-10.56
-6.81
-2.82
0.81
3.70
5.75
7.16
8.49
10.05
12.05
14.09
15.66
16.25
15.74
14.58
13.40
13.07
13.92
15.91
18.42
20.65
21.83
21.41
19.33
15.65
10.89
5.63
0.67
-3.25
-5.64
-6.58
-6.82
-7.30
-8.92
-11.61
-14.46
-15.93
-14.91
-11.54
-7.50
-5.58
-8.35
-17.10
-30.96
-47.33
-62.89
-74.91
-82.21
-85.11
-85.30
-84.94
-86.50
-92.07
-102.84
-118.30
-135.57
-149.85
-155.86
-150.11
-132.76
-108.03
-82.42
-61.97
-49.71
-44.66
-43.27
-41.80
-38.52
-34.29
-31.37
-31.54
-34.62
-38.43
-39.98
-37.15
-29.93
-20.24
-10.89
-4.21
-1.04
-0.54
-1.05
-0.79
1.41
5.96
12.87
22.13
34.01
48.88
66.92
87.70
109.91
131.62
150.68
165.52
175.35
180.05
179.64
174.05
163.35
148.76
133.80
124.07
126.00
144.11
178.65
225.05
275.53
322.42
360.86
389.73
409.79
421.25
421.78
407.10
373.55
320.78
252.87
176.89
100.33
28.79
-34.22
-86.13
-124.24
-145.99
-151.09
-143.33
-130.86
-123.87
-130.64
-153.81
-189.23
-227.72
-258.81
-274.96
-273.87
-258.80
-236.80
-216.08
-203.08
-200.36
-205.94
-214.43
-219.95
-218.81
-211.07
-199.53
-187.01
-173.87
-157.29
-133.33
-100.18
-60.90
-23.42
2.58
10.28
-0.58
-23.33
-47.56
-64.25
-69.70
-66.65
-61.78
-61.44
-68.05
-78.99
-88.50
-91.17
-85.02
-72.52
-59.18
-50.75
-50.45
-57.73
-68.74
-78.14
-81.17
-75.20
-60.36
-39.05
-14.86
8.74
29.36
46.19
59.69
70.86
80.48
88.57
94.59
97.85
98.07
95.57
91.37
86.96
84.09
84.59
89.95
100.78
116.00
132.52
145.93
152.26
149.99
141.17
130.85
124.68
126.18
134.93
146.84
155.99
157.11
147.06
125.24
93.03
53.21
9.79
-32.08
-66.45
-87.66
-91.87
-78.25
-49.29
-10.37
31.21
67.46
90.98
96.08
79.95
43.30
-9.48
-70.84
-131.21
-180.69
-211.11
-217.92
-201.61
-167.88
-126.20
-86.85
-57.49
-41.07
-35.46
-35.55
-36.22
-34.55
-30.31
-24.81
-19.31
-13.97
-7.93
0.17
11.33
25.79
42.79
60.81
77.95
92.64
104.31
113.75
122.67
132.41
142.76
151.41
154.83
150.18
136.99
117.61
95.96
75.73
58.86
45.67
36.00
30.05
28.72
32.69
41.42
52.70
63.31
70.33
72.30
69.48
63.16
54.61
44.35
32.24
18.37
3.57
-10.47
-21.87
-29.52
-33.59
-35.24
-36.01
-36.91
-38.12
-39.22
-39.66
-39.16
-37.77
-35.78
-33.47
-31.27
-29.52
-28.61
-28.70
-29.51
-30.41
-30.74
-30.26
-29.39
-29.07
-30.20
-32.96
-36.65
-39.83
-41.07
-39.87
-36.84
-33.50
-31.41
-31.22
-32.22
-32.73
-30.92
-25.80
-17.69
-7.92
1.89
10.62
17.92
24.16
30.12
36.63
44.28
53.38
63.95
75.74
88.35
101.34
114.31
126.98
139.08
150.40
160.67
169.77
177.77
184.95
191.50
197.08
200.48
199.66
192.32
176.68
152.45
121.10
85.53
49.25
15.26
-14.72
-40.49
-62.96
-83.61
-104.01
-125.47
-148.76
-173.64
-198.52
-220.47
-235.99
-242.02
-237.28
-222.74
-201.20
-176.31
-151.28
-128.18
-107.85
-90.37
-75.53
-63.18
-53.25
-45.52
-39.65
-35.10
-31.37
-27.95
-24.42
-20.47
-15.85
-10.52
-4.45
2.28
9.57
17.27
25.12
32.71
39.50
45.03
49.05
51.77
53.82
56.13
59.47
64.23
70.35
77.58
85.79
95.22
106.48
120.22
136.70
155.45
175.18
193.98
209.73
220.62
225.34
223.16
213.67
196.73
172.53
141.95
106.90
70.41
36.09
6.88
-15.97
-33.66
-49.39
-66.83
-88.45
-114.31
-142.26
-168.99
-192.00
-210.71
-226.69
-242.85
-262.17
-286.82
-317.48
-352.95
-389.91
-423.03
-445.49
-450.50
-433.44
-393.82
-336.20
-268.98
-201.66
-141.63
-91.82
-50.62
-13.71
23.07
61.65
101.22
139.82
176.62
213.19
252.73
297.32
345.09
388.93
418.67
425.36
405.60
363.45
308.79
253.13
204.99
167.48
138.74
114.72
92.37
71.17
53.04
40.72
36.08
39.06
47.74
58.95
69.34
76.37
78.78
76.76
71.42
64.01
55.11
44.19
29.65
9.54
-17.67
-52.71
-95.36
-144.73
-199.28
-256.17
-310.67
-356.01
-384.27
-388.80
-367.04
-322.57
-264.98
-207.08
-160.28
-130.57
-116.85
-113.09
-112.76
-112.97
-115.71
-125.31
-144.05
-169.02
-192.75
-207.48
-209.92
-203.37
-195.22
-191.61
-192.84
-192.70
-182.30
-155.70
-113.76
-63.80
-15.53
23.91
52.81
74.31
93.22
112.59
132.02
148.24
157.15
156.26
145.80
128.67
109.31
91.73
78.09
68.09
59.37
48.92
34.72
16.95
-1.79
-17.48
-26.60
-27.83
-23.03
-16.47
-12.99
-15.83
-25.17
-38.30
-51.01
-59.63
-62.62
-60.91
-57.30
-55.16
-57.25
-64.87
-77.59
-93.24
-108.55
-120.12
-125.84
-126.37
-125.76
-130.80
-148.56
-182.81
-230.88
-283.20
-325.89
-345.58
-334.69
-294.31
-233.54
-166.05
-105.61
-62.16
-40.15
-38.79
-53.07
-75.25
-96.65
-109.70
-110.25
-98.64
-79.21
-57.88
-39.20
-24.64
-12.90
-1.76
10.07
22.27
34.00
45.38
58.35
76.17
101.36
133.13
166.22
191.67
199.65
183.56
143.31
86.11
24.38
-28.64
-63.90
-79.14
-78.20
-67.76
-53.26
-36.70
-17.20
6.47
33.25
59.43
80.15
92.27
96.26
96.24
97.95
106.11
122.48
145.27
170.04
191.35
204.72
208.15
202.95
193.61
186.28
186.41
196.36
213.95
232.84
244.74
242.63
223.72
190.88
151.71
115.87
91.45
82.35
87.38
101.53
118.63
134.00
146.24
156.92
168.79
183.26
199.21
213.43
222.66
225.80
224.68
223.03
224.02
228.22
233.18
234.79
229.99
218.89
205.15
194.43
191.78
199.45
216.35
238.87
262.28
281.93
294.03
296.35
288.52
272.29
250.87
227.54
204.24
180.76
155.29
126.10
93.14
58.44
25.39
-3.35
-27.34
-48.68
-71.04
-97.70
-130.17
-167.53
-206.59
-242.87
-271.97
-290.88
-298.97
-298.37
-293.22
-288.22
-286.68
-289.03
-292.59
-292.56
-284.09
-264.08
-232.28
-191.15
-144.95
-98.41
-55.97
-21.14
3.78
17.90
22.04
18.69
11.59
4.52
0.26
-0.09
2.90
7.77
13.01
17.59
21.02
22.82
22.03
17.15
6.71
-9.69
-30.66
-53.15
-73.45
-88.95
-99.53
-107.51
-116.23
-127.74
-141.32
-153.61
-160.56
-159.98
-152.88
-143.02
-134.64
-130.12
-129.02
-128.68
-125.87
-118.32
-105.29
-87.25
-65.27
-40.71
-15.38
8.35
27.89
40.92
46.23
43.89
35.01
21.27
4.67
-12.56
-27.97
-39.07
-44.03
-42.41
-35.48
-25.77
-16.07
-8.43
-3.51
-0.85
0.61
1.69
2.61
3.09
2.78
1.86
1.11
1.63
4.33
9.37
16.03
23.20
29.80
35.12
39.01
41.55
42.99
43.61
43.66
43.01
40.56
33.83
19.38
-5.25
-39.36
-77.71
-111.52
-131.72
-133.04
-116.58
-89.23
-60.37
-37.22
-21.85
-11.34
-0.86
12.46
27.61
40.68
48.17
49.77
49.01
50.85
58.46
71.09
84.55
94.05
97.21
95.52
93.40
95.46
103.87
117.51
133.23
147.72
159.20
167.65
173.70
177.15
176.31
168.42
151.14
124.55
91.89
58.84
31.34
12.75
2.39
-3.89
-11.04
-22.01
-36.17
-50.42
-61.43
-68.03
-71.67
-74.86
-79.20
-84.04
-87.18
-86.47
-81.56
-74.30
-67.95
-65.64
-69.02
-77.99
-90.91
-105.17
-117.76
-125.90
-127.67
-122.47
-111.08
-94.99
-75.74
-54.42
-31.82
-8.81
13.30
32.83
48.60
60.51
69.53
76.79
82.34
84.23
78.64
61.51
30.84
-11.28
-58.46
-101.41
-130.91
-141.15
-131.88
-108.40
-79.05
-51.82
-31.37
-18.08
-9.24
-1.31
7.96
18.76
29.68
39.12
46.31
51.69
56.50
61.81
67.71
72.80
74.85
71.78
62.77
48.60
31.24
12.88
-5.19
-22.76
-39.96
-56.31
-70.33
-80.01
-84.16
-83.45
-80.35
-77.93
-78.11
-80.50
-82.80
-82.35
-77.79
-69.86
-60.81
-52.99
-47.32
-42.91
-37.87
-30.97
-22.69
-15.29
-11.41
-12.41
-17.25
-22.65
-24.70
-20.81
-11.02
2.20
15.32
25.62
32.17
35.88
38.30
40.53
42.65
44.02
44.08
43.00
41.72
41.32
42.33
44.26
45.84
45.76
43.41
39.17
34.10
29.33
25.53
22.65
20.10
17.22
13.85
10.40
7.70
6.42
6.49
7.08
6.90
4.99
1.23
-3.51
-7.88
-10.84
-12.10
-12.22
-11.89
-11.40
-10.48
-8.73
-6.19
-3.63
-2.13
-2.31
-3.87
-5.61
-6.11
-4.43
-0.54
4.91
11.17
17.50
23.36
27.88
30.00
28.62
23.29
14.62
4.11
-6.21
-14.38
-18.73
-18.29
-13.00
-4.00
6.26
14.60
18.04
15.13
6.61
-4.82
-15.80
-23.75
-27.90
-29.14
-28.93
-28.28
-27.22
-25.12
-21.50
-16.63
-11.52
-7.35
-4.83
-3.65
-2.66
-0.36
4.25
11.04
18.95
26.36
31.88
34.83
35.40
34.35
32.48
30.40
28.39
26.63
25.40
25.21
26.57
29.72
34.35
39.70
44.67
48.11
49.04
46.86
41.43
33.19
23.16
12.80
3.56
-3.49
-8.02
-10.42
-11.63
-12.71
-14.52
-17.63
-22.18
-27.81
-33.82
-39.22
-42.90
-43.95
-42.05
-37.74
-32.48
-28.37
-27.59
-31.57
-40.37
-52.55
-65.85
-78.16
-88.54
-97.84
-108.14
-121.52
-138.89
-159.75
-182.78
-206.71
-230.90
-255.30
-280.33
-306.67
-335.08
-365.84
-397.68
-426.96
-447.71
-453.06
-437.91
-401.14
-346.45
-280.73
-211.21
-142.88
-77.38
-14.01
48.34
109.69
168.69
223.22
271.33
311.70
343.83
367.98
384.98
395.83
401.23
401.16
394.94
381.97
362.59
338.52
312.53
287.50
265.22
245.89
228.43
211.36
193.75
175.65
157.89
141.40
126.44
112.32
97.71
81.52
63.61
45.24
28.62
15.96
8.32
5.01
3.84
2.30
-1.14
-6.35
-11.74
-15.45
-16.32
-14.59
-11.59
-8.84
-7.11
-6.14
-5.02
-2.93
0.15
3.40
5.56
5.71
3.72
0.43
-2.77
-4.53
-4.19
-1.91
1.48
4.92
7.50
8.73
8.60
7.51
6.15
5.19
5.16
6.12
7.64
8.94
9.13
7.39
3.17
-3.57
-12.32
-21.98
-31.11
-38.25
-42.45
-43.55
-42.24
-39.75
-37.25
-35.23
-33.43
-31.14
-27.82
-23.45
-18.57
-13.74
-9.11
-4.19
1.67
8.66
15.98
21.98
24.83
23.56
18.83
12.77
8.03
6.49
8.31
11.98
15.23
16.38
15.08
12.27
9.33
7.17
5.78
4.68
3.62
3.02
3.68
6.06
9.66
13.11
14.94
14.54
12.30
9.21
6.02
2.89
-0.43
-3.75
-6.17
-6.39
-3.62
1.46
6.84
10.15
10.13
7.50
4.66
4.33
7.95
14.90
22.77
28.77
31.02
29.34
25.01
19.79
14.99
10.89
6.96
2.44
-2.98
-9.00
-14.89
-19.87
-23.61
-26.22
-28.13
-29.67
-30.86
-31.41
-31.09
-30.07
-28.97
-28.88
-30.80
-35.26
-41.99
-50.05
-58.10
-64.81
-69.22
-70.80
-69.67
-66.50
-62.31
-58.26
-55.27
-53.86
-54.15
-55.91
-58.59
-61.38
-62.97
-61.85
-56.72
-47.08
-33.78
-18.77
-4.57
6.73
14.13
18.06
19.95
21.69
24.84
30.10
37.22
45.09
52.16
56.98
58.64
56.98
52.56
46.42
39.70
33.46
28.52
25.36
24.14
24.58
25.97
27.50
28.49
28.60
27.88
26.43
24.36
21.68
18.59
15.62
13.62
13.31
14.75
17.06
18.56
17.60
13.55
7.45
1.91
-0.30
2.28
8.29
13.57
12.47
-0.15
-27.14
-68.48
-121.60
-182.14
-244.41
-301.70
-346.78
-373.21
-377.12
-358.70
-322.41
-275.45
-225.29
-177.35
-134.24
-96.30
-62.95
-33.59
-7.54
16.49
40.65
67.70
100.15
139.55
186.35
240.01
298.32
356.90
409.16
447.90
468.44
471.37
462.95
452.34
446.72
447.32
448.86
442.81
422.48
386.88
340.87
291.78
245.26
202.92
163.32
124.81
87.96
55.55
30.52
13.45
1.42
-10.84
-28.49
-54.20
-87.12
-123.66
-159.74
-193.03
-224.25
-256.83
-294.62
-338.74
-385.42
-426.07
-450.52
-451.54
-428.45
-387.34
-337.77
-287.91
-241.72
-199.31
-159.81
-124.43
-96.34
-78.39
-70.22
-67.55
-64.28
-56.12
-42.86
-27.70
-14.40
-4.29
4.45
15.33
30.63
49.70
69.13
84.65
93.42
95.28
92.59
88.86
87.08
88.41
91.89
95.34
96.78
95.73
93.55
92.55
94.42
99.05
104.70
108.71
109.16
105.92
100.86
96.84
96.18
99.21
103.86
106.34
102.89
91.75
73.92
52.77
32.30
15.38
3.00
-5.30
-10.19
-11.55
-8.81
-2.16
6.60
14.31
17.92
16.22
10.31
2.54
-5.23
-12.73
-20.78
-29.74
-38.61
-45.54
-49.88
-54.27
-64.42
-86.42
-122.49
-168.21
-213.07
-244.84
-255.31
-243.95
-217.68
-186.77
-159.87
-140.68
-127.96
-118.28
-109.23
-100.54
-93.28
-87.92
-83.12
-76.40
-66.16
-53.24
-40.94
-33.18
-32.16
-37.09
-44.40
-49.44
-48.60
-40.73
-27.37
-12.12
0.81
8.19
9.03
4.84
-1.16
-5.50
-6.12
-3.01
2.37
8.37
14.19
20.17
26.88
34.14
40.72
45.14
46.86
46.90
47.39
50.12
55.41
61.91
67.50
70.42
70.11
67.18
62.91
58.44
54.36
50.70
47.28
43.92
40.53
37.10
33.68
30.50
28.10
27.23
28.65
32.58
38.46
44.95
50.33
53.30
53.42
51.34
48.36
45.60
43.52
41.84
40.23
38.86
38.53
40.00
43.10
46.37
47.51
44.68
37.48
27.27
16.46
7.18
0.48
-3.78
-6.50
-8.55
-10.41
-12.27
-14.28
-16.66
-19.59
-23.01
-26.67
-30.39
-34.49
-39.69
-46.71
-55.37
-64.07
-69.96
-69.97
-62.33
-47.51
-28.48
-9.62
4.98
12.97
14.52
11.77
7.63
4.48
3.56
5.08
8.57
13.43
18.97
24.41
28.72
31.00
30.74
28.17
24.02
19.16
14.11
8.87
3.22
-2.83
-8.60
-12.98
-14.96
-14.36
-12.00
-9.27
-7.46
-7.28
-8.69
-11.12
-14.00
-16.94
-19.65
-21.55
-21.61
-18.57
-11.64
-1.23
10.88
21.81
28.56
29.30
23.97
14.32
3.20
-6.53
-12.91
-15.40
-14.59
-11.72
-7.96
-4.23
-1.07
1.17
2.20
1.82
-0.04
-3.20
-7.32
-11.95
-16.76
-21.56
-26.12
-30.07
-32.89
-34.10
-33.51
-31.44
-28.63
-25.97
-24.10
-23.29
-23.46
-24.22
-25.08
-25.56
-25.36
-24.30
-22.34
-19.63
-16.10
-11.48
-5.34
2.51
11.49
20.16
26.60
29.35
28.12
24.17
19.68
16.72
16.30
18.01
20.48
22.28
22.64
21.65
20.00
18.39
17.08
15.85
14.20
11.68
8.19
4.19
0.60
-1.53
-1.50
0.76
4.70
9.29
13.42
16.01
16.27
13.75
8.58
1.66
-5.45
-10.80
-12.63
-10.07
-3.63
5.04
13.76
20.79
25.35
27.61
28.13
27.40
25.64
22.95
19.70
16.55
14.27
13.34
13.63
14.50
15.00
14.32
12.09
8.45
3.94
-0.92
-5.71
-10.22
-14.35
-18.05
-21.09
-23.14
-23.76
-22.67
-20.06
-16.54
-13.12
-10.84
-10.46
-12.28
-16.09
-21.30
-26.94
-31.82
-34.54
-33.90
-29.24
-20.83
-9.95
1.53
11.84
20.02
26.30
31.72
37.50
44.33
52.07
59.84
66.66
71.88
75.49
77.85
79.24
79.52
78.11
74.48
68.58
61.17
53.57
47.03
42.12
38.59
35.65
32.54
29.02
25.33
22.01
19.32
17.11
15.01
12.68
10.01
6.95
3.38
-1.03
-6.46
-12.56
-18.30
-22.15
-22.81
-19.82
-13.96
-7.02
-1.04
2.53
3.28
1.88
-0.23
-1.68
-1.60
0.03
2.60
5.31
7.72
9.96
12.50
15.71
19.47
23.12
25.92
27.60
28.55
29.51
30.89
32.36
33.07
32.34
30.31
28.03
26.91
27.90
31.01
35.46
40.24
44.31
46.54
45.52
39.57
27.46
9.60
-11.46
-31.36
-45.64
-51.60
-49.39
-41.70
-32.21
-24.10
-19.08
-17.52
-18.98
-22.84
-28.37
-34.68
-40.44
-44.11
-44.45
-41.11
-34.96
-27.69
-21.41
-17.77
-17.53
-20.28
-24.67
-28.95
-31.70
-32.52
-31.97
-31.25
-31.34
-32.30
-33.31
-33.11
-30.88
-26.78
-21.95
-17.96
-16.12
-17.03
-20.48
-25.73
-31.77
-37.49
-41.66
-43.00
-40.51
-33.72
-22.98
-9.53
4.54
16.80
25.09
28.21
26.33
20.89
14.10
8.06
4.15
2.76
3.54
5.87
9.08
12.57
15.51
17.02
16.24
12.83
7.18
0.37
-6.02
-10.54
-12.13
-10.60
-6.86
-2.76
-0.49
-1.57
-5.96
-11.86
-16.54
-17.72
-14.77
-8.89
-2.34
2.89
5.96
7.16
7.26
6.65
5.15
2.51
-0.87
-3.82
-4.78
-2.82
1.58
6.64
10.02
10.01
6.38
0.52
-5.29
-8.94
-9.33
-6.85
-3.14
-0.39
-0.55
-4.62
-12.40
-22.64
-33.47
-42.89
-49.36
-52.19
-51.76
-49.26
-46.05
-43.00
-40.01
-36.44
-31.85
-26.50
-21.29
-17.00
-13.52
-9.56
-3.45
5.68
17.03
28.21
36.35
39.52
37.49
31.39
22.71
12.50
1.18
-10.75
-22.09
-30.85
-35.00
-33.67
-27.76
-19.75
-12.51
-8.11
-6.92
-7.67
-8.40
-7.59
-4.78
-0.45
4.62
10.09
16.04
22.58
29.07
34.01
35.57
32.53
25.01
14.64
3.87
-5.04
-10.79
-13.40
-13.96
-14.00
-14.89
-17.28
-20.93
-24.67
-26.85
-25.94
-21.24
-13.33
-4.06
4.09
9.00
9.64
6.47
1.01
-4.66
-8.80
-10.32
-9.01
-5.25
0.26
6.62
12.70
17.15
18.59
16.04
9.53
0.34
-9.23
-16.65
-20.22
-19.59
-15.69
-9.97
-3.66
2.71
9.10
15.37
21.07
25.52
28.34
29.71
30.24
30.39
29.95
27.93
23.04
14.66
3.48
-8.55
-18.82
-25.07
-26.01
-21.56
-12.69
-1.06
11.33
22.39
30.25
33.61
32.09
26.43
18.44
10.66
5.55
4.70
8.11
14.19
20.49
24.84
26.20
24.94
22.44
20.20
19.04
18.95
19.34
19.62
19.51
19.06
18.37
17.31
15.63
12.99
9.38
5.07
0.59
-3.39
-6.35
-8.14
-9.10
-10.04
-11.97
-15.46
-20.28
-25.34
-29.17
-30.67
-29.66
-26.78
-23.02
-19.10
-15.28
-11.62
-8.51
-6.75
-7.36
-10.70
-16.02
-21.49
-24.96
-24.84
-20.79
-13.73
-5.24
3.02
9.90
14.80
17.47
17.93
16.32
13.14
9.20
5.59
3.40
3.29
5.22
8.39
11.45
13.04
12.42
9.85
6.55
4.03
3.40
4.66
6.79
8.34
8.20
6.27
3.33
0.58
-1.02
-1.15
0.03
2.17
5.07
8.64
12.71
16.78
20.11
22.23
23.28
24.14
26.06
30.03
36.22
43.86
51.50
57.58
61.03
61.46
59.26
55.38
51.03
47.36
45.36
45.65
48.40
53.29
59.42
65.47
69.91
71.51
69.98
66.09
61.31
56.78
52.51
47.13
38.75
26.19
9.85
-8.14
-25.04
-38.64
-48.00
-53.43
-55.94
-56.62
-56.60
-57.36
-60.59
-67.87
-79.51
-93.93
-107.88
-117.55
-119.95
-114.10
-101.39
-84.80
-68.12
-54.69
-46.61
-44.32
-46.65
-51.44
-56.32
-59.61
-60.60
-59.47
-56.64
-52.40
-46.65
-39.23
-30.49
-21.49
-13.87
-9.07
-7.62
-8.69
-10.35
-10.52
-7.87
-2.49
4.43
11.27
16.61
19.60
19.84
17.26
11.76
3.53
-6.74
-17.59
-27.11
-33.41
-35.34
-32.94
-27.41
-20.68
-14.78
-11.31
-10.98
-13.68
-18.50
-24.04
-29.01
-32.72
-35.20
-36.97
-38.41
-39.47
-39.62
-38.26
-35.34
-31.60
-28.31
-26.55
-26.50
-27.24
-27.27
-25.30
-21.06
-15.40
-9.98
-6.30
-5.14
-6.35
-9.23
-13.03
-17.50
-22.95
-29.97
-38.66
-47.88
-55.05
-56.95
-51.03
-36.90
-16.86
4.80
23.66
37.13
45.25
50.14
54.13
58.13
61.10
60.94
56.11
46.96
35.98
26.39
20.69
19.44
21.32
23.75
24.26
21.21
14.29
4.39
-6.77
-17.05
-24.31
-26.98
-24.43
-17.24
-6.91
4.58
15.37
24.07
29.92
32.81
33.22
32.09
30.73
30.52
32.46
36.77
42.75
48.92
53.51
55.13
53.33
48.65
42.25
35.29
28.47
21.83
15.23
8.74
3.01
-0.94
-2.19
-0.58
3.15
7.63
11.46
13.78
14.48
13.98
13.04
12.42
12.94
15.27
19.74
26.16
33.69
41.08
46.95
50.27
50.58
47.95
42.86
36.18
29.25
23.80
21.68
24.06
30.80
40.18
49.38
55.63
57.30
54.55
48.95
42.68
37.46
33.95
31.86
30.40
29.02
27.59
26.37
25.62
25.43
25.66
26.12
26.74
27.32
27.53
26.73
24.35
20.35
15.78
12.60
13.02
18.31
27.79
38.90
47.63
49.99
43.30
27.10
3.14
-25.13
-53.33
-77.43
-94.65
-104.19
-107.24
-106.08
-103.03
-99.71
-96.78
-94.12
-91.26
-87.42
-81.51
-72.52
-60.03
-44.79
-28.84
-14.73
-4.24
2.54
7.25
12.23
19.10
27.80
36.59
43.42
47.13
48.10
47.91
48.44
50.67
53.80
55.35
52.18
42.25
25.83
5.57
-14.42
-30.22
-39.44
-41.65
-37.58
-28.12
-13.56
6.24
31.22
60.30
91.27
121.02
146.10
163.33
170.12
165.11
148.85
124.07
94.98
65.74
38.94
14.98
-6.92
-27.59
-46.75
-63.20
-76.00
-85.52
-93.64
-102.71
-114.03
-127.08
-139.98
-151.03
-160.01
-168.26
-177.16
-186.28
-192.39
-190.47
-176.13
-148.38
-110.98
-71.82
-40.22
-23.18
-22.38
-33.39
-47.35
-54.67
-49.08
-29.96
-2.01
27.35
51.42
66.63
72.96
72.55
67.55
58.76
45.97
29.18
9.72
-9.40
-24.57
-33.08
-34.15
-29.12
-20.65
-11.60
-4.14
0.79
3.38
4.59
5.80
8.28
12.54
17.90
22.61
24.44
21.88
15.18
6.39
-1.58
-6.45
-7.59
-6.05
-3.36
-0.35
3.46
9.45
18.62
30.56
43.53
55.16
63.79
69.12
72.01
73.79
75.40
77.01
78.01
77.57
75.31
71.58
67.56
64.80
64.85
68.51
75.78
85.78
97.08
108.00
116.91
122.48
123.78
120.38
112.59
101.49
88.65
75.79
64.26
54.71
47.14
40.78
34.21
25.38
12.21
-6.76
-31.34
-59.24
-86.29
-107.30
-117.91
-116.24
-103.85
-85.46
-67.24
-54.49
-49.45
-51.17
-56.44
-62.20
-67.28
-72.91
-81.51
-94.36
-110.10
-124.74
-133.34
-132.32
-121.04
-101.58
-77.23
-50.90
-24.58
-0.02
20.32
33.27
36.10
28.69
14.89
2.01
-2.40
6.06
26.19
51.43
73.22
85.12
85.61
77.78
66.92
56.99
49.21
42.85
37.67
35.77
40.99
56.55
81.53
109.80
131.57
137.55
123.33
91.14
49.10
7.81
-23.17
-38.12
-35.93
-19.89
3.15
24.38
34.84
28.54
3.95
-35.04
-80.25
-121.77
-150.73
-161.44
-152.26
-125.95
-88.57
-48.43
-14.20
7.51
14.19
8.19
-4.33
-15.83
-21.06
-18.85
-12.36
-7.05
-7.20
-13.31
-21.18
-23.88
-15.47
4.58
29.50
47.07
45.12
18.56
-26.96
-76.01
-110.45
-117.89
-98.02
-62.82
-30.95
-19.56
-36.90
-79.90
-136.16
-189.61
-226.15
-237.35
-221.77
-184.25
-134.24
-82.93
-40.67
-13.93
-3.55
-4.73
-8.98
-7.67
4.65
27.79
56.39
82.08
97.33
98.58
87.57
70.31
53.92
43.94
42.26
47.31
55.71
64.23
71.31
76.56
79.90
80.21
76.01
66.27
51.97
36.12
22.48
13.62
9.60
8.35
7.08
4.06
-0.82
-6.45
-11.34
-14.42
-14.80
-11.80
-5.03
4.77
15.12
22.29
22.81
15.60
2.74
-11.11
-21.02
-23.97
-20.01
-11.64
-2.20
5.58
10.82
14.08
17.00
21.38
28.45
38.36
49.84
60.78
68.82
72.37
70.57
63.41
51.46
35.80
18.17
0.52
-15.53
-29.62
-42.30
-54.36
-65.69
-74.75
-79.41
-78.29
-72.06
-63.10
-54.16
-46.62
-40.18
-34.01
-28.41
-25.83
-29.08
-38.95
-52.31
-62.87
-64.34
-53.84
-34.02
-11.47
6.57
16.09
18.05
17.39
19.83
28.57
42.77
58.15
70.06
75.81
76.57
76.26
79.14
87.22
98.87
109.68
114.56
110.33
96.62
75.58
50.24
23.02
-4.21
-29.54
-49.94
-61.76
-62.38
-52.94
-39.14
-29.63
-32.40
-50.06
-78.21
-106.96
-126.18
-130.70
-123.12
-111.98
-106.47
-111.03
-122.80
-133.91
-136.39
-127.00
-108.70
-88.22
-71.62
-60.56
-52.11
-41.01
-23.62
-0.37
24.14
43.58
53.20
51.76
42.08
29.14
17.96
11.44
9.66
10.71
12.13
12.80
13.38
15.96
22.22
32.12
43.57
53.35
59.11
60.54
59.26
57.35
55.80
53.81
49.60
42.16
32.30
22.66
16.00
13.47
13.88
14.73
13.90
11.34
9.23
10.31
16.18
25.87
36.51
44.98
49.60
51.12
51.56
52.87
55.13
56.79
55.43
49.58
39.86
28.64
19.03
12.98
10.72
10.75
11.22
11.15
10.84
11.63
14.52
19.49
25.15
29.53
31.25
30.41
28.74
28.60
31.99
39.14
48.48
56.96
61.43
59.81
51.82
39.32
25.33
13.31
5.72
3.54
6.15
11.85
18.78
25.05
29.08
29.20
24.13
13.69
-0.25
-13.52
-21.08
-19.15
-7.77
8.99
24.46
32.60
30.99
21.42
8.51
-3.43
-12.22
-18.14
-21.91
-23.07
-19.59
-9.48
6.79
25.64
41.33
49.34
48.60
41.86
33.49
26.29
19.88
11.29
-2.05
-20.09
-39.46
-55.61
-65.63
-69.64
-70.24
-70.19
-70.81
-71.68
-72.24
-73.09
-75.93
-82.49
-92.94
-105.92
-119.03
-130.40
-139.00
-144.48
-146.54
-144.92
-140.36
-134.83
-131.29
-131.38
-133.73
-133.65
-125.29
-105.07
-74.07
-38.05
-4.29
21.91
39.70
51.91
62.02
71.32
77.75
77.98
70.50
58.31
48.24
47.57
59.77
81.96
106.17
123.37
128.45
122.73
112.92
106.88
108.88
117.24
125.38
126.14
115.93
97.10
76.93
63.89
63.48
75.72
95.62
115.64
129.12
132.58
126.19
113.08
97.72
84.81
78.20
80.29
91.12
108.07
126.29
140.04
144.51
136.69
115.99
83.83
43.70
0.91
-38.06
-66.71
-80.52
-78.35
-63.01
-40.22
-16.90
0.42
6.75
-1.16
-24.72
-63.24
-112.66
-165.31
-210.79
-238.95
-243.82
-226.25
-194.31
-160.21
-135.93
-128.34
-136.61
-152.63
-164.51
-162.15
-141.97
-109.03
-74.98
-52.95
-51.44
-70.18
-100.53
-129.36
-145.04
-142.07
-122.13
-91.04
-54.30
-14.11
30.01
77.77
124.90
161.97
177.98
165.78
127.02
73.01
20.38
-16.24
-30.83
-27.86
-19.02
-15.65
-22.26
-34.22
-41.05
-33.38
-8.69
26.92
62.10
85.73
92.11
83.06
66.10
50.79
44.29
48.56
59.41
68.33
66.31
48.42
16.70
-20.49
-52.19
-70.58
-74.40
-69.17
-63.59
-64.39
-73.20
-86.72
-99.88
-108.67
-111.82
-109.73
-102.53
-88.81
-66.04
-32.87
8.58
51.61
86.61
104.72
102.22
83.22
58.48
40.74
38.20
50.33
68.40
80.74
79.54
65.32
46.62
35.04
39.09
59.99
91.91
125.56
152.65
168.96
174.60
172.42
165.52
155.84
143.98
129.90
114.13
98.47
85.81
78.94
79.11
84.56
90.67
91.58
82.54
62.49
34.99
6.82
-15.21
-27.52
-31.43
-31.96
-34.46
-41.34
-50.42
-56.37
-53.97
-41.31
-20.94
1.49
19.85
29.97
30.22
20.80
2.30
-24.42
-56.98
-90.30
-116.90
-129.35
-123.93
-103.05
-74.52
-47.96
-30.11
-21.65
-17.78
-11.71
0.83
19.09
38.18
52.57
59.73
61.39
61.77
64.50
70.27
76.93
81.30
81.07
75.43
64.24
46.76
21.93
-10.07
-45.61
-77.47
-97.25
-99.22
-83.82
-57.85
-31.52
-13.85
-9.10
-15.61
-27.31
-36.92
-38.80
-30.77
-13.98
8.32
32.49
55.84
76.87
94.82
108.38
115.41
113.80
103.45
87.97
74.21
69.74
78.79
99.75
125.19
145.37
152.56
144.43
124.52
99.70
76.92
60.09
49.14
40.97
31.86
19.52
4.08
-12.32
-27.49
-40.75
-53.96
-70.89
-95.49
-129.68
-172.75
-221.93
-273.59
-324.02
-369.10
-403.73
-422.78
-423.62
-408.69
-385.76
-365.01
-353.50
-350.48
-347.11
-331.21
-294.67
-238.33
-171.86
-108.47
-58.19
-24.04
-3.11
9.70
17.98
22.57
22.75
17.74
7.75
-6.26
-22.61
-39.11
-52.80
-60.52
-60.21
-52.39
-40.52
-29.70
-23.91
-23.94
-27.41
-30.83
-31.72
-30.17
-28.21
-27.63
-28.58
-28.99
-25.85
-16.83
-1.83
16.80
35.39
50.33
59.49
62.60
61.35
58.41
56.90
59.91
69.86
87.58
111.06
135.23
152.94
157.76
146.50
120.38
84.14
43.38
2.47
-36.46
-72.11
-102.66
-124.84
-134.90
-130.67
-113.02
-85.99
-55.04
-25.15
0.92
22.26
39.09
52.11
62.07
70.22
78.19
88.37
102.83
122.49
145.85
168.43
183.59
184.41
166.77
131.68
86.07
40.73
6.76
-8.27
-2.51
20.44
53.46
88.94
120.70
145.11
160.82
168.10
167.94
161.35
149.07
131.36
108.83
82.78
55.91
31.93
14.41
5.53
5.03
10.67
19.19
27.89
35.24
40.80
44.62
46.56
46.28
43.48
38.44
31.75
24.00
15.31
5.32
-6.28
-19.22
-32.37
-44.28
-53.53
-59.32
-61.32
-59.27
-52.60
-40.42
-22.21
1.45
28.16
54.26
75.61
89.02
93.14
88.58
77.60
62.92
47.02
31.38
16.61
2.65
-10.81
-23.85
-36.29
-47.43
-56.09
-60.63
-59.44
-51.47
-37.39
-20.01
-4.09
4.79
2.29
-12.85
-37.72
-65.88
-89.22
-100.73
-97.04
-79.51
-53.72
-27.29
-7.26
2.25
0.84
-8.66
-21.63
-33.38
-40.27
-40.47
-33.94
-22.31
-8.42
4.31
12.54
13.71
6.38
-9.54
-32.87
-60.88
-89.20
-112.06
-123.43
-118.89
-97.59
-63.43
-24.25
10.57
33.37
40.71
34.06
18.52
0.43
-14.99
-24.96
-28.93
-27.78
-22.78
-14.89
-4.82
6.86
19.40
31.75
42.49
50.15
53.47
51.73
45.25
35.38
24.33
14.36
7.09
3.16
2.28
3.96
7.74
13.55
20.87
28.97
36.91
43.83
49.41
53.60
56.43
57.55
56.60
53.13
47.62
41.26
35.39
30.82
27.32
24.09
20.29
16.10
11.87
8.85
8.33
11.09
17.21
25.79
35.02
42.25
45.62
42.35
32.65
19.37
7.36
1.69
5.25
16.77
30.45
39.41
33.43
8.44
-32.82
-81.03
-122.89
-145.67
-141.59
-110.56
-57.37
1.30
50.05
76.06
72.80
41.91
-7.45
-61.77
-107.46
-131.07
-133.37
-116.47
-85.30
-44.67
2.55
55.14
111.70
143.51
174.47
192.41
191.74
172.15
140.29
107.90
87.95
89.49
114.11
158.66
205.94
241.67
255.38
243.51
209.33
160.42
104.68
47.41
-5.89
-57.17
-103.99
-142.04
-166.29
-173.47
-163.92
-141.37
-110.96
-75.38
-40.29
-9.62
11.26
16.48
2.74
-27.17
-63.16
-91.15
-98.27
-81.66
-47.31
-7.65
25.31
45.56
54.70
59.19
65.54
76.83
90.95
104.00
113.00
117.99
121.99
128.90
141.24
158.37
176.39
189.55
192.63
182.93
161.27
131.41
98.08
64.99
33.49
3.09
-27.09
-56.50
-82.45
-101.18
-109.90
-108.61
-100.32
-90.00
-82.34
-80.16
-83.79
-91.64
-101.47
-111.34
-120.16
-127.58
-133.70
-138.53
-141.95
-143.65
-143.39
-141.18
-137.22
-131.76
-124.86
-116.53
-106.91
-96.54
-86.53
-78.30
-73.13
-71.44
-72.60
-74.97
-76.51
-75.45
-70.73
-62.32
-50.92
-37.92
-24.91
-13.43
-4.64
0.95
3.61
4.21
3.80
3.27
3.00
2.98
2.92
2.59
1.91
0.85
-0.62
-2.72
-5.62
-9.29
-13.40
-17.28
-20.21
-21.66
-21.56
-20.32
-18.70
-17.48
-17.09
-17.37
-17.47
-16.26
-12.80
-6.97
0.18
6.70
10.57
10.62
7.08
1.43
-4.55
-9.54
-12.93
-14.41
-13.22
-8.25
1.26
14.54
28.93
40.68
46.84
46.93
43.08
38.66
35.93
34.89
33.63
30.29
24.69
18.58
14.23
12.42
11.52
8.26
-0.22
-14.53
-32.62
-50.81
-65.65
-75.30
-79.81
-80.35
-78.30
-74.55
-69.34
-62.54
-54.00
-43.76
-32.12
-19.54
-6.47
6.76
19.97
33.06
45.67
57.16
66.50
72.60
74.77
73.16
68.82
63.42
58.67
55.78
55.41
57.57
61.92
67.81
74.26
79.90
83.12
82.53
77.49
68.60
57.59
46.66
37.66
31.42
27.81
26.13
25.71
26.01
26.42
26.01
23.57
18.27
10.32
1.37
-6.07
-9.66
-8.47
-3.46
2.97
8.11
10.17
8.82
5.09
0.52
-3.50
-6.33
-8.03
-9.12
-10.17
-11.36
-12.27
-11.88
-8.93
-2.52
7.32
19.43
32.05
43.70
54.12
64.62
77.33
93.92
114.31
136.28
156.33
171.39
180.15
183.44
183.33
181.50
178.11
171.68
160.16
142.27
118.55
91.12
62.87
36.18
11.98
-10.09
-31.37
-53.23
-76.76
-102.64
-131.76
-165.33
-204.23
-247.66
-291.36
-327.56
-347.42
-345.33
-322.51
-287.80
-254.42
-233.88
-230.76
-240.59
-252.58
-255.16
-241.42
-211.89
-173.55
-136.39
-109.37
-97.79
-102.33
-119.72
-144.30
-169.58
-190.17
-202.56
-205.48
-199.03
-183.88
-160.75
-130.67
-95.40
-57.38
-19.21
17.51
52.58
86.68
119.65
149.07
170.19
177.69
168.86
145.71
114.99
85.35
63.41
51.07
45.51
41.92
36.71
29.47
22.08
16.57
13.28
10.92
8.48
6.90
9.44
19.83
39.87
67.70
98.25
125.42
144.47
153.77
154.84
151.49
148.38
149.72
158.26
174.44
195.73
216.55
229.31
226.42
203.08
159.61
101.98
40.21
-14.99
-55.74
-79.17
-87.26
-84.99
-77.89
-70.36
-65.10
-63.07
-63.85
-65.33
-63.71
-53.80
-30.57
8.43
60.92
119.01
170.59
202.43
204.41
173.54
115.86
45.47
-20.14
-66.04
-85.15
-79.97
-60.01
-36.92
-19.90
-14.16
-21.64
-42.79
-76.79
-120.23
-165.25
-199.89
-211.77
-193.86
-149.14
-90.84
-37.85
-6.89
-6.00
-31.83
-71.83
-109.85
-132.13
-131.50
-108.11
-67.65
-18.13
33.03
80.39
120.29
149.56
165.09
164.39
146.92
115.28
75.14
33.84
-2.10
-28.82
-45.96
-55.86
-62.09
-67.76
-74.13
-80.26
-83.38
-79.88
-66.62
-42.17
-7.00
36.97
87.01
139.82
191.19
235.39
265.31
274.08
257.62
216.90
158.64
93.75
34.16
-10.56
-35.69
-41.96
-34.70
-21.92
-11.91
-11.21
-23.51
-49.68
-88.66
-138.34
-195.59
-255.50
-310.77
-352.54
-372.85
-367.67
-338.95
-294.12
-243.25
-195.37
-156.04
-127.10
-108.11
-98.07
-96.09
-100.99
-110.51
-121.33
-130.00
-134.45
-134.62
-131.98
-128.23
-124.04
-118.60
-110.20
-97.33
-79.52
-57.50
-32.80
-7.30
17.20
39.19
57.59
72.15
83.67
94.00
105.55
120.31
138.98
160.73
183.69
205.81
225.80
243.42
259.21
273.74
286.95
298.02
305.80
309.61
309.70
307.25
303.82
300.73
298.63
297.54
297.32
297.98
299.80
302.83
306.43
309.03
308.70
304.35
296.61
287.82
280.89
277.44
276.58
274.87
267.66
251.02
223.34
185.68
140.96
92.69
43.99
-2.79
-46.02
-84.45
-117.57
-145.54
-169.49
-191.35
-213.47
-238.14
-266.85
-299.32
-332.44
-360.24
-375.35
-371.86
-348.25
-308.50
-260.33
-211.31
-165.05
-119.77
-70.44
-12.88
52.72
120.80
182.98
231.92
264.29
281.03
285.33
279.91
265.74
242.75
210.96
172.13
130.03
89.75
56.17
32.28
18.62
13.43
13.92
16.48
17.43
13.25
0.70
-22.86
-58.52
-104.60
-155.44
-200.89
-229.77
-233.15
-207.71
-157.18
-91.03
-21.28
41.39
90.46
124.87
145.72
154.33
151.17
136.59
112.09
81.10
48.65
13.56
-21.60
-53.01
-77.16
-92.56
-100.31
-102.90
-102.14
-100.49
-99.06
-96.80
-92.89
-87.07
-80.16
-73.89
-70.57
-72.73
-82.76
-102.53
-132.54
-172.64
-220.66
-272.07
-320.42
-358.87
-382.22
-388.63
-379.82
-359.57
-332.37
-300.79
-265.64
-227.29
-187.07
-147.63
-111.76
-80.81
-53.60
-26.87
4.70
45.83
98.30
159.49
222.87
279.77
321.84
343.54
337.74
304.32
252.49
198.15
155.49
130.02
118.16
112.40
106.66
99.23
93.22
93.42
103.86
123.66
148.94
174.22
193.58
201.40
194.48
173.47
141.98
104.31
62.97
18.02
-30.17
-79.44
-126.85
-168.85
-201.96
-223.81
-233.76
-232.97
-223.60
-209.20
-195.22
-188.45
-194.60
-214.50
-242.35
-266.89
-276.49
-264.70
-234.17
-195.15
-160.23
-137.80
-128.31
-126.31
-125.61
-124.78
-128.15
-142.40
-170.81
-208.77
-244.37
-263.20
-255.96
-222.61
-172.62
-119.59
-74.63
-42.17
-19.37
0.01
21.63
46.87
73.17
96.41
113.76
125.47
133.92
142.02
150.81
159.33
164.68
164.58
158.86
150.21
144.37
147.94
166.56
201.53
248.88
299.12
339.98
360.30
353.39
319.93
267.10
207.09
152.38
112.34
90.53
84.37
87.50
92.36
93.58
88.55
77.53
62.17
44.81
28.37
15.96
11.28
16.93
33.70
58.94
86.92
110.69
124.59
126.78
118.59
103.75
85.42
66.06
47.12
29.15
12.24
-3.99
-19.31
-33.65
-46.26
-56.45
-63.31
-65.90
-64.94
-63.17
-65.14
-74.98
-96.08
-130.66
-180.18
-244.67
-315.60
-377.70
-413.23
-411.48
-373.44
-310.75
-239.61
-174.77
-125.53
-93.50
-75.04
-64.16
-57.18
-50.23
-41.39
-29.85
-15.38
1.84
21.43
42.01
61.53
77.93
91.63
105.28
121.86
144.97
176.62
215.70
256.94
292.02
306.66
292.09
249.61
191.78
136.20
96.42
76.77
72.89
76.20
78.83
78.80
76.00
71.15
63.83
52.06
33.04
4.45
-34.71
-82.45
-133.26
-182.14
-225.95
-263.25
-292.50
-310.56
-312.81
-295.29
-257.83
-205.37
-147.65
-95.51
-57.13
-35.46
-28.65
-31.85
-39.67
-48.14
-54.95
-59.18
-60.18
-58.27
-52.94
-44.37
-33.17
-19.42
-3.22
15.37
35.71
56.35
75.12
89.79
98.39
100.04
95.92
88.54
81.38
78.29
82.87
97.32
121.52
152.15
179.16
193.01
187.28
162.02
123.81
82.91
48.60
25.72
13.71
8.61
6.97
6.88
8.44
12.13
17.47
22.35
24.17
21.03
12.77
1.76
-8.69
-16.81
-22.69
-28.06
-35.37
-46.69
-62.67
-81.89
-101.12
-117.18
-128.07
-133.53
-135.20
-135.75
-138.65
-147.69
-165.12
-190.69
-221.68
-252.73
-276.76
-287.70
-282.45
-259.04
-221.83
-177.73
-133.82
-95.10
-63.32
-36.60
-12.01
13.23
39.99
67.42
96.12
126.46
158.20
190.12
221.21
250.55
278.06
304.44
330.79
360.86
395.93
433.16
465.35
483.82
481.59
456.49
411.92
341.15
250.06
152.82
65.76
-0.75
-44.75
-69.63
-80.16
-80.81
-76.07
-67.60
-57.80
-47.95
-40.35
-37.08
-38.90
-46.07
-58.94
-78.55
-103.88
-135.01
-171.41
-211.41
-252.95
-291.37
-319.89
-331.30
-321.37
-289.55
-241.56
-190.92
-144.10
-104.70
-72.41
-45.21
-22.43
-6.49
-0.15
-5.41
-21.63
-44.86
-70.95
-95.35
-114.80
-127.62
-132.92
-128.09
-109.89
-76.74
-29.88
24.82
79.61
126.88
161.47
175.75
166.35
135.99
91.99
43.36
-3.80
-46.06
-82.38
-111.72
-135.47
-153.81
-166.45
-173.77
-176.67
-176.86
-175.45
-173.45
-171.45
-169.57
-167.05
-162.90
-156.96
-149.68
-141.94
-134.39
-127.03
-119.42
-110.69
-99.61
-85.13
-67.30
-47.18
-26.37
-6.44
11.82
28.33
43.98
60.16
78.37
99.47
123.46
149.87
177.82
206.54
235.27
263.38
290.63
317.61
345.99
378.02
415.33
456.71
497.05
527.56
538.46
522.89
479.81
414.81
337.82
259.64
188.07
126.80
76.53
37.19
9.41
-6.07
-9.78
-4.95
3.06
8.53
7.98
1.29
-9.29
-21.18
-33.49
-46.52
-59.79
-69.80
-70.07
-53.37
-15.46
41.63
108.62
171.06
214.79
231.21
220.40
188.98
146.77
103.13
64.68
34.61
12.44
-3.27
-12.78
-13.77
-5.46
10.51
29.99
48.46
62.17
67.42
62.68
49.13
31.97
13.67
-6.17
-30.37
-61.21
-99.52
-146.44
-200.89
-258.88
-311.34
-352.73
-381.29
-399.12
-408.65
-396.09
-351.47
-273.84
-193.49
-121.42
-60.98
-6.46
41.68
82.06
113.54
133.80
142.23
140.50
135.53
130.92
127.25
121.95
112.57
96.65
70.21
29.73
-25.94
-91.52
-160.25
-223.35
-272.10
-298.46
-298.45
-274.36
-232.77
-181.04
-122.74
-60.33
4.61
68.84
127.74
175.51
207.05
220.98
220.55
213.07
204.90
199.29
195.37
190.11
180.70
166.15
147.97
128.72
110.92
94.99
79.88
63.90
46.21
27.62
9.62
-6.38
-20.76
-35.66
-54.81
-81.84
-119.33
-168.18
-227.27
-293.71
-362.45
-426.86
-479.14
-512.37
-522.20
-508.77
-476.86
-433.97
-387.98
-344.22
-304.43
-267.39
-230.91
-194.16
-158.23
-125.78
-98.15
-73.50
-46.16
-9.12
41.88
105.10
171.33
227.84
262.91
271.74
257.71
230.53
200.89
175.93
157.37
141.97
125.37
103.65
74.58
36.21
-13.44
-75.76
-149.48
-228.12
-300.75
-354.20
-378.42
-370.26
-335.07
-284.28
-230.20
-181.81
-141.68
-107.54
-74.55
-38.63
2.11
47.33
93.83
136.50
168.30
182.80
176.23
150.74
114.85
80.67
59.51
55.68
65.01
75.22
72.10
45.47
-6.00
-73.48
-141.99
-194.82
-220.02
-212.10
-173.25
-110.64
-34.38
44.20
114.02
164.23
186.82
177.51
138.32
77.17
6.22
-61.16
-115.32
-152.19
-174.20
-186.74
-195.15
-201.44
-203.70
-198.27
-181.87
-155.02
-121.37
-86.82
-55.91
-30.08
-7.57
15.13
39.72
65.69
89.64
108.38
120.21
126.66
131.82
140.33
156.42
181.51
215.17
254.21
293.68
326.98
346.59
346.69
324.48
282.88
229.35
174.79
129.13
97.92
80.48
70.21
59.19
41.59
18.30
-4.01
-15.33
-7.64
20.23
62.23
107.38
146.21
174.74
196.18
216.93
240.92
265.98
283.08
281.94
255.57
204.37
134.81
56.83
-19.58
-86.53
-137.33
-166.93
-171.21
-149.39
-105.56
-49.61
4.94
44.92
60.65
49.03
12.53
-40.61
-98.17
-147.28
-177.12
-182.10
-161.73
-120.31
-63.65
1.87
70.60
139.35
202.91
253.23
279.76
274.60
237.02
177.02
112.50
64.05
51.08
80.92
146.14
226.08
296.28
337.35
341.42
312.25
261.80
210.31
175.74
169.08
191.98
239.80
305.19
380.22
457.05
497.58
474.71
382.60
241.48
82.85
-67.36
-194.37
-292.64
-361.98
-406.47
-427.96
-430.73
-421.20
-407.27
-395.10
-386.53
-380.19
-373.30
-364.78
-351.65
-333.77
-312.25
-289.19
-266.16
-242.78
-217.44
-188.77
-156.79
-120.09
-77.80
-32.11
12.81
50.82
75.68
83.23
73.31
49.87
20.44
-6.62
-30.43
-53.00
-76.71
-100.77
-119.98
-127.20
-118.12
-95.25
-68.37
-52.03
-57.20
-86.50
-132.12
-178.98
-210.63
-215.42
-190.07
-136.10
-62.30
20.39
101.61
174.03
233.95
280.88
317.16
346.34
372.53
397.84
422.76
444.95
459.63
461.32
445.82
413.02
366.75
313.84
260.71
211.60
167.82
127.96
90.81
56.07
25.16
-0.66
-20.93
-36.14
-46.33
-49.51
-42.96
-24.42
4.47
37.88
66.98
83.58
84.27
71.26
51.80
33.41
21.48
17.00
18.24
22.88
29.20
37.05
45.96
55.36
63.42
68.54
69.55
66.33
60.38
53.10
46.09
39.42
32.31
22.93
9.64
-8.07
-29.43
-51.70
-72.07
-87.83
-98.27
-104.58
-109.56
-116.83
-128.90
-147.04
-170.11
-196.08
-222.17
-246.65
-269.25
-291.17
-315.42
-345.24
-383.76
-431.17
-484.20
-534.86
-572.35
-586.60
-571.63
-528.89
-466.05
-394.80
-325.28
-263.40
-209.17
-158.19
-105.11
-45.88
19.44
87.02
149.17
197.00
222.41
220.72
192.93
145.08
87.46
30.35
-18.42
-56.57
-87.04
-116.36
-152.05
-198.41
-255.44
-317.16
-374.40
-416.99
-437.85
-435.02
-411.35
-373.28
-327.09
-278.16
-229.27
-182.50
-139.65
-102.76
-73.79
-52.73
-37.76
-24.40
-8.25
14.28
43.99
78.90
115.62
150.52
182.05
210.41
238.31
268.54
303.56
344.62
391.57
444.02
500.43
558.44
613.07
657.70
684.96
689.26
669.47
628.77
574.41
513.95
453.81
397.32
345.56
298.70
256.50
219.42
186.99
158.47
131.89
105.71
79.29
53.12
28.64
6.61
-12.85
-31.60
-51.85
-76.01
-105.24
-139.04
-175.83
-213.01
-248.91
-282.39
-314.18
-346.18
-381.42
-423.29
-473.34
-530.38
-588.47
-638.76
-671.14
-678.56
-659.56
-618.54
-564.45
-506.16
-450.29
-398.70
-350.46
-303.35
-256.17
-209.66
-165.11
-124.22
-86.98
-52.79
-19.95
12.79
46.07
79.86
113.00
144.70
174.01
201.10
226.46
251.24
276.64
303.31
332.29
364.46
401.51
444.09
491.15
538.18
577.45
600.49
600.44
575.79
530.26
472.02
409.88
350.66
297.91
252.05
212.91
180.16
154.74
137.15
127.23
123.42
123.17
124.54
126.14
128.24
131.30
136.20
142.71
149.67
155.46
158.10
156.92
152.04
145.24
138.37
133.33
130.82
130.06
129.51
126.54
119.37
106.69
88.80
66.74
42.12
16.56
-9.34
-35.02
-60.96
-87.00
-113.05
-138.14
-161.16
-181.66
-199.64
-216.51
-233.65
-253.14
-275.95
-302.93
-334.52
-370.68
-411.02
-453.03
-492.93
-525.33
-546.29
-554.22
-551.07
-541.38
-529.02
-515.94
-499.93
-477.21
-443.54
-397.89
-342.33
-281.47
-220.64
-163.10
-110.25
-60.71
-13.08
33.99
80.02
122.54
158.13
182.98
195.21
194.06
181.19
158.26
127.25
90.54
51.36
15.42
-11.34
-24.19
-24.15
-17.94
-15.90
-26.50
-50.74
-81.72
-106.92
-116.38
-106.44
-82.14
-52.21
-23.62
1.92
28.22
59.58
98.51
142.60
187.87
230.58
269.18
304.17
335.03
359.63
373.02
371.09
351.68
316.99
272.65
225.03
179.56
137.61
98.10
57.47
13.37
-34.28
-82.89
-128.45
-168.55
-202.39
-231.85
-257.84
-279.52
-293.54
-295.99
-286.23
-267.96
-250.07
-241.78
-249.45
-271.90
-301.18
-326.34
-338.14
-333.98
-317.04
-294.51
-271.64
-249.94
-226.77
-198.70
-166.08
-133.53
-109.13
-98.63
-103.12
-117.21
-132.31
-141.09
-140.19
-131.58
-118.92
-106.00
-93.49
-80.06
-63.68
-42.84
-17.99
9.38
36.42
60.90
80.98
96.51
108.90
120.01
132.16
146.85
165.06
186.49
211.26
238.86
267.23
291.80
304.51
297.98
269.71
224.54
173.12
128.62
101.59
95.97
109.80
136.71
171.79
214.15
263.66
316.25
361.55
385.96
378.34
337.16
271.41
200.18
146.93
128.14
147.50
195.32
255.40
312.26
357.22
387.22
385.57
342.79
259.43
148.31
27.06
-88.97
-190.65
-268.57
-326.80
-369.79
-398.66
-415.11
-421.06
-419.54
-412.72
-401.43
-385.06
-363.90
-337.85
-305.08
-265.05
-217.95
-165.43
-109.41
-51.89
5.23
59.31
108.32
152.25
190.94
224.64
253.39
277.96
300.48
323.89
350.66
381.26
413.82
442.32
459.15
457.77
435.86
396.89
348.08
298.09
253.50
218.14
192.00
173.31
159.72
148.77
138.71
127.24
112.49
92.44
66.34
33.93
-4.26
-47.27
-94.93
-147.46
-206.36
-273.06
-348.07
-428.73
-508.53
-577.89
-626.43
-647.57
-640.11
-609.58
-565.15
-516.54
-470.48
-429.33
-392.87
-359.37
-328.55
-300.55
-276.14
-254.79
-234.53
-212.93
-187.68
-158.59
-126.63
-94.46
-63.93
-35.75
-8.81
19.72
52.38
91.13
135.39
183.25
231.31
276.72
317.94
354.91
389.24
422.65
457.64
495.76
537.85
582.47
625.46
660.60
680.48
679.89
657.20
616.63
565.83
514.04
468.57
432.81
407.08
389.02
376.65
368.03
362.27
357.90
352.88
344.96
331.85
313.09
289.11
262.14
234.31
207.56
182.63
159.12
136.47
113.52
90.19
66.56
43.70
22.61
3.95
-12.04
-26.04
-38.45
-50.39
-62.07
-73.99
-86.00
-97.95
-109.96
-121.70
-133.48
-144.93
-156.40
-167.63
-178.97
-190.73
-203.12
-216.78
-231.54
-247.46
-263.50
-279.30
-294.13
-308.32
-323.43
-341.56
-365.14
-394.21
-426.85
-457.62
-480.40
-489.42
-481.53
-457.16
-419.04
-372.47
-322.89
-276.59
-238.40
-211.93
-198.18
-194.54
-195.81
-194.57
-185.22
-164.84
-135.73
-103.18
-73.49
-51.38
-37.95
-32.02
-30.24
-30.66
-31.68
-32.99
-34.10
-34.03
-32.37
-29.28
-27.24
-28.58
-35.44
-46.68
-58.45
-65.88
-64.90
-55.33
-39.96
-25.16
-16.64
-18.36
-30.66
-49.96
-70.63
-85.99
-92.10
-87.42
-74.95
-59.77
-48.12
-45.71
-55.31
-76.68
-104.83
-132.81
-152.36
-158.31
-149.91
-130.79
-107.11
-83.33
-61.36
-39.09
-14.41
13.02
39.95
60.57
70.47
68.48
58.88
47.57
40.84
42.07
51.73
68.53
89.60
112.22
132.26
146.37
151.42
146.70
133.19
112.06
83.97
47.79
4.16
-43.64
-87.16
-116.66
-125.42
-113.97
-91.00
-67.58
-52.22
-44.72
-38.99
-27.13
-5.38
23.45
53.20
77.81
95.88
108.74
119.08
126.61
127.32
115.55
86.31
39.50
-20.23
-82.86
-136.85
-171.25
-178.96
-158.56
-113.65
-52.93
13.31
73.53
118.04
138.89
131.49
96.35
39.51
-26.78
-88.11
-130.30
-145.18
-131.18
-93.21
-39.83
20.80
82.04
140.17
191.61
233.30
261.66
274.89
274.51
265.07
253.22
243.15
235.94
227.82
214.13
192.12
163.40
133.82
109.43
93.96
85.21
77.79
64.82
42.27
10.72
-25.68
-60.39
-88.51
-106.78
-115.69
-117.22
-114.93
-112.47
-112.06
-114.44
-117.20
-116.76
-108.19
-89.25
-60.74
-26.87
6.50
35.31
57.73
75.56
90.50
103.86
114.67
121.05
122.21
118.61
112.54
104.78
95.38
82.05
63.18
39.31
13.64
-8.38
-22.94
-29.00
-30.30
-32.09
-39.31
-53.81
-73.68
-95.35
-115.01
-132.11
-148.59
-169.30
-198.87
-239.68
-290.28
-344.44
-393.60
-428.19
-441.82
-432.09
-401.60
-356.52
-303.71
-249.44
-197.46
-150.81
-111.28
-81.29
-62.49
-54.91
-56.75
-63.85
-72.18
-78.16
-80.90
-80.87
-79.61
-78.20
-76.08
-71.89
-63.18
-48.52
-26.93
1.01
33.91
69.83
106.05
140.22
170.02
194.83
215.15
232.99
250.58
269.37
290.15
312.56
336.86
363.62
394.67
431.52
473.84
518.32
557.85
583.86
588.20
567.33
522.89
461.99
394.51
329.48
273.33
228.22
194.11
169.39
153.32
145.10
143.59
146.62
150.46
151.98
148.75
140.76
129.04
115.63
101.63
86.60
68.89
45.16
12.29
-32.78
-90.79
-159.98
-234.96
-307.84
-370.44
-416.12
-442.75
-451.41
-446.04
-429.80
-404.24
-369.26
-324.42
-271.49
-213.95
-157.52
-106.96
-65.94
-35.86
-16.84
-8.69
-10.09
-19.07
-31.50
-42.96
-48.45
-44.99
-32.24
-12.50
9.55
29.64
43.84
51.00
51.17
45.96
37.09
25.94
14.39
3.65
-4.31
-9.42
-12.34
-15.54
-21.52
-31.24
-43.66
-54.80
-60.89
-58.83
-49.11
-34.30
-18.17
-3.69
8.74
20.32
34.44
53.07
76.94
103.18
126.70
141.43
142.36
128.55
102.25
69.57
36.33
7.47
-14.88
-30.63
-39.92
-43.58
-41.93
-37.46
-33.39
-34.15
-42.42
-57.16
-73.34
-82.66
-78.17
-56.08
-19.52
23.58
62.57
88.44
97.24
90.01
73.07
53.81
39.79
35.40
42.19
59.13
83.41
112.29
142.14
170.17
192.32
205.13
206.01
194.51
173.57
148.33
125.82
111.14
107.25
112.46
122.01
129.96
131.23
124.22
109.81
91.98
74.31
60.07
50.64
45.72
44.48
45.06
46.72
48.19
49.39
49.91
49.56
48.31
45.73
41.77
35.28
26.17
13.75
-1.71
-19.95
-40.78
-63.72
-88.68
-114.54
-140.87
-166.04
-188.85
-207.89
-221.96
-231.09
-235.98
-239.06
-241.91
-245.89
-250.43
-254.28
-256.81
-258.15
-260.03
-263.07
-267.17
-269.60
-267.12
-256.93
-237.81
-210.85
-177.62
-140.50
-101.07
-62.44
-28.16
-2.26
12.97
19.43
21.95
27.21
38.49
54.88
70.68
79.62
78.64
69.56
58.35
49.91
46.27
44.60
41.27
35.07
29.08
29.37
40.20
61.51
86.40
105.53
110.26
97.35
70.30
36.99
6.92
-13.71
-22.54
-22.46
-17.97
-13.53
-11.72
-12.21
-13.69
-14.00
-12.65
-9.87
-7.87
-9.21
-15.94
-28.61
-44.60
-60.02
-69.81
-71.12
-63.23
-48.09
-28.63
-6.78
15.88
38.34
57.17
68.01
65.80
48.48
19.08
-14.67
-42.11
-54.66
-47.42
-22.20
14.92
54.95
88.61
109.30
113.82
103.78
83.48
59.63
38.34
23.79
17.12
15.46
13.84
5.59
-13.92
-45.90
-85.51
-122.74
-145.18
-141.81
-108.72
-50.78
17.28
76.29
107.90
101.26
57.00
-13.35
-90.54
-154.83
-190.36
-190.70
-158.18
-102.88
-39.38
17.84
57.20
74.03
70.46
55.91
42.25
39.32
50.69
71.31
90.98
98.55
88.86
64.53
35.38
12.54
2.19
2.72
4.59
-3.13
-27.59
-66.44
-109.14
-141.18
-150.39
-132.45
-91.29
-38.02
14.78
55.67
78.11
80.44
65.28
39.19
10.91
-9.10
-12.96
3.49
36.98
78.17
114.73
135.23
134.52
114.17
82.55
49.62
24.34
10.97
8.41
12.41
16.79
16.92
9.53
-5.09
-25.02
-46.45
-64.71
-75.55
-75.27
-63.07
-40.07
-11.04
18.11
41.41
55.11
59.06
55.69
49.68
44.08
40.51
37.49
32.96
25.98
17.43
10.46
7.40
9.74
15.68
22.61
27.78
29.83
29.41
27.52
25.37
21.94
16.32
7.24
-4.91
-18.23
-30.14
-37.93
-41.10
-39.57
-35.22
-29.58
-24.21
-20.41
-18.66
-19.35
-21.38
-23.97
-25.30
-24.70
-21.66
-15.95
-7.49
4.68
20.24
38.25
54.98
66.45
69.17
62.22
48.16
31.28
16.83
7.25
3.23
2.73
3.40
3.52
2.39
0.65
-1.86
-4.85
-9.48
-16.10
-24.50
-33.31
-39.86
-42.11
-38.55
-30.75
-21.34
-14.44
-12.96
-17.31
-25.50
-33.23
-36.91
-33.79
-24.83
-12.88
-2.27
3.21
2.23
-4.55
-13.91
-23.14
-29.44
-32.01
-30.49
-24.72
-14.88
-1.25
13.69
26.88
34.14
33.54
25.85
14.73
5.48
2.11
6.61
16.68
28.64
37.91
41.61
39.48
33.33
26.42
20.50
16.16
11.11
3.34
-7.64
-19.54
-27.84
-29.22
-22.72
-12.14
-2.47
1.83
-0.17
-6.17
-13.42
-20.34
-28.64
-40.13
-55.83
-72.53
-84.32
-85.01
-71.10
-44.19
-8.93
27.54
59.68
83.31
96.78
100.22
94.68
82.74
66.71
49.76
33.28
18.09
3.64
-10.71
-24.27
-35.54
-41.60
-41.50
-35.82
-28.12
-22.52
-21.49
-24.50
-27.41
-25.93
-16.68
-1.11
16.30
29.37
33.69
29.23
19.13
8.75
1.09
-3.05
-6.33
-11.61
-20.06
-30.64
-39.76
-44.67
-43.71
-38.81
-33.31
-31.29
-35.41
-45.57
-59.85
-74.09
-84.75
-87.89
-81.17
-63.32
-34.73
1.99
42.67
80.74
110.60
127.62
131.06
123.30
108.99
93.47
80.14
71.03
65.18
61.47
57.96
53.39
47.23
39.18
29.98
19.92
10.30
1.76
-4.37
-7.39
-7.09
-3.58
1.67
7.31
10.54
9.52
2.88
-8.77
-23.05
-36.56
-45.23
-47.23
-42.14
-32.83
-22.84
-15.55
-12.58
-13.17
-15.66
-17.39
-17.28
-14.10
-7.68
2.36
16.14
32.62
50.01
65.04
75.39
79.03
76.72
71.10
66.16
66.00
72.51
85.59
101.63
116.18
124.79
125.53
119.67
110.94
104.54
103.92
110.73
122.91
136.09
144.38
141.94
125.43
95.30
57.77
22.97
3.43
9.04
43.70
103.45
176.86
248.99
305.12
335.76
337.53
313.86
272.52
222.70
172.69
127.84
91.44
64.35
46.86
38.50
37.92
42.52
47.86
49.34
42.82
26.90
2.66
-26.58
-56.98
-85.98
-113.11
-140.43
-170.77
-206.77
-248.99
-295.95
-344.63
-391.77
-435.18
-473.40
-505.23
-528.34
-539.25
-534.82
-514.42
-481.85
-444.34
-409.89
-382.98
-363.42
-347.76
-333.29
-321.15
-315.65
-321.04
-336.73
-356.27
-369.40
-367.88
-349.57
-319.23
-284.98
-252.85
-223.91
-194.49
-160.27
-119.56
-74.96
-31.64
5.72
35.01
57.99
79.08
104.01
137.48
181.07
231.58
280.45
315.65
325.59
304.61
256.29
193.68
135.28
98.52
93.70
120.90
171.19
230.20
282.97
317.13
325.04
304.86
260.60
202.01
142.91
98.41
80.50
94.26
135.62
191.91
245.38
278.22
278.96
246.52
191.24
131.70
88.65
77.82
104.39
161.35
231.80
295.61
336.14
345.35
325.27
285.69
239.45
197.20
164.77
142.32
126.55
113.72
100.82
86.23
68.87
47.74
21.94
-7.81
-39.50
-71.02
-100.86
-130.88
-164.91
-206.41
-253.88
-299.74
-330.88
-334.59
-305.32
-246.00
-172.00
-104.61
-63.22
-56.70
-80.80
-119.85
-154.84
-172.77
-165.31
-135.14
-88.89
-33.54
26.53
87.69
145.00
190.71
213.22
209.42
179.04
128.61
67.47
4.59
-55.18
-110.04
-141.13
-164.63
-170.19
-151.14
-104.75
-37.45
36.36
97.89
130.83
128.16
91.94
40.84
-5.13
-28.60
-22.25
9.54
53.03
91.01
109.95
101.54
70.57
24.52
-28.21
-81.97
-134.26
-183.62
-227.77
-262.80
-287.56
-301.88
-312.53
-328.54
-356.67
-396.64
-439.31
-470.85
-478.28
-457.37
-412.51
-356.78
-304.87
-266.87
-245.54
-236.05
-230.61
-221.68
-205.91
-182.98
-155.54
-126.76
-98.57
-71.89
-46.11
-20.48
6.25
34.76
64.82
94.51
119.31
133.04
128.38
100.56
49.16
-19.35
-92.85
-156.72
-198.02
-209.95
-192.64
-152.93
-100.16
-43.83
9.28
55.50
93.14
122.25
143.41
158.70
170.82
183.91
201.67
226.07
257.07
291.91
327.29
359.79
388.20
413.05
437.16
464.53
498.81
542.07
591.94
641.86
681.07
698.62
686.83
644.67
578.79
500.83
424.00
357.47
304.85
263.41
227.39
191.07
150.97
107.27
62.06
18.61
-21.27
-57.30
-91.46
-126.76
-165.65
-210.06
-260.28
-316.25
-376.16
-436.89
-492.18
-533.26
-551.03
-539.43
-500.37
-444.31
-388.20
-348.14
-333.10
-340.92
-360.29
-377.28
-381.10
-368.94
-343.90
-311.77
-276.18
-237.35
-193.94
-145.57
-95.23
-47.44
-7.03
24.49
48.59
68.67
87.91
107.30
126.03
141.41
151.73
155.78
154.61
151.78
153.43
167.38
199.65
251.72
317.23
384.53
438.73
468.13
468.64
444.47
406.28
364.46
325.15
287.58
248.36
203.35
151.58
96.96
46.89
10.83
-4.30
4.41
34.74
83.08
142.71
204.35
257.54
292.58
304.24
292.65
264.04
228.40
199.60
188.05
196.53
220.22
249.15
272.85
281.92
269.87
215.67
114.24
-19.31
-154.28
-260.16
-321.60
-340.70
-331.86
-312.29
-295.00
-282.58
-271.44
-256.97
-237.19
-213.82
-190.44
-171.73
-161.52
-163.22
-176.99
-201.71
-235.38
-273.57
-309.42
-333.29
-339.64
-324.16
-287.94
-236.54
-178.20
-121.66
-73.39
-37.49
-15.95
-10.36
-20.98
-45.12
-74.79
-97.44
-100.06
-74.35
-20.86
50.59
123.85
181.83
211.64
208.18
175.06
122.63
65.04
15.76
-13.25
-15.06
10.37
57.78
117.97
181.26
238.36
280.85
302.48
299.59
273.10
228.12
173.15
116.45
64.06
19.05
-16.87
-40.25
-46.15
-30.35
5.99
54.10
98.74
123.81
119.45
85.75
32.74
-25.22
-75.05
-109.76
-128.39
-133.81
-129.89
-119.39
-105.40
-90.92
-79.79
-74.42
-75.32
-80.75
-88.38
-98.20
-112.61
-136.86
-175.64
-231.32
-301.21
-377.82
-450.25
-506.34
-536.58
-535.54
-504.19
-448.73
-379.25
-306.20
-237.75
-178.33
-128.29
-86.71
-51.43
-20.56
8.93
40.49
76.70
117.35
157.20
187.81
199.87
188.22
153.38
101.56
42.11
-15.96
-64.85
-99.00
-113.68
-106.44
-77.72
-33.71
14.21
52.97
72.39
71.08
56.49
43.02
44.50
68.57
112.35
163.38
204.66
219.92
200.72
147.96
72.77
-7.92
-75.89
-117.24
-126.68
-108.36
-75.73
-46.01
-35.40
-52.98
-98.25
-161.56
-227.88
-282.86
-316.54
-326.73
-316.34
-291.72
-258.90
-222.53
-186.22
-152.89
-126.37
-109.26
-102.83
-104.29
-108.01
-106.93
-95.32
-71.88
-39.22
-3.78
28.12
51.75
66.74
76.05
84.57
97.31
117.15
145.81
182.69
225.93
270.70
309.71
334.77
339.90
325.53
298.76
272.53
258.90
265.32
291.34
330.80
376.62
423.70
470.27
513.83
549.77
570.13
567.91
541.10
494.77
440.00
387.89
346.18
315.66
292.79
271.92
249.06
222.74
192.53
158.47
119.81
77.65
35.77
1.95
-15.01
-9.09
19.04
60.26
100.55
125.39
126.92
105.99
71.54
35.53
7.37
-8.68
-14.08
-12.25
-6.93
0.13
7.60
13.14
12.92
1.72
-24.17
-65.78
-119.29
-177.97
-232.91
-276.54
-304.51
-315.99
-314.19
-304.41
-293.69
-288.35
-293.17
-308.98
-332.27
-356.07
-371.61
-372.43
-356.01
-325.25
-285.99
-244.75
-205.66
-169.66
-135.83
-102.05
-66.83
-28.18
16.09
68.21
128.57
193.68
255.89
304.85
332.52
335.88
319.62
293.49
268.03
250.43
242.15
239.80
237.20
229.08
211.75
184.10
147.38
105.16
63.94
31.76
16.40
20.74
41.65
69.57
92.23
99.29
85.70
53.47
10.09
-34.30
-71.44
-97.32
-113.17
-123.95
-135.68
-153.49
-180.03
-215.19
-256.99
-303.89
-354.84
-408.18
-459.57
-500.81
-523.01
-520.96
-495.84
-455.65
-412.83
-378.88
-359.80
-354.74
-356.58
-357.18
-350.82
-333.97
-305.06
-264.39
-214.43
-160.03
-108.72
-67.96
-34.33
-3.82
30.40
75.64
135.41
206.84
282.16
348.36
400.72
436.46
453.05
449.77
428.01
391.49
345.51
299.16
261.70
240.14
234.22
236.22
234.59
218.76
183.18
128.52
62.64
-3.26
-57.44
-92.73
-107.73
-105.57
-92.31
-74.80
-60.81
-56.22
-65.31
-89.53
-128.00
-177.23
-230.86
-280.93
-319.73
-344.18
-354.88
-355.80
-351.42
-344.45
-334.60
-318.24
-290.28
-237.68
-157.14
-56.87
44.40
126.50
178.33
200.95
204.61
201.12
198.66
197.45
194.06
185.69
173.19
161.69
156.26
159.01
167.43
175.75
176.68
165.81
143.93
114.07
81.87
52.93
31.97
21.83
23.12
32.73
45.24
54.45
55.11
47.06
34.72
24.58
20.94
23.74
28.59
30.38
26.65
19.26
12.91
11.28
14.85
20.19
22.29
16.67
1.01
-24.16
-55.69
-88.24
-115.87
-131.93
-133.32
-121.77
-103.60
-86.58
-76.93
-76.85
-83.83
-93.15
-100.60
-105.50
-109.02
-112.52
-115.11
-113.76
-104.49
-84.11
-52.16
-11.40
32.98
75.27
111.20
139.55
160.98
176.98
188.56
195.35
195.54
187.05
169.45
139.91
102.21
63.43
31.38
12.71
11.70
30.01
64.86
111.06
159.77
200.13
221.56
217.59
188.50
141.36
87.06
37.74
1.67
-18.69
-25.59
-23.37
-15.93
-5.52
6.64
18.28
28.77
35.28
35.21
27.12
11.95
-7.87
-29.12
-48.96
-66.71
-81.33
-94.52
-109.53
-129.95
-156.41
-186.06
-213.38
-224.39
-221.22
-205.36
-181.47
-150.91
-117.90
-85.79
-57.85
-37.85
-30.03
-36.92
-53.33
-68.58
-69.09
-44.48
8.23
81.73
160.72
222.33
247.13
232.11
188.66
133.75
81.21
40.56
12.94
-1.99
-5.62
-1.76
4.03
3.93
-8.38
-34.87
-69.05
-97.53
-104.95
-81.72
-29.62
38.39
102.08
141.61
145.35
113.98
58.19
-6.83
-67.61
-115.60
-147.02
-160.73
-156.64
-136.69
-106.98
-77.88
-61.00
-63.71
-84.38
-112.93
-134.93
-140.18
-128.20
-108.75
-95.16
-95.19
-106.19
-117.63
-117.96
-100.68
-68.05
-28.91
6.28
30.17
39.61
36.83
30.57
24.56
17.32
3.38
-19.67
-49.65
-79.98
-100.85
-102.75
-81.83
-39.34
20.95
92.71
168.26
239.31
298.26
341.15
366.96
374.31
364.25
342.17
315.37
291.52
275.73
259.58
235.95
216.14
202.89
188.71
169.70
142.95
106.09
57.41
-2.80
-70.58
-133.16
-176.59
-190.53
-173.12
-132.97
-83.10
-34.78
5.77
38.62
66.38
90.01
107.93
118.45
120.09
113.24
100.10
83.91
68.74
57.49
48.97
39.00
24.06
1.05
-30.71
-67.97
-104.18
-131.11
-142.37
-136.62
-116.85
-88.12
-55.61
-23.53
4.82
25.95
36.92
36.29
25.54
10.14
-1.80
-2.71
11.26
38.98
74.99
112.17
143.55
163.63
169.07
159.27
137.06
108.38
80.43
58.25
42.20
28.28
10.56
-14.27
-44.88
-75.63
-100.02
-114.28
-119.09
-118.47
-116.73
-115.90
-115.14
-112.43
-106.32
-97.78
-89.53
-84.91
-86.29
-93.93
-106.19
-120.36
-134.02
-145.94
-156.36
-166.02
-174.73
-180.50
-179.98
-170.53
-152.31
-128.34
-102.93
-79.10
-57.29
-35.46
-11.49
14.86
40.71
60.52
70.60
71.94
69.97
71.06
78.89
91.51
102.59
103.53
85.11
43.47
-18.12
-90.43
-162.02
-222.93
-268.01
-297.38
-315.68
-333.72
-359.00
-391.88
-425.51
-450.56
-460.01
-452.45
-432.42
-409.00
-398.07
-409.99
-445.20
-493.52
-540.12
-571.76
-581.64
-570.47
-508.82
-391.90
-239.73
-86.81
40.87
134.48
196.75
232.40
245.86
241.32
217.61
180.99
141.14
108.52
89.56
85.32
92.15
106.74
127.46
153.22
185.18
224.96
273.67
329.47
387.50
440.51
483.91
515.58
536.21
548.83
556.82
562.98
567.97
570.51
567.20
556.51
516.43
434.88
314.18
169.94
22.75
-111.66
-218.38
-302.78
-370.74
-426.16
-468.59
-497.17
-512.54
-516.44
-511.72
-500.85
-486.33
-467.38
-442.30
-406.77
-357.99
-296.44
-226.18
-154.06
-87.66
-34.55
1.29
18.29
19.39
9.25
-6.81
-23.66
-36.59
-41.05
-33.83
-13.03
20.01
62.44
109.56
156.87
201.38
241.79
277.57
307.20
327.94
335.94
330.13
311.64
284.12
252.48
221.25
193.22
169.05
147.91
128.33
113.13
104.93
105.37
114.36
130.21
150.90
175.52
204.55
238.93
285.07
346.16
420.05
499.49
575.31
640.10
690.43
726.99
752.00
775.65
803.80
835.65
864.55
882.51
884.77
872.71
852.49
787.46
659.67
469.64
240.29
6.52
-201.17
-366.22
-485.33
-557.62
-599.07
-615.31
-610.07
-587.76
-555.43
-522.13
-497.89
-491.19
-505.76
-541.54
-586.66
-627.25
-651.29
-651.68
-621.07
-560.12
-478.82
-393.62
-320.65
-263.65
-219.20
-181.86
-149.16
-122.61
-106.48
-102.75
-109.64
-122.22
-131.72
-131.79
-120.26
-98.52
-69.65
-37.22
-4.01
28.18
56.10
76.88
89.87
98.50
108.40
122.63
137.51
144.31
134.73
106.63
66.63
26.59
-2.84
-17.52
-20.69
-19.60
-20.08
-23.49
-27.42
-28.42
-24.93
-18.36
-11.99
-8.93
-10.29
-14.51
-18.62
-19.95
-17.29
-11.55
-5.06
-0.48
0.96
0.02
-0.66
1.56
8.13
18.85
31.81
44.20
53.13
56.43
52.87
42.54
27.18
10.70
-1.57
-5.57
-0.60
9.11
16.27
13.77
-1.52
-27.32
-56.38
-79.64
-90.60
-85.27
-66.59
-39.91
-11.33
16.93
42.80
64.27
79.34
86.16
83.93
72.66
53.64
29.02
2.20
-24.09
-47.63
-67.26
-83.14
-96.50
-108.24
-117.50
-120.71
-113.36
-92.84
-60.13
-20.50
18.15
48.47
66.88
74.14
74.04
69.83
61.31
46.56
24.15
-4.33
-33.66
-56.96
-69.10
-68.52
-57.53
-40.99
-23.40
-6.92
8.40
22.93
35.80
43.97
43.62
31.77
7.14
-26.82
-63.99
-95.61
-112.99
-110.62
-88.98
-56.72
-22.93
1.69
9.41
-2.04
-28.06
-59.11
-82.98
-91.67
-82.82
-59.29
-27.59
5.82
36.00
60.49
78.89
91.49
98.25
99.82
98.32
94.95
90.67
85.19
77.17
64.46
44.76
16.73
-18.04
-55.02
-86.85
-106.42
-110.58
-101.76
-86.73
-73.74
-69.26
-72.39
-77.70
-77.44
-65.32
-40.29
-8.86
18.53
32.11
25.95
0.09
-40.29
-86.32
-127.86
-156.58
-167.97
-162.51
-146.14
-128.18
-117.60
-119.45
-132.44
-150.24
-165.56
-173.52
-173.59
-169.09
-164.03
-159.91
-157.17
-153.89
-147.90
-139.13
-129.41
-120.98
-114.90
-109.89
-103.37
-93.18
-78.41
-60.17
-41.48
-25.62
-14.71
-8.48
-4.79
-1.35
3.03
8.17
12.55
14.07
10.95
2.93
-6.99
-14.57
-16.35
-10.71
2.36
21.95
47.10
76.71
110.41
150.99
200.11
255.92
313.12
364.79
405.33
432.10
444.83
446.79
447.55
455.23
472.62
497.06
522.98
546.00
564.54
578.35
589.82
607.96
639.17
684.05
738.02
793.65
844.55
885.81
911.76
874.54
747.91
538.99
289.25
51.21
-139.94
-273.84
-350.19
-391.43
-413.15
-416.98
-401.48
-368.91
-326.97
-289.64
-268.51
-269.42
-293.08
-331.47
-367.80
-383.89
-375.70
-345.66
-303.58
-260.06
-222.07
-193.49
-173.77
-159.47
-149.28
-145.49
-150.20
-163.38
-181.08
-196.60
-204.85
-203.06
-191.13
-171.74
-149.47
-128.32
-111.32
-101.05
-100.05
-111.88
-138.81
-179.78
-229.46
-278.42
-315.60
-332.22
-325.52
-298.49
-258.46
-212.75
-166.07
-120.81
-79.10
-44.64
-22.32
-16.24
-25.45
-43.86
-62.78
-75.35
-80.35
-81.59
-83.84
-87.79
-88.94
-79.40
-53.83
-14.00
31.53
70.74
94.09
98.57
88.40
71.76
57.21
51.20
57.26
76.90
109.00
149.46
192.19
230.88
260.28
277.80
283.97
281.79
275.44
267.85
258.68
247.02
233.41
219.19
205.12
190.02
170.40
142.46
103.13
49.12
-18.88
-95.47
-173.28
-246.48
-312.49
-372.03
-426.99
-479.51
-534.88
-594.89
-655.52
-707.65
-741.00
-747.88
-725.93
-678.59
-587.46
-455.10
-303.59
-163.31
-55.10
16.56
58.16
78.43
84.55
80.30
66.55
45.80
23.16
4.94
-5.01
-6.55
-2.40
4.53
12.71
18.62
20.83
20.34
19.79
21.05
23.76
27.02
29.81
33.74
38.73
44.38
50.15
55.89
61.32
65.14
68.21
72.04
82.47
103.42
136.09
178.67
227.85
280.06
331.04
380.83
430.54
486.97
554.92
635.03
723.19
812.45
895.28
963.38
1014.27
1009.96
927.96
768.42
556.88
330.58
120.89
-39.24
-156.61
-241.38
-302.24
-340.06
-355.42
-353.86
-342.38
-328.62
-318.51
-316.99
-321.85
-329.03
-329.65
-316.31
-284.96
-237.74
-180.65
-121.63
-69.97
-29.75
-2.25
15.77
28.00
37.13
44.17
49.10
51.97
52.42
52.33
52.80
54.28
54.84
50.83
38.56
16.71
-12.50
-44.32
-72.16
-91.08
-98.99
-97.02
-88.08
-75.44
-61.26
-46.65
-32.38
-19.15
-8.07
-0.21
3.80
4.31
2.50
0.08
-1.47
-1.27
0.59
3.50
6.96
10.68
14.87
20.01
26.62
34.92
44.70
55.08
65.15
74.41
82.78
90.61
98.52
107.04
116.57
126.99
137.45
146.94
154.62
159.80
161.93
160.62
155.02
143.84
129.81
114.08
97.64
81.49
66.72
54.26
45.06
39.58
38.16
40.77
46.52
54.35
63.13
71.78
79.19
84.67
87.62
87.92
85.72
81.02
74.08
65.29
55.29
44.63
34.18
24.66
17.01
12.08
10.24
11.73
16.17
22.90
30.60
37.86
43.06
44.92
42.53
35.39
23.78
8.27
-10.00
-29.82
-49.64
-68.02
-83.48
-94.77
-101.23
-102.64
-99.68
-93.41
-85.46
-77.23
-69.89
-63.98
-59.56
-56.65
-55.33
-56.35
-60.57
-69.03
-82.02
-99.02
-118.77
-139.75
-161.08
-182.07
-202.35
-220.74
-235.47
-244.17
-244.92
-236.87
-220.08
-195.23
-162.65
-123.09
-78.25
-32.01
10.12
42.77
62.87
71.20
71.54
68.74
65.51
61.70
54.49
40.80
19.32
-8.65
-38.79
-65.35
-81.95
-83.80
-68.99
-40.02
-4.05
29.21
50.12
53.22
38.80
13.15
-14.87
-37.15
-49.45
-52.25
-48.98
-44.23
-41.06
-40.80
-42.76
-45.47
-47.65
-49.03
-50.87
-55.23
-65.07
-82.25
-106.84
-135.70
-163.00
-181.86
-186.88
-177.03
-155.84
-130.94
-110.46
-100.67
-104.11
-119.62
-143.76
-172.06
-200.38
-224.20
-239.59
-242.93
-232.42
-209.10
-176.62
-140.28
-104.66
-72.84
-45.61
-23.46
-7.32
0.89
-0.72
-12.00
-30.12
-49.79
-65.86
-74.74
-76.02
-71.52
-63.89
-55.71
-48.69
-44.38
-43.68
-46.98
-52.91
-58.51
-59.96
-53.98
-39.82
-19.20
3.51
23.24
34.82
34.41
20.22
-6.96
-43.01
-81.19
-112.61
-128.96
-124.15
-96.26
-47.81
14.92
83.09
147.80
201.09
238.05
256.89
259.29
249.30
232.08
212.37
192.67
173.25
151.75
125.42
92.81
55.92
20.59
-5.17
-14.05
-3.42
23.61
58.27
89.82
109.40
113.25
103.74
87.12
70.68
58.79
51.70
45.25
33.54
11.75
-21.07
-60.92
-100.39
-130.58
-144.69
-139.16
-114.51
-74.52
-25.23
25.68
70.02
99.76
109.37
97.12
66.57
25.50
-16.54
-51.51
-75.79
-90.10
-98.32
-103.95
-108.49
-110.72
-108.14
-99.14
-83.94
-65.01
-45.05
-26.18
-8.87
6.86
20.33
29.49
30.95
22.17
2.62
-24.45
-53.36
-77.44
-91.74
-94.58
-87.54
-74.60
-59.68
-45.86
-34.56
-26.91
-24.28
-28.70
-41.68
-62.21
-86.31
-107.02
-117.50
-113.52
-95.91
-70.37
-45.11
-27.81
-22.20
-27.20
-37.15
-44.73
-43.24
-28.76
-0.62
39.38
87.42
139.22
189.76
234.09
267.32
285.47
286.45
270.54
240.96
202.88
163.05
127.95
102.94
90.60
90.22
97.98
107.88
114.05
111.93
99.88
78.54
50.29
18.08
-14.88
-45.04
-68.84
-82.71
-84.81
-75.53
-58.34
-38.57
-21.64
-11.25
-8.13
-11.08
-17.57
-25.64
-34.06
-42.16
-48.88
-52.08
-48.89
-36.23
-13.10
18.99
55.23
89.06
114.29
127.05
127.05
116.65
99.98
80.71
61.72
44.74
31.28
23.09
21.76
28.32
41.60
58.55
74.47
85.00
87.61
82.60
73.24
64.16
60.41
65.18
79.05
99.24
120.36
135.85
139.68
128.63
102.85
66.45
25.64
-12.82
-43.74
-64.28
-73.65
-72.51
-61.57
-41.83
-14.52
17.80
51.20
80.65
101.05
108.98
103.40
86.76
64.01
41.64
25.78
20.66
28.38
48.84
81.17
123.41
172.69
223.79
269.33
300.99
311.95
300.07
268.62
225.86
181.50
143.71
116.37
99.03
88.44
80.44
72.13
62.02
50.22
37.28
23.41
8.21
-9.30
-30.12
-55.32
-84.85
-117.65
-151.20
-182.60
-209.65
-231.30
-248.14
-261.83
-275.19
-290.91
-311.60
-338.45
-370.44
-404.41
-434.05
-452.13
-453.35
-438.50
-414.79
-394.24
-388.80
-405.23
-444.42
-498.34
-553.17
-594.05
-610.96
-600.76
-566.58
-515.15
-453.78
-393.06
-339.84
-296.55
-262.31
-236.55
-219.64
-211.69
-211.00
-213.55
-220.98
-231.92
-240.94
-240.03
-223.90
-192.00
-147.81
-97.20
-46.14
-8.00
10.50
12.00
5.42
-2.62
-11.67
-26.02
-51.47
-37.15
37.91
157.34
281.34
380.05
444.18
477.32
487.64
483.43
472.39
451.85
421.01
383.94
348.20
318.18
293.10
269.37
243.20
214.26
179.11
140.75
104.64
83.73
84.66
104.92
136.37
169.04
195.42
206.94
199.64
174.98
138.25
95.27
51.13
10.73
-22.37
-46.99
-66.98
-87.66
-111.72
-137.80
-161.44
-174.99
-172.88
-153.54
-120.85
-83.04
-49.58
-26.54
-15.79
-15.11
-20.98
-30.74
-43.02
-57.75
-73.59
-88.02
-96.05
-93.07
-76.02
-45.43
-6.01
35.71
72.45
99.91
116.67
125.46
130.74
137.58
150.20
170.16
197.24
227.95
257.17
277.59
282.23
265.87
227.63
172.42
109.28
50.17
4.79
-20.94
-26.87
-16.61
4.95
33.74
67.42
102.77
135.28
157.12
160.21
138.65
91.87
25.98
-48.23
-117.66
-171.89
-203.77
-211.62
-197.75
-167.65
-129.04
-89.60
-56.37
-33.26
-22.75
-25.51
-43.13
-76.87
-125.66
-184.51
-242.62
-287.40
-307.81
-300.38
-269.66
-227.05
-185.13
-152.13
-130.56
-116.92
-106.99
-97.54
-88.77
-82.08
-78.81
-78.80
-79.54
-78.64
-73.66
-64.62
-52.70
-40.31
-29.52
-21.05
-14.62
-8.29
-0.78
9.30
21.55
34.91
47.92
59.18
68.44
75.93
83.22
91.32
101.69
114.86
131.03
150.19
171.89
196.04
221.77
248.48
274.44
297.85
316.53
328.29
331.82
326.21
312.04
290.29
263.05
232.37
200.42
169.09
139.51
112.53
87.94
65.47
44.08
22.90
0.94
-22.43
-47.40
-73.87
-101.09
-128.39
-154.66
-179.04
-200.67
-219.05
-233.93
-245.25
-253.31
-258.23
-260.37
-259.83
-256.70
-250.92
-242.41
-231.17
-217.17
-200.69
-181.92
-161.33
-139.37
-116.57
-93.45
-70.53
-48.35
-27.27
-7.74
10.15
26.25
40.70
53.67
65.34
75.88
85.32
93.82
101.40
108.45
115.43
123.03
131.92
142.39
154.21
166.41
177.55
185.87
189.94
188.93
182.73
171.97
157.48
140.07
120.15
98.01
74.07
49.42
26.13
6.93
-5.13
-7.78
-0.17
16.59
40.07
67.05
94.64
120.89
145.00
167.51
190.04
215.35
246.49
285.77
333.31
385.90
437.21
479.65
507.44
518.80
516.75
507.19
496.10
487.23
481.26
476.95
472.66
467.86
462.82
457.73
451.57
441.93
426.03
402.12
370.54
333.41
294.02
254.95
217.20
179.72
140.03
95.52
44.70
-11.82
-71.83
-132.25
-190.54
-245.43
-297.08
-346.78
-396.40
-447.97
-502.81
-560.69
-618.91
-671.88
-711.95
-731.54
-726.07
-695.91
-646.73
-587.50
-527.39
-473.07
-427.62
-391.17
-362.54
-340.80
-325.38
-315.66
-310.18
-306.52
-301.94
-294.38
-283.08
-268.56
-252.27
-235.56
-219.13
-202.88
-186.10
-168.08
-148.51
-127.77
-106.71
-86.27
-67.11
-49.34
-32.62
-16.36
-0.06
16.54
33.51
50.63
67.73
84.71
101.71
119.21
138.25
159.89
184.57
211.25
237.15
258.50
272.02
276.49
273.24
265.49
256.58
248.46
241.14
233.55
224.95
215.67
206.94
199.82
194.24
188.91
182.32
173.93
164.62
156.29
150.47
147.38
145.85
143.90
139.88
133.27
124.71
115.38
106.38
98.13
90.41
82.74
74.65
66.05
57.24
48.69
40.84
33.89
27.70
22.07
16.85
12.04
7.91
4.77
2.70
1.48
0.66
-0.31
-1.68
-3.36
-5.04
-6.39
-7.29
-7.95
-8.74
-10.02
-11.92
-14.25
-16.66
-18.82
-20.48
-21.58
-22.03
-21.74
-20.57
-18.53
-15.70
-12.35
-8.82
-5.40
-2.30
0.36
2.41
3.66
3.84
2.85
0.81
-1.89
-4.68
-7.04
-8.63
-9.40
-9.49
-9.13
-8.59
-8.08
-7.75
-7.70
-7.93
-8.33
-8.77
-9.11
-9.27
-9.36
-9.60
-10.24
-11.40
-12.98
-14.65
-15.87
-16.19
-15.31
-13.30
-10.50
-7.45
-4.68
-2.59
-1.38
-1.06
-1.55
-2.73
-4.47
-6.56
-8.77
-10.82
-12.47
-13.59
-14.14
-14.27
-14.19
-14.13
-14.26
-14.62
-15.18
-15.86
-16.66
-17.56
-18.76
-20.41
-22.53
-24.93
-27.18
-28.72
-29.02
-27.76
-24.89
-20.69
-15.61
-10.13
-4.71
0.32
4.74
8.45
11.44
13.75
15.46
16.66
17.38
17.67
17.60
17.28
16.80
16.24
15.65
15.00
14.27
13.39
12.36
11.21
10.01
8.84
7.73
6.71
5.80
5.00
4.31
3.65
2.97
2.13
1.01
-0.48
-2.31
-4.33
-6.31
-7.92
-8.98
-9.42
-9.40
-9.22
-9.20
-9.50
-10.10
-10.75
-11.11
-10.97
