1515730725.00
64.000000
-0.00
-0.00
-0.00
-0.00
-0.00
-0.00
-0.00
-0.00
-0.00
-0.00
0.00
0.01
0.01
-0.00
-0.03
-0.05
-0.05
0.00
0.13
0.36
0.66
1.01
1.37
1.72
2.06
2.40
2.79
3.24
3.80
4.42
5.06
5.66
6.20
6.68
7.15
7.68
8.31
9.14
10.09
11.04
11.88
12.56
13.14
13.76
14.65
15.96
17.91
20.32
22.90
25.38
27.58
29.57
31.68
34.32
37.81
42.54
48.15
54.10
59.83
64.97
69.58
74.14
79.34
85.71
93.76
103.00
112.62
121.73
129.77
136.75
143.30
150.75
157.77
166.64
177.95
191.79
206.97
220.57
228.25
225.36
208.53
176.87
132.76
80.05
23.07
-34.94
-92.44
-149.16
-205.23
-260.37
-313.74
-363.87
-409.83
-450.91
-486.50
-515.74
-537.23
-549.22
-549.96
-538.37
-514.21
-478.67
-433.88
-382.45
-327.02
-269.84
-212.63
-156.66
-102.95
-52.37
-5.90
35.58
71.43
101.35
125.50
144.38
158.69
169.15
176.37
180.75
182.57
182.07
179.51
175.23
169.65
163.18
156.15
148.81
141.30
133.69
126.02
118.33
110.69
103.16
95.80
88.68
81.83
75.25
68.95
62.95
57.25
51.86
46.78
42.03
37.59
33.45
29.61
26.07
22.81
19.83
17.11
14.67
12.48
10.54
8.83
7.35
6.07
4.97
4.05
3.27
2.62
2.09
1.65
1.30
1.01
0.79
0.61
0.48
0.37
0.28
0.22
0.17
0.14
0.11
0.11
0.12
0.14
0.15
0.15
0.13
0.09
0.06
0.04
0.05
0.10
0.17
0.23
0.28
0.28
0.26
0.23
0.23
0.27
0.34
0.43
0.48
0.46
0.36
0.23
0.12
0.11
0.24
0.49
0.79
1.01
1.06
0.93
0.67
0.44
0.40
0.65
1.16
1.78
2.26
2.40
2.13
1.60
1.11
0.98
1.40
2.31
3.38
4.17
4.34
3.80
2.85
2.02
1.81
2.46
3.78
5.27
6.33
6.59
5.97
4.54
2.39
-0.45
-3.79
-7.07
-9.35
-9.67
-7.69
-3.94
0.06
2.57
2.34
-0.90
-6.40
-12.97
-19.47
-25.25
-30.15
-34.12
-36.82
-37.42
-34.77
-28.06
-17.51
-4.79
7.34
15.87
18.95
16.77
11.43
6.02
2.87
2.47
3.48
3.74
1.86
-1.93
-5.90
-7.95
-6.79
-2.66
2.87
7.96
11.36
12.99
13.60
14.05
14.69
15.17
14.73
12.98
10.37
8.11
7.60
9.52
13.42
17.78
20.65
20.42
16.41
8.93
-1.01
-12.05
-22.89
-32.46
-39.86
-44.69
-46.96
-47.23
-46.27
-44.92
-43.12
-40.99
-38.51
-35.62
-32.13
-27.54
-21.02
-11.56
1.66
18.92
39.79
63.43
88.77
114.49
138.83
159.42
173.68
179.77
177.68
169.64
159.60
151.58
147.88
148.07
149.22
147.17
138.22
120.29
93.15
58.21
17.77
-25.75
-70.16
-114.06
-157.26
-201.08
-247.69
-298.51
-352.22
-403.64
-444.42
-465.77
-461.98
-433.02
-384.71
-326.34
-266.83
-211.51
-161.37
-114.10
-66.64
-17.25
33.62
83.58
129.17
166.88
193.91
208.75
211.64
204.78
191.73
176.72
163.46
154.40
150.34
150.65
153.74
157.69
160.78
161.62
159.44
153.94
145.15
133.58
120.15
106.37
94.30
86.27
84.50
90.59
104.62
124.28
144.73
159.59
163.14
152.75
130.14
100.61
70.51
44.29
22.78
3.77
-16.08
-39.22
-66.35
-96.99
-130.41
-166.04
-202.73
-237.89
-267.11
-285.42
-288.85
-276.09
-249.07
-212.29
-171.35
-131.43
-96.13
-66.95
-43.51
-24.07
-6.56
10.27
26.48
40.98
52.34
59.72
63.43
64.73
65.24
66.27
68.57
72.45
78.03
85.21
93.32
100.65
104.30
100.73
87.35
64.23
35.04
6.03
-16.30
-28.03
-29.60
-25.27
-20.80
-20.42
-24.87
-31.68
-37.19
-38.90
-36.89
-33.52
-31.57
-32.29
-34.52
-35.45
-32.18
-23.52
-10.71
3.09
14.39
21.11
23.60
24.39
26.90
33.76
45.68
61.21
77.45
91.28
100.45
104.00
102.10
95.49
84.89
70.75
53.37
33.14
11.02
-11.35
-31.86
-48.46
-59.75
-65.60
-67.20
-66.57
-65.64
-65.56
-66.14
-66.07
-63.69
-57.80
-48.47
-37.07
-25.72
-16.32
-9.67
-5.00
-0.27
6.97
18.65
35.38
56.18
78.61
99.16
113.87
119.19
113.07
95.80
70.29
41.25
13.71
-8.78
-25.09
-36.36
-44.77
-52.18
-59.34
-65.94
-71.48
-75.94
-79.96
-84.46
-90.00
-96.44
-103.00
-108.71
-112.81
-115.02
-115.43
-114.22
-111.34
-106.22
-97.86
-85.21
-67.65
-45.77
-21.59
1.68
20.75
33.48
39.82
41.72
42.10
43.49
47.10
52.81
59.75
67.20
74.92
82.94
90.91
97.85
102.41
103.47
101.08
96.42
91.35
87.51
85.42
84.24
82.05
76.57
66.17
50.60
31.26
10.76
-8.12
-23.53
-35.39
-45.26
-55.71
-69.22
-87.47
-110.97
-139.23
-170.61
-202.27
-230.16
-249.56
-256.34
-248.39
-226.61
-194.58
-157.28
-119.21
-83.18
-50.17
-19.86
8.32
34.55
58.55
79.84
97.88
112.25
122.63
128.94
131.48
130.93
128.23
124.37
120.30
116.94
114.88
114.15
113.97
112.97
109.77
103.67
94.97
84.78
74.28
63.92
53.25
41.24
27.08
10.94
-5.98
-21.70
-34.15
-41.74
-43.68
-40.35
-33.47
-25.88
-20.74
-20.18
-24.07
-29.68
-32.72
-29.15
-17.17
1.66
22.94
41.25
52.44
55.21
51.23
43.81
36.60
32.57
33.67
40.70
53.04
68.60
83.99
95.35
99.62
95.54
84.00
67.42
48.68
30.13
13.25
-1.07
-12.25
-20.08
-25.10
-28.88
-33.66
-41.43
-52.92
-67.19
-82.03
-94.84
-103.40
-106.50
-104.06
-96.93
-86.54
-74.77
-63.70
-55.31
-51.06
-51.53
-56.48
-64.84
-74.71
-83.61
-88.84
-88.17
-80.65
-66.97
-49.41
-31.07
-14.92
-2.84
4.72
8.59
10.37
12.06
15.81
23.58
36.54
54.22
73.98
91.40
101.88
102.64
93.88
78.82
62.31
48.77
40.73
38.25
39.35
41.06
40.39
35.04
23.86
7.13
-13.34
-34.25
-51.58
-61.56
-62.01
-53.21
-38.06
-21.17
-7.40
-0.41
-1.66
-10.36
-23.94
-39.04
-52.34
-61.26
-64.28
-60.97
-52.05
-39.26
-25.14
-12.56
-3.86
-0.24
-1.03
-3.88
-5.49
-2.92
5.04
17.39
31.36
43.82
52.78
58.27
61.88
65.61
70.53
76.37
82.04
86.78
90.97
95.86
102.51
110.49
117.44
119.98
115.33
102.69
83.55
60.81
37.29
14.67
-6.80
-27.47
-47.34
-65.48
-80.29
-90.14
-94.10
-92.25
-85.41
-74.79
-61.66
-47.40
-33.48
-21.28
-11.84
-5.53
-2.13
-0.88
-0.72
-0.56
0.56
3.07
6.72
10.56
13.40
14.52
14.21
13.78
14.74
17.78
21.90
24.52
22.41
13.21
-3.32
-24.93
-47.54
-66.61
-78.71
-82.53
-79.14
-71.32
-62.34
-54.71
-49.42
-45.93
-42.82
-38.77
-33.24
-26.64
-19.96
-14.20
-9.87
-6.96
-5.10
-4.02
-3.70
-4.45
-6.67
-10.47
-15.45
-20.69
-24.97
-27.23
-27.00
-24.60
-20.95
-17.19
-14.07
-11.74
-9.72
-7.33
-4.15
-0.36
3.34
6.12
7.41
7.33
6.55
5.96
6.25
7.57
9.59
11.63
12.98
13.00
11.24
7.43
1.68
-5.36
-12.53
-18.33
-21.46
-21.14
-17.42
-10.95
-2.61
6.94
17.37
28.46
39.80
50.55
59.61
65.97
69.05
68.95
66.29
61.98
56.90
51.75
46.94
42.85
39.90
38.54
39.09
41.49
45.04
48.47
50.13
48.44
42.20
31.09
15.75
-2.26
-20.87
-38.03
-52.34
-63.33
-71.46
-77.79
-83.39
-88.92
-94.12
-97.89
-98.65
-95.16
-87.21
-76.04
-64.24
-54.89
-50.52
-52.09
-58.65
-67.67
-75.98
-80.88
-80.85
-75.86
-67.15
-56.70
-46.68
-38.68
-33.19
-29.23
-24.66
-17.09
-5.07
11.17
29.72
47.91
63.57
75.90
85.51
93.66
101.25
108.22
113.54
115.92
114.49
109.13
100.36
88.90
75.50
60.79
45.61
31.04
18.34
8.47
1.56
-3.24
-7.53
-12.94
-20.45
-29.96
-40.52
-50.79
-59.73
-66.87
-72.16
-75.62
-76.93
-75.47
-70.61
-62.14
-50.26
-35.34
-17.50
3.33
26.79
51.10
72.74
87.16
90.56
81.81
63.42
40.54
18.72
1.37
-11.36
-21.78
-32.50
-44.37
-55.85
-64.02
-66.71
-63.84
-57.63
-51.28
-47.34
-46.56
-47.93
-49.53
-49.61
-47.42
-43.22
-38.07
-33.16
-29.36
-27.05
-26.03
-25.70
-25.31
-24.25
-22.19
-19.15
-15.27
-10.72
-5.63
-0.12
5.46
10.42
13.92
15.29
14.33
11.66
8.54
6.41
6.30
8.39
11.93
15.54
17.72
17.01
12.63
4.60
-6.15
-17.82
-28.13
-34.96
-36.99
-34.16
-28.27
-22.01
-18.30
-19.30
-25.67
-36.27
-48.57
-59.35
-65.42
-65.12
-57.70
-43.54
-23.62
0.62
27.36
54.05
77.19
93.00
97.35
88.30
66.87
37.10
5.09
-22.84
-41.78
-51.52
-49.46
-38.54
-21.94
-3.09
14.55
27.59
33.54
31.73
24.02
14.79
7.96
5.90
7.63
9.24
6.21
-3.75
-19.07
-34.91
-45.50
-47.94
-42.52
-32.39
-21.33
-11.73
-3.83
3.68
12.39
23.39
36.37
50.46
64.77
78.80
92.53
106.03
118.85
129.70
136.31
135.51
124.21
100.22
63.41
16.39
-35.83
-87.25
-132.67
-168.93
-195.27
-212.38
-221.14
-221.65
-212.87
-193.48
-163.21
-123.81
-79.02
-33.28
9.88
48.84
83.62
114.71
141.62
162.44
174.58
176.23
167.71
151.88
133.23
116.29
103.99
96.91
93.64
91.83
89.59
86.22
82.05
77.86
73.92
69.47
63.04
53.41
40.62
26.20
12.39
0.68
-9.16
-18.81
-29.96
-42.67
-54.77
-62.70
-63.50
-56.34
-42.83
-26.00
-8.79
6.97
20.58
31.93
40.92
47.30
50.84
51.46
49.12
43.59
34.52
21.93
6.61
-9.68
-24.70
-36.59
-44.45
-48.47
-49.61
-48.98
-47.43
-45.52
-43.63
-42.25
-41.89
-43.01
-45.73
-49.70
-54.14
-58.09
-60.76
-61.84
-61.47
-60.10
-58.10
-55.59
-52.22
-47.45
-40.85
-32.26
-21.92
-10.36
1.74
13.54
24.24
33.03
39.29
42.82
43.77
42.64
40.04
36.45
32.16
27.33
21.95
15.92
9.12
1.54
-6.49
-14.10
-19.81
-21.75
-18.19
-8.27
7.49
27.04
47.44
65.67
79.73
89.19
95.04
98.95
102.26
105.42
108.04
109.57
109.83
109.16
108.08
106.85
105.27
102.91
99.48
95.01
89.70
83.71
77.18
70.53
64.68
60.89
60.44
64.00
71.27
81.07
91.39
99.49
102.06
95.86
78.83
51.14
15.72
-22.25
-56.61
-82.03
-95.29
-96.08
-86.96
-72.71
-59.28
-53.04
-59.85
-84.04
-127.21
-187.03
-256.92
-326.78
-385.11
-422.11
-432.59
-417.37
-382.52
-336.72
-287.66
-239.59
-193.10
-146.39
-97.11
-43.80
13.82
74.83
137.12
197.40
251.48
294.94
324.31
337.99
336.89
324.24
304.81
283.78
265.70
253.63
248.64
249.94
255.15
261.05
264.39
262.70
254.75
240.82
222.49
201.92
181.04
160.39
138.94
114.64
85.70
51.81
14.50
-23.66
-60.48
-95.13
-128.18
-160.55
-192.31
-222.25
-248.64
-270.47
-288.22
-303.70
-318.77
-333.99
-347.97
-357.95
-361.17
-356.08
-342.88
-322.91
-297.69
-267.90
-233.32
-193.46
-148.40
-99.35
-48.51
1.34
47.53
87.86
120.75
145.21
160.91
168.30
168.64
163.86
156.14
147.39
138.95
131.66
125.95
122.03
119.96
119.59
120.54
122.31
124.35
126.14
127.27
127.38
126.19
123.55
119.34
113.55
106.27
97.83
88.91
80.51
73.87
70.05
69.67
72.73
78.79
87.11
96.85
107.02
116.27
122.95
125.47
122.93
115.51
104.54
91.85
78.89
66.09
52.55
36.50
16.20
-9.12
-38.54
-69.57
-98.91
-123.78
-142.95
-157.02
-167.87
-177.51
-186.97
-195.87
-202.71
-205.72
-203.70
-196.38
-184.35
-168.61
-150.27
-130.37
-109.86
-89.63
-70.53
-53.26
-38.42
-26.43
-17.39
-10.94
-6.23
-2.21
2.17
7.41
13.51
20.07
26.58
32.72
38.32
43.01
46.15
47.04
45.47
42.24
39.05
38.06
41.00
48.64
60.54
75.56
92.25
109.07
124.49
136.89
144.76
147.12
143.96
136.30
125.73
113.72
101.08
88.00
74.42
60.55
46.97
34.22
22.51
11.50
0.48
-11.11
-23.30
-35.62
-47.31
-57.77
-66.77
-74.35
-80.69
-85.81
-89.58
-91.84
-92.52
-91.86
-90.28
-88.38
-86.66
-85.43
-84.77
-84.47
-84.19
-83.58
-82.36
-80.36
-77.60
-74.14
-70.20
-66.05
-62.01
-58.33
-55.18
-52.54
-50.31
-48.33
-46.48
-44.72
-43.10
-41.71
-40.63
-39.93
-39.53
-39.27
-38.91
-38.20
-36.93
-34.99
-32.42
-29.38
-26.12
-22.94
-20.20
-18.25
-17.30
-17.36
-18.24
-19.56
-21.00
-22.33
-23.51
-24.66
-25.90
-27.31
-28.89
-30.63
-32.57
-34.83
-37.53
-40.72
-44.26
-47.88
-51.23
-54.04
-56.23
-57.84
-58.90
-59.22
-58.27
-55.30
-49.59
-40.85
-29.37
-16.06
-2.12
11.26
23.12
32.87
40.19
45.01
47.36
47.37
45.35
41.78
37.28
32.48
28.01
24.28
21.56
19.98
19.67
20.92
24.15
29.63
37.03
45.31
52.94
58.50
61.35
61.77
60.62
58.46
55.21
50.26
43.24
34.78
26.61
20.99
19.51
22.29
28.04
34.79
40.92
45.60
48.69
50.16
49.69
46.65
40.56
31.53
20.53
9.07
-1.37
-9.87
-16.36
-21.42
-25.96
-30.71
-35.90
-41.27
-46.34
-50.76
-54.61
-58.27
-62.26
-66.83
-71.87
-77.03
-81.93
-86.44
-90.67
-94.83
-99.11
-103.51
-107.87
-112.05
-115.94
-119.70
-123.70
-128.47
-134.61
-142.58
-152.55
-164.35
-177.52
-191.39
-205.08
-217.49
-227.19
-232.52
-231.70
-223.15
-205.68
-178.52
-141.20
-93.34
-34.74
34.17
111.52
193.48
274.30
347.31
406.53
448.36
472.46
481.57
480.23
473.18
463.93
454.15
443.93
432.58
419.31
403.54
384.88
363.01
337.60
308.55
276.21
241.32
204.79
167.31
129.06
89.64
48.55
5.74
-37.95
-80.86
-121.18
-157.59
-189.66
-217.45
-240.78
-258.49
-268.27
-267.48
-254.20
-228.28
-191.50
-146.98
-98.52
-50.04
-5.55
30.93
55.85
67.10
65.04
52.65
34.56
15.04
-3.62
-21.73
-40.95
-62.55
-85.98
-108.71
-127.29
-138.91
-142.82
-140.73
-135.84
-130.86
-127.02
-124.03
-120.91
-117.29
-113.60
-111.46
-112.87
-119.35
-130.15
-142.75
-154.12
-162.04
-166.27
-167.40
-166.34
-163.63
-159.09
-150.70
-136.08
-113.83
-84.20
-49.41
-11.89
26.05
63.56
95.75
117.51
126.54
124.08
116.30
104.86
90.82
76.17
63.87
54.77
50.46
50.70
53.03
54.27
52.09
47.33
42.79
41.13
43.02
47.80
53.73
59.18
63.37
66.01
67.66
68.68
68.82
67.47
64.69
60.86
56.40
51.63
46.71
42.51
40.38
41.93
48.44
60.69
78.25
99.19
120.32
137.69
148.04
149.74
143.50
132.30
120.53
112.21
109.23
110.67
113.35
113.87
110.38
103.52
95.52
88.33
81.88
74.02
62.32
46.43
29.03
14.34
5.06
-0.11
-6.15
-18.55
-39.19
-64.24
-85.90
-96.75
-94.15
-81.74
-67.12
-57.74
-57.36
-65.12
-77.42
-91.01
-104.73
-119.29
-135.46
-152.16
-165.97
-172.39
-168.09
-152.75
-129.56
-103.92
-81.28
-65.17
-56.29
-52.96
-52.49
-52.58
-52.12
-51.11
-50.10
-49.51
-49.44
-49.62
-49.77
-49.74
-49.51
-49.19
-48.80
-48.29
-47.50
-46.23
-44.25
-41.48
-38.02
-34.23
-30.72
-28.16
-26.98
-27.20
-28.31
-29.39
-29.51
-28.06
-24.94
-20.59
-15.67
-10.74
-6.07
-1.60
2.79
7.09
11.05
14.29
16.41
17.19
16.65
15.04
12.72
10.12
7.66
5.69
4.51
4.23
4.80
5.97
7.27
8.20
8.30
7.34
5.37
2.68
-0.37
-3.42
-6.28
-8.80
-10.85
-12.21
-12.60
-11.75
-9.55
-6.16
-1.96
2.47
6.55
9.84
12.14
13.48
14.08
14.16
13.89
13.33
12.54
11.60
10.63
9.74
8.96
8.25
7.50
6.67
5.78
4.90
4.01
3.00
1.64
-0.26
-2.73
-5.62
-8.56
-11.13
-12.92
-13.63
-13.07
-11.18
-8.11
-4.13
0.33
4.85
9.04
12.55
15.12
16.62
17.07
16.68
15.88
15.13
14.80
15.01
15.59
16.21
16.53
16.42
15.92
15.22
14.49
13.85
13.23
12.50
11.50
10.13
8.33
6.11
3.54
0.83
-1.71
-3.64
-4.52
-4.03
-2.13
0.93
4.62
8.35
11.61
14.13
15.81
16.72
17.00
16.80
16.30
15.69
15.08
14.57
14.13
13.69
13.22
12.80
12.53
12.53
12.76
13.10
13.28
13.05
12.29
11.00
9.34
7.52
5.76
4.17
2.80
1.60
0.45
-0.79
-2.24
-3.98
-5.97
-8.03
-9.90
-11.20
-11.58
-10.77
-8.68
-5.43
-1.36
3.04
7.21
10.75
13.43
15.28
16.48
17.24
17.68
17.84
17.70
17.32
16.85
16.50
16.44
16.65
16.97
17.17
17.04
16.56
15.79
14.85
13.78
12.50
10.97
9.26
7.57
6.20
5.34
4.91
4.60
4.02
2.90
1.28
-0.57
-2.30
-3.71
-4.86
-5.98
-7.28
-8.84
-10.51
-12.03
-13.05
-13.32
-12.67
-11.06
-8.53
-5.25
-1.46
2.57
6.55
10.21
13.34
15.73
17.27
17.96
17.93
17.43
16.74
16.15
15.84
15.82
16.02
16.26
16.36
16.19
15.75
15.11
14.37
13.63
12.87
12.03
11.05
9.95
8.81
7.75
6.87
6.15
5.46
4.69
3.78
2.73
1.62
0.48
-0.61
-1.66
-2.68
-3.73
-4.89
-6.26
-7.92
-9.80
-11.73
-13.43
-14.52
-14.69
-13.73
-11.63
-8.57
-4.88
-0.97
2.75
5.96
8.42
10.08
10.98
11.32
11.29
11.09
10.84
10.61
10.43
10.38
10.54
10.95
11.54
12.07
12.28
11.98
11.21
10.26
9.46
8.98
8.75
8.47
7.83
6.69
5.18
3.53
1.93
0.39
-1.17
-2.79
-4.28
-5.33
-5.63
-5.19
-4.38
-3.84
-4.15
-5.54
-7.75
-10.20
-12.24
-13.38
-13.44
-12.46
-10.63
-8.13
-5.22
-2.18
0.70
3.11
4.86
5.96
6.49
6.58
6.38
5.95
5.42
4.91
4.61
4.64
5.00
5.60
6.19
6.58
6.63
6.33
5.76
5.03
4.32
3.72
3.33
3.14
3.04
2.87
2.49
1.81
0.91
-0.04
-0.82
-1.35
-1.72
-2.08
-2.61
-3.35
-4.22
-5.15
-6.12
-7.25
-8.66
-10.30
-11.85
-12.87
-12.92
-11.84
-9.78
-7.14
-4.35
-1.77
0.41
2.10
3.29
3.96
4.16
3.99
3.59
3.13
2.66
2.24
1.88
1.63
1.58
1.77
2.14
2.54
2.77
2.66
2.18
1.45
0.66
0.03
-0.33
-0.50
-0.71
-1.22
-2.14
-3.41
-4.79
-6.04
-6.99
-7.65
-8.19
-8.80
-9.64
-10.72
-11.90
-12.96
-13.62
-13.68
-13.01
-11.60
-9.54
-7.02
-4.25
-1.52
0.88
2.68
3.74
4.03
3.77
3.30
2.88
2.68
2.60
2.45
2.04
1.36
0.58
-0.03
-0.26
-0.08
0.35
0.78
0.98
0.83
0.35
-0.34
-1.11
-1.87
-2.56
-3.14
-3.64
-4.04
-4.38
-4.69
-4.97
-5.23
-5.46
-5.67
-5.89
-6.13
-6.37
-6.52
-6.47
-6.08
-5.33
-4.24
-2.89
-1.35
0.39
2.33
4.46
6.59
8.42
9.61
9.91
9.28
7.87
6.01
4.02
2.21
0.81
-0.00
-0.19
0.20
0.93
1.71
2.23
2.32
1.98
1.32
0.54
-0.25
-0.98
-1.70
-2.45
-3.27
-4.13
-4.94
-5.64
-6.16
-6.54
-6.86
-7.34
-8.18
-9.50
-11.14
-12.66
-13.49
-13.08
-11.26
-8.29
-4.74
-1.26
1.68
3.90
5.48
6.60
7.32
7.55
7.19
6.23
4.87
3.45
2.31
1.62
1.32
1.13
0.80
0.19
-0.66
-1.62
-2.57
-3.49
-4.46
-5.63
-7.11
-8.98
-11.21
-13.72
-16.37
-19.00
-21.52
-23.90
-26.20
-28.49
-30.79
-33.02
-35.06
-36.73
-37.92
-38.60
-38.84
-38.77
-38.56
-38.34
-38.15
-37.92
-37.39
-36.17
-33.79
-29.85
-24.20
-16.94
-8.36
1.14
11.09
21.01
30.41
38.77
45.67
50.75
53.85
55.08
54.68
53.03
50.51
47.41
43.89
40.01
35.84
31.51
27.28
23.47
20.41
18.27
17.05
16.54
16.43
16.36
16.09
15.53
14.67
13.62
12.48
11.33
10.19
9.04
7.87
6.72
5.68
4.83
4.19
3.64
3.01
2.12
0.88
-0.60
-2.12
-3.39
-4.24
-4.60
-4.63
-4.60
-4.85
-5.64
-7.06
-8.96
-10.98
-12.68
-13.67
-13.84
-13.30
-12.34
-11.17
-9.88
-8.42
-6.68
-4.71
-2.70
-1.00
0.11
0.50
0.26
-0.34
-1.09
-1.81
-2.52
-3.22
-3.95
-4.68
-5.36
-5.98
-6.58
-7.29
-8.25
-9.52
-11.08
-12.77
-14.46
-16.09
-17.74
-19.57
-21.72
-24.20
-26.85
-29.39
-31.53
-33.08
-33.96
-34.28
-34.14
-33.70
-33.03
-32.23
-31.50
-31.13
-31.51
-32.97
-35.63
-39.18
-42.87
-45.56
-45.93
-42.89
-35.83
-24.91
-10.92
4.88
21.19
37.05
51.96
65.90
78.94
90.91
101.05
107.99
110.04
105.76
94.64
77.34
55.75
32.40
9.73
-10.41
-26.88
-38.97
-46.32
-48.87
-47.15
-42.42
-36.29
-30.10
-24.25
-18.08
-10.37
-0.35
11.62
23.98
34.81
42.88
48.19
51.84
55.09
58.51
61.57
62.96
61.43
56.50
48.84
39.88
31.15
23.45
16.59
9.64
1.65
-7.68
-17.64
-26.82
-33.81
-37.84
-39.16
-38.86
-38.36
-38.77
-40.46
-42.91
-44.85
-44.56
-40.38
-31.29
-17.46
-0.48
17.05
32.33
43.39
49.71
52.30
52.92
53.22
53.89
54.58
54.28
51.99
47.26
40.37
32.19
23.83
16.29
10.29
6.20
3.95
3.03
2.53
1.29
-1.83
-7.59
-15.86
-25.46
-34.39
-40.45
-42.23
-39.73
-34.49
-28.87
-24.97
-23.71
-24.55
-26.19
-27.57
-28.54
-29.70
-31.68
-34.26
-36.18
-35.92
-32.63
-26.90
-20.40
-14.91
-11.17
-8.45
-5.12
0.26
7.91
16.81
25.47
32.90
39.18
45.11
51.40
57.91
63.57
67.02
67.38
64.82
60.49
55.86
52.04
49.36
47.40
45.31
42.26
37.69
31.52
24.11
16.19
8.62
2.09
-3.09
-7.05
-10.25
-13.04
-15.47
-17.18
-17.69
-16.77
-14.81
-12.71
-11.57
-12.17
-14.68
-18.70
-23.51
-28.39
-32.78
-36.26
-38.41
-38.82
-37.25
-33.91
-29.51
-25.05
-21.46
-19.20
-18.20
-18.04
-18.25
-18.55
-18.86
-19.05
-18.87
-17.92
-15.88
-12.75
-8.81
-4.50
-0.18
4.02
8.13
12.15
15.94
19.17
21.49
22.66
22.65
21.51
19.30
16.00
11.73
6.70
1.23
-4.47
-10.07
-15.28
-19.90
-23.81
-26.96
-29.12
-30.16
-30.15
-29.50
-28.58
-27.74
-27.25
-27.25
-27.79
-28.43
-28.65
-28.05
-26.86
-25.28
-23.77
-23.10
-24.17
-27.49
-31.96
-35.81
-37.45
-37.16
-35.29
-32.81
-30.86
-30.60
-32.56
-34.73
-34.95
-32.35
-29.70
-28.63
-30.04
-33.92
-40.31
-48.92
-56.50
-59.92
-57.71
-52.90
-45.56
-34.13
-16.06
9.70
42.75
84.59
134.94
190.58
242.56
286.80
322.76
352.57
377.58
377.19
338.51
264.59
196.30
145.48
113.98
93.00
78.96
68.34
58.05
49.46
44.77
44.72
44.16
41.18
35.39
27.93
19.26
9.87
2.80
0.30
1.92
1.80
-3.17
-13.88
-28.73
-45.91
-63.66
-79.10
-90.49
-97.89
-104.42
-110.97
-116.95
-120.76
-121.65
-119.82
-115.40
-108.85
-100.94
-93.40
-86.61
-80.26
-73.69
-66.69
-59.29
-51.54
-43.76
-36.59
-31.26
-28.33
-27.68
-28.42
-29.36
-29.34
-27.68
-24.38
-20.08
-15.65
-11.82
-8.99
-7.19
-6.27
-6.09
-6.44
-7.03
-7.31
-6.63
-4.45
-0.70
4.04
8.75
12.30
14.02
13.95
12.79
11.50
10.83
11.02
11.82
12.77
13.47
13.86
14.18
14.88
16.44
19.10
22.75
26.80
30.33
32.30
31.90
28.72
22.80
14.55
4.61
-6.15
-16.69
-25.86
-32.64
-36.53
-37.78
-37.32
-36.31
-35.48
-34.78
-33.54
-31.07
-27.27
-22.92
-19.21
-16.99
-16.17
-15.61
-13.77
-9.50
-2.68
5.91
15.23
24.71
34.53
45.22
57.05
69.48
81.32
91.37
99.14
105.03
110.04
114.96
119.90
124.26
127.14
127.98
126.81
124.18
120.71
116.77
112.30
106.94
100.17
91.37
79.94
65.27
46.98
25.16
0.43
-26.13
-53.36
-80.20
-105.89
-129.78
-151.00
-168.36
-180.45
-186.12
-185.25
-179.02
-169.78
-160.28
-152.63
-147.67
-144.88
-142.89
-140.27
-136.17
-130.54
-123.98
-117.40
-111.56
-106.97
-104.01
-102.86
-103.51
-105.38
-107.20
-107.10
-103.19
-94.34
-80.75
-64.17
-47.38
-33.28
-23.87
-19.44
-18.50
-18.32
-16.01
-9.60
1.25
15.13
29.48
41.64
49.83
53.62
53.74
51.37
47.38
42.22
36.18
29.88
24.40
20.93
20.16
21.72
24.31
26.27
26.40
24.55
21.55
18.73
17.13
17.03
17.85
18.50
17.81
14.95
9.54
1.69
-8.15
-19.21
-30.50
-40.88
-49.21
-54.48
-55.98
-53.50
-47.37
-38.36
-27.59
-16.35
-5.88
2.72
8.61
11.41
11.13
8.16
3.18
-3.06
-9.74
-16.26
-22.20
-27.43
-31.98
-35.95
-39.39
-42.22
-44.32
-45.57
-45.94
-45.47
-44.27
-42.56
-40.67
-39.11
-38.46
-39.23
-41.59
-45.35
-50.00
-54.86
-59.34
-62.93
-65.21
-65.77
-64.41
-61.08
-56.11
-50.00
-43.10
-35.40
-26.34
-15.10
-1.10
15.58
34.16
53.35
71.74
88.11
101.37
110.73
115.61
115.94
112.28
105.81
98.15
90.87
85.19
81.71
80.45
80.88
82.16
83.39
83.81
83.24
82.09
81.32
81.90
84.27
88.06
92.22
95.44
96.48
94.35
88.16
77.06
60.58
39.14
14.46
-10.73
-33.64
-52.48
-66.91
-77.57
-84.95
-88.43
-86.42
-77.37
-61.30
-40.65
-19.82
-3.49
5.21
5.71
-0.21
-9.76
-20.54
-31.22
-41.28
-50.28
-57.31
-61.15
-60.79
-56.14
-48.26
-39.13
-30.81
-24.78
-21.38
-19.92
-19.08
-17.50
-14.38
-9.61
-3.73
2.47
8.25
13.24
17.31
20.45
22.59
23.59
23.33
21.96
19.90
17.60
15.38
13.19
10.79
7.92
4.61
1.18
-1.81
-3.90
-4.97
-5.25
-5.25
-5.42
-5.93
-6.60
-7.03
-6.85
-5.85
-4.07
-1.69
0.92
3.33
5.04
5.56
4.57
2.05
-1.65
-5.86
-9.84
-12.94
-14.69
-14.90
-13.57
-10.93
-7.46
-3.75
-0.44
2.07
3.76
4.99
6.33
8.24
10.79
13.61
16.02
17.35
17.20
15.65
13.22
10.67
8.75
7.93
8.28
9.56
11.33
13.14
14.68
15.80
16.44
16.62
16.35
15.69
14.73
13.61
12.48
11.43
10.45
9.48
8.46
7.40
6.39
5.54
4.89
4.39
3.87
3.15
2.12
0.72
-1.04
-3.14
-5.49
-7.89
-10.05
-11.65
-12.41
-12.32
-11.54
-10.40
-9.09
-7.65
-5.92
-3.73
-1.15
1.49
3.67
4.92
5.04
4.19
2.85
1.61
1.00
1.28
2.36
3.84
5.15
5.80
5.51
4.32
2.58
0.77
-0.69
-1.64
-2.30
-3.17
-4.91
-8.00
-12.56
-18.13
-23.74
-28.34
-31.20
-32.41
-32.83
-33.56
-35.32
-37.82
-39.88
-39.90
-36.69
-29.88
-19.85
-7.48
6.12
19.60
31.14
38.59
40.29
36.11
27.97
19.47
14.22
14.01
17.83
22.26
23.24
18.02
6.34
-9.66
-26.64
-41.33
-51.27
-54.80
-51.01
-39.79
-22.35
-1.56
18.37
33.11
39.82
38.44
31.76
24.24
20.19
22.09
30.02
42.35
56.93
72.21
87.57
103.07
118.89
134.96
150.90
166.12
179.64
189.95
194.89
191.91
178.66
153.91
117.96
72.76
21.47
-31.92
-82.92
-126.85
-159.48
-178.00
-181.84
-173.00
-155.30
-133.06
-109.74
-87.26
-66.25
-46.75
-28.92
-13.41
-1.19
6.86
10.46
10.22
7.64
4.80
3.81
6.08
11.72
19.20
25.73
27.93
22.89
8.98
-13.77
-43.56
-77.45
-111.71
-142.70
-167.36
-183.86
-192.08
-193.70
-191.82
-190.06
-191.29
-196.37
-203.79
-210.26
-212.23
-207.54
-196.22
-180.23
-161.98
-143.15
-124.07
-104.14
-82.62
-59.31
-34.73
-9.76
14.72
38.12
59.97
79.86
97.42
112.69
126.45
140.20
155.77
174.51
196.74
221.68
247.92
274.15
299.59
323.88
346.48
366.09
380.32
386.28
381.54
365.45
339.42
306.21
268.70
228.25
184.04
133.33
73.19
3.03
-73.61
-148.58
-211.02
-250.76
-261.81
-244.09
-202.70
-145.42
-79.96
-12.49
52.26
110.06
156.72
188.73
204.71
206.23
197.43
183.20
167.07
150.02
130.90
107.82
79.31
45.06
5.69
-37.50
-82.53
-126.44
-165.45
-195.87
-215.57
-225.06
-227.43
-226.76
-225.82
-224.45
-219.70
-207.75
-186.39
-156.77
-123.25
-91.60
-66.57
-50.17
-41.34
-36.96
-33.60
-28.97
-22.79
-16.58
-12.70
-13.17
-18.55
-27.64
-38.04
-47.18
-53.47
-56.64
-57.25
-56.04
-53.66
-51.10
-50.28
-53.87
-63.97
-80.37
-99.55
-115.28
-120.87
-111.88
-87.59
-50.24
-3.11
51.16
110.57
172.15
230.23
276.49
302.30
302.03
275.57
228.20
168.42
104.79
43.89
-10.13
-54.77
-88.18
-109.12
-117.67
-115.81
-107.32
-96.83
-88.14
-83.43
-83.15
-86.34
-91.13
-95.27
-96.49
-92.83
-83.02
-66.79
-45.00
-19.57
6.68
30.43
48.39
57.88
57.34
46.62
26.97
0.83
-28.67
-58.07
-84.21
-104.80
-118.97
-127.49
-132.50
-136.67
-141.95
-148.51
-154.69
-157.92
-155.97
-148.01
-134.85
-118.22
-99.89
-80.88
-61.38
-41.00
-19.26
4.00
28.42
53.00
76.25
96.42
112.04
122.42
127.89
129.69
129.47
128.59
127.57
126.12
123.53
119.22
113.10
105.65
97.68
90.05
83.55
78.85
76.50
76.80
79.67
84.47
89.99
94.79
97.49
97.30
94.10
88.38
80.88
72.26
62.86
52.80
42.17
31.15
19.98
8.91
-1.97
-12.65
-23.15
-33.34
-42.88
-51.32
-58.19
-63.21
-66.35
-67.77
-67.75
-66.58
-64.54
-61.84
-58.66
-55.07
-51.07
-46.60
-41.67
-36.45
-31.31
-26.71
-23.00
-20.22
-18.08
-16.03
-13.56
-10.39
-6.56
-2.26
2.27
6.94
11.68
16.45
21.19
25.79
30.32
34.93
39.84
45.10
50.45
55.30
58.91
60.76
60.75
59.25
56.90
54.42
52.31
50.82
49.94
49.29
48.21
45.76
41.03
33.51
23.36
11.60
-0.17
-10.22
-17.22
-20.60
-20.65
-18.23
-14.45
-10.29
-6.38
-2.97
0.05
2.99
6.28
10.19
14.83
20.13
25.84
31.65
37.17
42.05
45.97
48.74
50.41
51.32
52.12
53.40
55.54
58.28
60.75
61.56
59.37
53.41
43.85
31.82
19.02
7.12
-2.70
-10.09
-15.32
-18.97
-21.56
-23.28
-24.10
-23.90
-22.72
-20.86
-18.87
-17.24
-16.17
-15.28
-13.71
-10.27
-3.96
5.68
18.57
34.23
52.23
72.42
94.78
118.90
143.48
166.12
183.86
194.18
196.02
190.13
178.65
163.96
147.55
129.56
109.06
84.65
55.22
20.27
-19.94
-64.27
-110.39
-154.60
-192.12
-217.98
-228.54
-222.97
-204.09
-177.72
-150.89
-129.24
-115.14
-107.23
-101.93
-95.92
-88.28
-81.13
-78.13
-82.31
-94.23
-111.74
-131.13
-148.69
-161.38
-166.48
-161.33
-143.97
-114.55
-76.54
-36.48
-2.11
20.30
27.95
21.99
6.41
-13.34
-31.46
-42.64
-43.31
-32.90
-14.96
3.16
12.51
5.82
-20.01
-63.35
-118.93
-179.77
-238.61
-288.30
-322.44
-336.21
-327.52
-297.86
-251.65
-194.58
-131.39
-64.64
4.88
76.55
148.43
216.91
277.51
326.34
361.32
382.46
391.53
391.14
384.02
372.56
358.35
342.44
325.68
309.07
293.66
280.19
268.33
256.41
241.85
222.23
196.45
165.32
131.41
98.23
69.65
49.11
38.93
39.50
48.26
59.42
64.86
56.50
29.32
-16.32
-74.55
-136.01
-191.21
-233.45
-260.01
-271.58
-270.69
-260.18
-242.55
-220.05
-195.18
-170.74
-149.48
-133.20
-122.03
-114.25
-106.90
-97.12
-83.28
-65.46
-44.85
-22.67
0.81
26.32
54.68
85.48
116.30
143.06
161.37
168.31
163.52
149.19
128.97
106.35
83.45
60.48
36.32
9.61
-20.04
-51.19
-80.71
-104.74
-120.31
-126.61
-125.37
-119.98
-113.83
-108.85
-104.90
-100.55
-94.31
-85.99
-76.86
-69.10
-64.50
-63.71
-66.00
-69.85
-73.68
-76.42
-77.47
-76.43
-72.87
-66.36
-56.88
-45.22
-33.08
-22.70
-16.06
-14.19
-16.71
-21.99
-27.82
-32.11
-33.59
-31.90
-27.32
-20.43
-11.61
-1.19
10.51
22.99
35.64
48.00
59.90
71.53
83.04
94.20
104.03
111.02
113.56
110.54
101.83
88.32
71.60
53.47
35.47
18.67
3.67
-9.29
-20.12
-28.87
-35.81
-41.39
-46.20
-50.63
-54.53
-57.24
-57.77
-55.45
-50.41
-43.67
-36.80
-31.20
-27.38
-24.81
-22.09
-17.59
-10.19
0.44
13.64
28.08
42.09
54.03
62.66
67.27
67.81
64.66
58.51
50.15
40.31
29.68
18.93
8.79
-0.06
-7.13
-12.23
-15.62
-17.83
-19.51
-21.02
-22.49
-23.74
-24.58
-25.01
-25.25
-25.67
-26.40
-27.29
-27.80
-27.31
-25.42
-22.20
-18.18
-14.13
-10.84
-8.81
-8.28
-9.16
-11.14
-13.78
-16.57
-19.07
-20.96
-22.21
-22.92
-23.30
-23.53
-23.64
-23.62
-23.40
-23.02
-22.57
-22.16
-21.84
-21.58
-21.29
-20.89
-20.36
-19.75
-19.15
-18.66
-18.27
-17.92
-17.38
-16.34
-14.36
-11.10
-6.38
-0.29
6.79
14.36
21.93
29.18
35.95
42.15
47.62
52.06
55.17
56.81
57.12
56.35
54.76
52.24
48.36
42.48
34.12
23.38
10.98
-1.88
-14.01
-24.57
-33.28
-40.29
-45.85
-50.20
-53.41
-55.66
-57.20
-58.47
-59.78
-61.08
-61.86
-61.29
-58.57
-53.34
-45.92
-37.19
-28.28
-20.23
-13.70
-9.00
-6.16
-5.18
-5.97
-8.33
-11.79
-15.58
-18.75
-20.46
-20.31
-18.39
-15.22
-11.38
-7.20
-2.57
2.85
9.42
17.11
25.42
33.51
40.50
45.82
49.31
51.17
51.73
51.14
49.35
46.07
40.99
34.07
25.61
16.32
7.08
-1.29
-8.36
-14.08
-18.78
-22.93
-26.88
-30.71
-34.29
-37.38
-39.84
-41.80
-43.65
-45.77
-48.43
-51.47
-54.41
-56.51
-57.24
-56.51
-54.87
-53.36
-53.10
-54.90
-58.74
-63.76
-68.48
-71.33
-71.30
-68.41
-63.90
-59.83
-58.47
-61.44
-69.07
-80.16
-92.32
-102.85
-109.91
-113.34
-114.81
-117.36
-124.22
-137.61
-157.83
-182.80
-208.47
-229.85
-242.36
-243.12
-231.57
-209.42
-179.63
-145.27
-108.45
-69.90
-29.15
14.86
62.81
114.15
166.67
216.58
259.23
290.59
308.77
314.93
313.02
308.31
305.36
306.27
310.41
315.36
318.78
319.66
318.51
316.28
313.07
307.50
297.35
280.89
258.11
230.90
202.02
173.49
145.64
117.24
86.97
54.96
23.51
-3.52
-22.36
-30.99
-29.86
-21.45
-9.11
4.09
16.04
25.73
32.89
37.67
40.40
41.41
41.08
39.92
38.81
39.13
42.56
50.57
63.71
81.03
100.15
117.90
131.22
138.11
138.06
131.75
120.32
104.58
84.58
59.79
29.59
-6.05
-46.22
-89.17
-133.29
-177.80
-222.68
-267.55
-310.36
-347.15
-373.43
-386.84
-388.94
-385.26
-382.36
-384.01
-388.63
-389.98
-380.59
-355.91
-316.33
-265.80
-209.25
-150.14
-90.08
-30.65
24.34
68.42
94.72
99.82
87.29
66.50
49.28
45.37
58.89
87.44
123.81
159.59
188.55
209.34
223.15
231.75
236.30
237.39
235.49
231.33
225.99
220.46
216.46
213.59
209.64
202.04
189.56
172.82
153.27
132.06
100.03
54.94
2.14
-47.88
-85.76
-106.63
-109.71
-97.69
-75.85
-50.81
-26.52
-7.21
3.18
2.51
-8.31
-25.43
-44.26
-61.18
-73.92
-80.41
-81.22
-78.73
-75.56
-73.12
-71.28
-69.69
-68.21
-66.32
-62.79
-57.03
-49.55
-41.77
-35.73
-33.35
-36.78
-47.38
-60.84
-69.03
-64.18
-43.99
-12.69
20.22
50.38
75.07
92.09
101.39
103.05
98.07
87.74
73.20
55.60
36.06
14.21
-12.95
-47.71
-90.13
-137.21
-183.73
-224.57
-256.27
-277.68
-279.12
-257.45
-218.10
-172.35
-130.11
-95.35
-68.00
-45.79
-25.60
-4.88
15.98
36.00
55.36
74.28
93.42
112.62
131.27
148.95
165.33
179.13
190.37
201.32
209.78
216.81
223.60
230.69
237.45
241.52
238.28
223.28
194.37
152.99
104.85
57.16
16.27
-14.21
-34.38
-47.69
-58.65
-70.89
-86.18
-103.81
-122.34
-140.31
-156.39
-169.40
-178.31
-182.21
-180.73
-174.60
-165.41
-155.87
-148.70
-145.55
-146.08
-147.80
-146.76
-138.79
-121.04
-92.77
-55.97
-14.62
26.65
64.07
95.88
122.41
145.34
166.38
186.28
204.17
218.06
225.59
225.05
215.90
198.69
174.86
146.24
114.79
82.43
50.90
21.69
-4.04
-25.53
-42.31
-54.19
-61.24
-63.83
-62.75
-59.12
-54.25
-49.26
-44.78
-40.89
-37.19
-33.32
-29.23
-25.44
-22.86
-22.43
-24.65
-29.32
-35.46
-41.62
-46.35
-48.66
-48.35
-46.08
-43.09
-40.82
-40.31
-41.84
-44.86
-48.20
-50.51
-50.80
-48.81
-45.04
-40.62
-36.83
-34.80
-35.05
-37.55
-41.75
-46.85
-52.05
-56.72
-60.36
-62.58
-63.05
-61.58
-58.27
-53.54
-48.06
-42.56
-37.60
-33.36
-29.63
-26.02
-22.19
-18.02
-13.73
-9.73
-6.42
-3.93
-1.99
-0.14
2.09
4.84
7.81
10.34
11.76
11.70
10.30
8.17
6.11
4.89
4.95
6.38
8.94
12.24
15.84
19.34
22.47
25.10
27.30
29.19
30.95
32.73
34.59
36.50
38.38
40.07
41.41
42.38
42.99
43.31
43.34
42.93
41.73
39.36
35.61
30.51
24.38
17.60
10.46
3.03
-4.80
-13.05
-21.50
-29.62
-36.83
-42.70
-47.21
-50.79
-54.04
-57.40
-60.87
-63.99
-65.98
-66.15
-64.20
-60.41
-55.57
-50.64
-46.38
-42.96
-39.92
-36.39
-31.46
-24.70
-16.32
-7.06
2.16
10.60
18.01
24.50
30.29
35.43
39.73
42.97
45.07
46.22
46.80
47.16
47.48
47.79
48.14
48.66
49.51
50.66
51.72
51.94
50.54
47.04
41.58
34.83
27.59
20.40
13.27
5.79
-2.47
-11.64
-21.28
-30.50
-38.15
-43.19
-44.93
-43.33
-39.05
-33.24
-27.25
-22.13
-18.26
-15.24
-12.18
-8.23
-3.06
2.94
8.93
14.05
17.76
20.01
20.99
20.98
20.23
19.04
17.81
17.07
17.27
18.52
20.52
22.67
24.40
25.43
25.88
26.08
26.38
26.86
27.33
27.44
26.88
25.52
23.46
21.07
18.79
17.03
15.99
15.53
15.24
14.55
13.01
10.45
7.10
3.46
0.12
-2.31
-3.36
-2.62
0.13
4.89
11.30
18.75
26.42
33.58
39.69
44.51
48.02
50.26
51.37
51.56
51.12
50.42
49.71
48.97
47.74
45.28
40.81
33.97
24.87
14.23
2.97
-8.10
-18.57
-28.48
-38.04
-47.37
-56.26
-64.12
-70.28
-74.16
-75.59
-74.79
-72.28
-68.76
-64.80
-60.76
-56.73
-52.65
-48.49
-44.46
-41.07
-38.94
-38.55
-39.90
-42.40
-45.01
-46.67
-46.69
-44.94
-41.83
-37.93
-33.71
-29.26
-24.42
-18.93
-12.70
-5.80
1.58
9.31
17.46
26.28
36.09
47.10
59.20
71.95
84.62
96.39
106.56
114.72
120.70
124.52
126.14
125.29
121.47
114.09
102.92
88.23
70.94
52.40
33.98
16.70
1.09
-12.77
-25.04
-35.88
-45.36
-53.51
-60.36
-65.98
-70.40
-73.60
-75.37
-75.47
-73.67
-69.99
-64.76
-58.55
-52.10
-46.04
-40.81
-36.53
-33.17
-30.57
-28.61
-27.25
-26.44
-26.04
-25.87
-25.68
-25.29
-24.65
-23.79
-22.76
-21.57
-20.08
-18.16
-15.68
-12.57
-8.85
-4.59
0.21
5.52
11.22
17.05
22.52
27.03
30.01
31.11
30.34
27.99
24.64
20.93
17.49
14.83
13.30
13.07
14.09
16.12
18.76
21.56
24.13
26.21
27.68
28.55
28.85
28.60
27.82
26.57
24.97
23.24
21.62
20.28
19.26
18.54
17.99
17.50
17.04
16.61
16.23
15.80
15.12
13.97
12.20
9.87
7.24
4.71
2.56
0.87
-0.54
-2.03
-3.94
-6.41
-9.37
-12.59
-15.80
-18.73
-21.09
-22.60
-22.93
-21.77
-19.03
-14.86
-9.71
-4.20
1.06
5.66
9.39
12.31
14.53
16.16
17.26
17.82
17.84
17.42
16.79
16.23
16.02
16.29
16.91
17.59
17.95
17.78
17.11
16.19
15.32
14.64
14.11
13.44
12.38
10.83
8.93
6.90
4.93
3.03
1.04
-1.14
-3.52
-5.93
-8.17
-10.10
-11.74
-13.28
-14.99
-17.03
-19.39
-21.85
-23.95
-25.17
-25.04
-23.24
-19.85
-15.21
-9.87
-4.39
0.78
5.37
9.27
12.45
14.88
16.55
17.54
17.98
18.09
18.06
18.08
18.24
18.52
18.88
19.20
19.38
19.33
19.08
18.68
18.19
17.59
16.79
15.66
14.18
12.49
10.84
9.52
8.70
8.27
7.92
7.22
5.86
3.73
1.02
-1.84
-4.41
-6.32
-7.51
-8.15
-8.64
-9.44
-10.89
-13.11
-15.94
-18.99
-21.74
-23.66
-24.32
-23.51
-21.22
-17.72
-13.46
-8.91
-4.56
-0.78
2.22
4.40
5.85
6.73
7.21
7.39
7.34
7.09
6.74
6.42
6.30
6.50
7.02
7.72
8.39
8.88
9.14
9.21
9.17
9.02
8.65
7.93
6.80
5.33
3.72
2.16
0.73
-0.59
-1.98
-3.57
-5.38
-7.30
-9.15
-10.78
-12.15
-13.38
-14.66
-16.21
-18.10
-20.25
-22.40
-24.15
-25.08
-24.87
-23.41
-20.83
-17.44
-13.56
-9.54
-5.62
-2.03
1.00
3.30
4.74
5.37
5.34
4.96
4.51
4.23
4.26
4.62
5.32
6.30
7.41
8.47
9.28
9.67
9.60
9.18
8.53
7.71
6.71
5.46
3.93
2.22
0.53
-0.91
-2.00
-2.84
-3.71
-4.90
-6.67
-9.03
-11.77
-14.49
-16.67
-17.84
-17.72
-16.31
-13.80
-10.56
-6.96
-3.32
0.12
3.19
5.77
7.77
9.17
10.07
10.59
10.86
10.95
10.91
10.70
10.37
10.00
9.65
9.40
9.20
9.01
8.75
8.42
7.99
7.46
6.82
6.03
5.06
3.94
2.74
1.53
0.39
-0.66
-1.68
-2.76
-4.03
-5.58
-7.45
-9.56
-11.71
-13.66
-15.13
-15.92
-15.94
-15.19
-13.71
-11.64
-9.18
-6.59
-4.23
-2.36
-1.09
-0.34
0.11
0.46
0.72
0.70
0.10
-1.23
-3.12
-5.13
-6.74
-7.56
-7.52
-6.85
-5.89
-4.96
-4.23
-3.73
-3.40
-3.19
-3.05
-2.95
-2.87
-2.83
-2.81
-2.88
-3.07
-3.45
-4.13
-5.14
-6.45
-7.94
-9.42
-10.65
-11.49
-11.96
-12.25
-12.64
-13.36
-14.48
-15.84
-17.07
-17.73
-17.40
-15.78
-12.85
-8.84
-4.24
0.35
4.40
7.59
9.87
11.36
12.27
12.76
12.90
12.73
12.31
11.77
11.27
10.88
10.53
10.09
9.40
8.43
7.35
6.42
5.87
5.72
5.78
5.74
5.32
4.46
3.30
2.18
1.37
0.95
0.73
0.31
-0.65
-2.28
-4.38
-6.49
-8.15
-9.07
-9.33
-9.30
-9.51
-10.35
-11.93
-13.99
-16.07
-17.66
-18.36
-17.98
-16.47
-13.97
-10.70
-6.96
-3.10
0.48
3.50
5.75
7.24
8.13
8.64
9.01
9.35
9.63
9.78
9.71
9.46
9.15
8.96
9.02
9.30
9.63
9.75
9.43
8.62
7.45
6.13
4.90
3.83
2.86
1.85
0.71
-0.53
-1.81
-2.98
-3.99
-4.91
-5.87
-6.98
-8.20
-9.38
-10.31
-10.94
-11.40
-11.97
-12.91
-14.24
-15.63
-16.53
-16.40
-14.98
-12.40
-9.15
-5.80
-2.83
-0.45
1.37
2.77
3.90
4.81
5.43
5.67
5.49
4.95
4.22
3.54
3.14
3.20
3.69
4.45
5.27
6.02
6.70
7.36
8.02
8.54
8.75
8.38
7.19
5.13
2.44
-0.48
-3.25
-5.67
-7.88
-10.12
-12.90
-16.77
-21.96
-28.22
-34.81
-40.83
-45.46
-48.48
-49.98
-51.04
-53.38
-58.52
-67.19
-79.03
-92.67
-105.84
-115.59
-117.80
-109.55
-90.01
-60.56
-24.51
13.61
49.19
78.97
102.02
121.28
139.75
159.28
180.28
202.12
223.49
242.72
258.27
268.99
276.04
278.84
275.20
262.66
240.10
208.45
170.43
129.74
79.49
22.34
-34.03
-83.06
-123.35
-156.37
-182.58
-200.53
-208.30
-208.83
-201.32
-187.42
-170.75
-154.83
-141.48
-130.89
-122.69
-116.78
-111.19
-103.75
-93.88
-81.73
-67.26
-50.15
-30.72
-10.84
6.37
17.87
23.09
22.95
19.47
14.99
11.14
8.16
5.06
0.45
-6.60
-16.00
-27.51
-40.56
-53.63
-63.86
-67.67
-62.32
-47.51
-26.21
-3.88
13.25
20.49
16.24
2.26
-17.19
-36.52
-50.08
-53.10
-42.83
-19.51
13.04
48.02
77.32
93.97
94.39
79.28
53.08
22.22
-7.05
-30.33
-45.82
-54.27
-58.15
-60.48
-63.53
-67.81
-71.83
-73.09
-69.59
-61.08
-49.22
-36.38
-24.11
-12.10
1.52
18.79
40.28
64.34
87.81
107.77
122.93
133.78
141.55
146.85
149.05
146.97
140.12
129.78
118.84
110.75
107.99
111.08
118.42
127.19
134.58
138.66
138.48
133.40
122.57
104.90
80.02
49.14
15.33
-17.49
-46.07
-68.92
-86.38
-99.38
-108.28
-112.51
-111.39
-105.35
-96.29
-86.99
-79.27
-72.98
-66.23
-56.78
-43.86
-28.95
-15.31
-6.48
-4.86
-10.87
-23.05
-38.65
-54.32
-66.93
-74.14
-75.05
-70.27
-61.55
-50.96
-40.14
-29.74
-19.56
-9.16
1.68
12.57
22.86
32.03
40.00
47.05
53.57
59.66
64.75
68.03
68.76
66.71
62.21
55.97
48.83
41.54
34.82
29.07
24.32
19.95
14.93
8.17
-0.89
-11.83
-23.51
-34.54
-43.99
-51.68
-57.95
-63.18
-67.25
-69.54
-69.24
-65.96
-60.08
-52.58
-44.71
-37.47
-31.35
-26.30
-22.02
-18.20
-14.70
-11.58
-8.89
-6.65
-4.73
-3.05
-1.64
-0.63
-0.18
-0.32
-0.95
-1.77
-2.54
-3.02
-3.11
-2.75
-2.03
-1.23
-0.74
-0.99
-2.14
-3.97
-5.93
-7.48
-8.45
-9.21
-10.51
-13.03
-16.99
-22.03
-27.42
-32.39
-36.37
-39.09
-40.35
-39.96
-37.75
-33.77
-28.50
-23.07
-18.84
-16.84
-16.86
-17.12
-14.82
-7.40
5.88
23.18
40.43
52.90
57.33
53.26
43.36
32.19
24.35
22.86
28.46
40.05
55.72
73.81
93.07
112.37
129.98
143.42
150.11
148.68
140.12
127.69
115.33
105.63
98.60
92.24
84.52
75.23
66.21
59.90
57.07
55.63
51.32
40.03
20.17
-6.37
-35.32
-62.48
-86.08
-107.65
-130.88
-159.22
-193.45
-230.56
-264.71
-289.58
-301.27
-299.89
-289.25
-274.67
-260.27
-247.25
-233.83
-216.76
-192.94
-160.25
-117.59
-64.83
-3.28
63.20
127.51
180.17
211.91
217.53
198.75
164.54
128.16
102.03
93.01
100.02
115.73
130.77
138.51
137.67
131.71
125.77
123.04
123.01
122.08
116.18
103.52
85.54
65.75
47.28
30.93
14.85
-3.95
-27.29
-54.16
-80.84
-102.53
-115.72
-119.91
-117.66
-113.37
-111.21
-113.52
-120.36
-130.07
-140.64
-150.73
-160.19
-169.74
-180.33
-192.62
-206.74
-222.46
-239.09
-255.47
-269.48
-278.01
-277.43
-264.54
-237.59
-196.81
-144.37
-83.67
-18.83
45.84
105.92
157.14
195.99
220.41
230.49
228.38
217.61
201.82
183.95
165.95
149.08
134.37
122.63
114.25
108.70
104.47
99.54
92.33
82.38
70.55
58.60
48.20
40.20
34.42
30.08
26.52
23.56
21.46
20.42
20.33
20.93
22.16
24.36
27.94
32.77
37.76
41.16
41.56
38.85
34.50
30.90
30.05
32.51
37.31
42.74
47.51
51.34
54.82
58.53
62.46
65.90
67.89
67.96
66.41
64.23
62.71
62.84
64.94
68.56
72.65
75.79
76.70
74.57
69.33
61.62
52.52
43.20
34.50
26.84
20.25
14.55
9.60
5.36
1.88
-0.86
-3.10
-5.44
-8.67
-13.52
-20.43
-29.22
-39.23
-49.41
-58.76
-66.63
-72.81
-77.55
-81.27
-84.36
-86.95
-88.94
-90.01
-89.79
-88.11
-85.01
-80.71
-75.44
-69.56
-63.71
-58.94
-56.39
-56.73
-59.58
-63.36
-65.82
-64.98
-59.95
-51.31
-40.61
-29.61
-19.54
-10.97
-4.15
0.56
2.50
1.04
-3.92
-11.62
-20.68
-29.62
-37.47
-44.01
-49.69
-55.08
-60.34
-64.87
-67.37
-66.53
-61.66
-53.36
-43.48
-34.53
-28.82
-27.54
-30.44
-35.96
-41.94
-46.38
-48.12
-47.00
-43.60
-38.68
-32.74
-25.79
-17.61
-8.15
2.32
13.15
23.61
33.22
41.76
49.15
55.33
60.06
63.11
64.42
64.08
62.25
58.91
53.79
46.71
37.98
28.60
20.15
14.15
11.49
12.15
15.38
20.19
25.84
31.87
37.88
43.24
47.20
49.10
48.87
47.10
44.81
42.92
41.81
41.20
40.54
39.28
37.27
34.68
31.81
28.93
26.19
23.63
21.28
19.20
17.41
15.89
14.57
13.38
12.31
11.35
10.59
10.23
10.47
11.55
13.57
16.43
19.79
23.18
26.09
28.18
29.29
29.49
28.97
28.00
26.77
25.39
23.87
22.19
20.34
18.34
16.26
14.13
11.89
9.40
6.51
3.26
-0.09
-3.01
-4.99
-5.74
-5.37
-4.44
-3.71
-3.85
-5.18
-7.57
-10.58
-13.69
-16.55
-18.97
-20.93
-22.37
-23.26
-23.71
-23.98
-24.57
-25.88
-28.11
-31.00
-33.96
-36.32
-37.58
-37.55
-36.35
-34.35
-31.97
-29.66
-27.80
-26.61
-26.11
-26.06
-26.13
-25.99
-25.58
-25.01
-24.55
-24.42
-24.81
-25.76
-27.09
-28.43
-29.20
-28.78
-26.76
-23.05
-17.98
-12.03
-5.46
1.94
10.65
21.20
33.56
47.03
60.81
74.59
88.74
103.57
118.65
132.55
143.71
151.46
156.50
160.11
162.57
162.03
154.80
137.42
109.01
72.67
34.51
1.08
-23.50
-38.96
-48.06
-54.60
-61.29
-68.86
-76.44
-82.71
-86.73
-88.41
-88.65
-88.64
-89.42
-91.36
-93.90
-95.88
-96.00
-93.46
-88.28
-81.10
-72.47
-62.40
-50.50
-36.74
-22.38
-9.87
-1.70
1.26
0.76
0.66
4.88
15.11
29.68
44.30
54.39
57.30
53.32
44.94
35.15
25.92
17.84
10.66
4.29
-0.82
-3.90
-4.51
-3.00
-0.52
1.33
1.18
-1.59
-6.63
-12.77
-18.54
-22.70
-24.74
-25.00
-24.38
-23.91
-24.20
-25.26
-26.54
-27.29
-26.96
-25.51
-23.47
-21.62
-20.59
-20.57
-21.23
-21.95
-22.08
-21.20
-19.13
-15.81
-11.28
-5.74
0.32
6.20
11.13
14.65
16.88
18.39
19.84
21.52
23.07
23.66
22.42
18.88
13.22
6.12
-1.63
-9.45
-17.08
-24.55
-31.91
-38.94
-45.18
-49.90
-52.44
-52.45
-50.10
-46.20
-41.96
-38.71
-37.44
-38.47
-41.27
-44.68
-47.33
-48.07
-46.23
-41.61
-34.36
-25.13
-15.20
-6.55
-1.40
-1.38
-6.54
-14.94
-23.28
-28.38
-28.85
-25.71
-21.86
-20.49
-23.67
-31.70
-43.74
-58.77
-76.29
-96.23
-118.18
-140.96
-162.55
-180.90
-194.61
-203.37
-207.61
-207.78
-203.70
-194.32
-178.18
-154.04
-121.53
-81.53
-36.08
11.95
59.55
104.13
143.95
178.19
206.71
229.77
247.68
260.60
268.57
271.48
269.35
262.45
251.46
237.52
222.01
206.21
190.98
176.62
163.10
150.44
139.06
129.65
122.61
117.65
113.58
108.96
102.79
95.30
87.77
81.72
77.98
76.12
74.80
72.69
69.43
65.77
63.05
62.15
62.73
63.35
62.22
58.30
51.83
44.23
37.21
31.93
28.56
26.36
24.45
22.29
19.92
17.66
15.56
13.10
9.32
3.41
-4.72
-14.25
-23.77
-31.90
-37.86
-41.59
-43.50
-44.07
-43.54
-42.01
-39.62
-36.68
-33.61
-30.69
-27.90
-24.93
-21.58
-18.06
-15.10
-13.81
-15.19
-19.73
-27.21
-36.83
-47.47
-58.07
-67.84
-76.29
-83.18
-88.42
-91.90
-93.46
-92.98
-90.50
-86.31
-80.95
-75.07
-69.20
-63.55
-57.97
-52.04
-45.41
-38.04
-30.36
-23.13
-17.16
-12.94
-10.49
-9.42
-9.13
-9.12
-9.21
-9.54
-10.48
-12.34
-15.25
-19.01
-23.10
-26.79
-29.40
-30.49
-30.11
-29.00
-28.36
-29.51
-33.30
-39.72
-47.91
-56.50
-64.30
-70.82
-76.53
-82.58
-90.23
-100.12
-111.90
-124.30
-135.68
-144.83
-151.33
-155.64
-158.28
-159.08
-156.78
-149.35
-135.09
-113.53
-85.75
-53.84
-19.89
14.36
47.21
76.15
97.76
108.68
107.61
96.81
81.91
69.92
66.32
73.03
88.20
107.96
128.57
147.74
164.11
175.98
180.77
175.62
158.63
130.48
95.04
58.51
27.73
7.77
-0.19
0.86
4.92
5.34
-2.14
-17.34
-35.53
-49.49
-53.48
-46.49
-32.35
-17.31
-6.79
-2.62
-2.84
-3.56
-1.02
6.34
17.31
27.46
32.43
30.05
22.30
13.65
7.66
5.61
8.27
12.32
14.97
15.24
13.55
11.25
9.46
5.81
-1.57
-14.84
-35.98
-64.89
-98.42
-130.55
-153.96
-162.83
-155.18
-133.27
-103.13
-72.24
-46.21
-27.18
-14.00
-3.54
7.06
19.17
33.07
47.94
62.70
77.04
91.39
106.33
122.13
138.04
152.32
163.27
169.79
172.15
171.98
171.34
171.44
171.83
170.56
165.34
155.12
140.70
124.55
109.59
97.60
88.20
78.92
66.34
47.83
23.39
-3.85
-28.17
-43.29
-44.90
-32.40
-9.38
17.85
42.63
60.23
68.98
70.16
66.70
61.58
56.61
52.10
47.47
42.07
35.87
29.43
23.36
17.65
11.21
2.22
-11.14
-29.69
-52.60
-77.41
-100.63
-118.75
-129.17
-130.81
-124.04
-110.53
-92.50
-72.24
-51.59
-31.57
-12.78
4.40
19.46
31.87
41.35
48.20
53.34
57.77
61.99
65.36
66.21
62.29
51.84
34.64
12.79
-9.62
-27.63
-37.20
-36.89
-28.47
-16.07
-4.37
2.99
4.28
-0.64
-11.38
-27.47
-48.11
-71.44
-94.25
-112.78
-124.28
-128.30
-126.76
-122.59
-117.99
-113.78
-109.72
-105.70
-102.53
-101.50
-103.04
-105.68
-106.11
-100.74
-87.89
-69.09
-48.94
-33.51
-27.84
-34.13
-51.08
-74.44
-98.53
-118.02
-129.52
-132.17
-127.48
-118.12
-106.63
-94.53
-82.07
-68.90
-54.85
-40.52
-27.27
-16.40
-8.21
-1.71
4.99
13.41
23.70
34.33
42.93
47.46
47.36
43.77
39.03
35.57
35.16
38.47
45.24
54.62
65.54
76.86
87.51
96.42
102.50
104.84
103.08
97.81
90.62
83.43
77.54
73.05
69.11
65.06
61.47
60.07
62.36
67.88
73.51
74.65
67.97
53.55
35.10
17.66
4.58
-4.36
-12.06
-21.28
-32.04
-41.24
-44.98
-41.62
-33.52
-26.09
-24.67
-31.39
-44.07
-57.66
-67.30
-70.81
-69.31
-65.81
-63.04
-61.86
-61.27
-59.45
-55.26
-48.81
-41.30
-34.18
-28.45
-24.36
-21.60
-19.53
-17.53
-15.31
-13.03
-11.42
-11.57
-14.53
-20.90
-30.41
-41.89
-53.54
-63.45
-70.12
-72.73
-71.32
-66.71
-60.30
-53.72
-48.42
-45.37
-44.82
-46.39
-49.28
-52.60
-55.59
-57.69
-58.42
-57.34
-54.05
-48.27
-40.10
-30.14
-19.46
-9.42
-1.23
4.49
8.13
10.99
15.02
21.99
32.81
47.09
63.29
79.40
93.64
105.18
114.10
121.15
127.06
132.15
136.18
138.58
138.77
136.36
131.32
123.85
114.37
103.49
92.06
81.08
71.45
63.76
57.97
53.42
49.06
43.78
36.78
27.68
16.50
3.43
-11.12
-26.43
-41.28
-53.90
-62.29
-64.80
-60.85
-51.35
-38.57
-25.48
-14.88
-8.55
-6.85
-8.70
-12.21
-15.31
-16.46
-15.17
-12.05
-8.47
-6.04
-5.86
-8.19
-12.31
-16.97
-20.88
-23.19
-23.61
-22.36
-19.98
-17.11
-14.40
-12.52
-11.98
-12.99
-15.41
-18.72
-22.13
-24.87
-26.41
-26.58
-25.58
-24.05
-22.79
-22.69
-24.29
-27.66
-32.23
-36.94
-40.62
-42.36
-41.87
-39.49
-36.00
-32.21
-28.57
-24.97
-20.88
-15.57
-8.56
0.09
9.70
19.12
27.17
32.97
36.25
37.34
36.89
35.60
33.88
31.89
29.57
26.97
24.36
22.24
21.22
21.70
23.84
27.41
31.93
36.78
41.28
44.72
46.25
45.11
40.95
34.15
26.00
18.33
12.72
9.83
9.02
8.65
7.02
3.08
-3.07
-10.52
-18.11
-25.01
-30.87
-35.61
-39.12
-41.15
-41.53
-40.38
-38.22
-35.78
-33.59
-31.89
-30.52
-29.12
-27.33
-24.94
-21.87
-18.19
-14.11
-9.98
-6.18
-2.99
-0.41
1.81
4.05
6.56
9.23
11.67
13.37
14.11
14.09
13.96
14.53
16.40
19.61
23.65
27.68
30.96
33.14
34.30
34.70
34.51
33.58
31.51
27.89
22.72
16.43
9.87
3.84
-1.14
-4.94
-7.66
-9.43
-10.20
-9.80
-8.12
-5.30
-1.79
1.66
4.26
5.43
5.12
3.86
2.63
2.42
3.89
6.98
10.97
14.73
17.14
17.52
15.81
12.50
8.45
4.64
1.94
0.83
1.26
2.57
3.62
3.23
0.48
-4.91
-12.51
-21.46
-30.81
-39.81
-47.96
-54.83
-60.01
-63.27
-64.83
-65.63
-67.11
-70.73
-77.46
-87.47
-100.23
-114.70
-129.62
-143.56
-155.03
-162.68
-165.75
-164.32
-159.34
-152.18
-144.09
-135.80
-127.29
-117.80
-105.84
-89.43
-66.56
-36.11
1.31
42.84
83.76
118.87
144.01
157.53
160.89
158.14
154.67
155.43
163.40
178.79
199.20
220.77
239.75
253.87
262.82
267.60
269.38
268.70
265.35
259.00
249.87
238.99
227.75
217.32
208.16
200.13
192.67
185.21
177.20
168.30
158.42
147.88
137.49
128.45
121.86
118.23
117.09
117.05
116.33
113.52
108.01
100.04
90.16
78.76
65.67
50.29
32.00
10.69
-12.91
-37.19
-60.01
-79.22
-93.14
-101.00
-103.22
-101.49
-98.64
-97.96
-102.15
-112.25
-126.95
-143.01
-156.67
-165.26
-168.50
-168.29
-167.47
-167.93
-169.45
-169.91
-166.63
-158.20
-145.45
-131.11
-118.39
-109.43
-104.40
-101.80
-99.53
-96.11
-91.31
-85.99
-81.44
-78.54
-77.35
-77.15
-76.85
-75.46
-72.59
-68.44
-63.57
-58.58
-53.68
-48.69
-43.19
-36.98
-30.42
-24.53
-20.60
-19.57
-21.39
-24.83
-27.90
-28.70
-26.22
-20.74
-13.63
-6.65
-1.35
1.45
1.64
-0.41
-4.17
-9.09
-14.63
-20.15
-24.92
-28.29
-29.90
-29.88
-28.91
-28.05
-28.31
-30.31
-33.99
-38.67
-43.33
-47.15
-49.86
-51.92
-54.31
-58.07
-63.81
-71.31
-79.50
-86.62
-90.60
-89.44
-81.74
-67.25
-46.99
-23.15
1.60
24.84
45.05
61.55
74.28
83.32
88.54
89.86
87.50
82.24
75.43
68.54
62.69
58.32
55.16
52.59
49.91
46.58
42.18
36.39
28.89
19.44
7.93
-5.36
-19.68
-33.74
-45.97
-54.82
-59.28
-59.27
-55.63
-49.92
-43.81
-38.60
-34.73
-31.71
-28.40
-23.54
-16.56
-7.87
1.13
8.80
14.08
16.97
18.55
20.16
22.67
26.00
29.36
32.03
34.10
36.61
41.03
48.36
58.39
69.64
80.01
87.70
91.83
92.51
90.43
86.24
80.24
72.38
62.68
51.49
39.71
28.67
19.89
14.83
14.46
19.03
27.80
39.08
50.53
59.84
65.40
66.65
63.97
58.01
49.23
37.75
23.77
8.06
-7.76
-21.53
-31.20
-35.49
-34.08
-27.31
-15.68
0.35
20.26
43.13
67.45
91.28
112.68
130.17
142.77
149.90
151.08
146.04
134.94
118.76
99.18
78.26
57.68
38.27
19.94
2.11
-15.64
-33.26
-50.32
-66.59
-82.31
-98.21
-115.18
-133.72
-153.50
-173.09
-190.04
-201.32
-204.23
-197.49
-182.12
-161.48
-140.48
-123.99
-115.14
-114.44
-119.75
-127.12
-131.74
-128.98
-115.44
-90.15
-55.43
-16.79
18.71
45.23
60.55
66.79
68.86
71.50
76.92
84.14
90.44
93.50
92.82
89.50
84.98
79.68
72.77
62.98
49.80
34.00
17.39
1.99
-10.72
-20.22
-26.88
-31.60
-35.43
-39.22
-43.30
-47.35
-50.51
-51.80
-50.56
-46.88
-41.55
-35.85
-30.98
-27.57
-25.55
-24.24
-22.80
-20.63
-17.64
-14.12
-10.51
-7.09
-3.83
-0.48
3.24
7.41
11.77
15.76
18.72
20.14
19.87
18.18
15.64
12.97
10.81
9.52
9.13
9.36
9.76
9.85
9.32
8.02
6.03
3.63
1.14
-1.11
-2.89
-4.10
-4.80
-5.17
-5.49
-5.97
-6.74
-7.84
-9.19
-10.68
-12.17
-13.45
-14.26
-14.29
-13.21
-10.92
-7.53
-3.42
0.85
4.76
7.89
10.07
11.28
11.74
11.69
11.40
11.08
10.82
10.61
10.38
10.06
9.64
9.22
8.90
8.75
8.71
8.64
8.39
7.85
7.01
5.92
4.64
3.19
1.60
-0.10
-1.82
-3.46
-4.95
-6.36
-7.90
-9.84
-12.25
-14.92
-17.32
-18.81
-18.86
-17.33
-14.45
-10.70
-6.62
-2.58
1.19
4.59
7.48
9.71
11.08
11.50
11.07
10.08
8.93
8.03
7.62
7.68
7.98
8.20
8.13
7.72
7.08
6.36
5.65
4.88
3.92
2.69
1.22
-0.34
-1.79
-2.97
-3.81
-4.25
-4.28
-3.85
-2.95
-1.65
-0.11
1.51
3.21
5.12
7.53
10.65
14.50
18.79
23.04
26.73
29.43
30.92
31.12
30.07
27.93
24.96
21.52
18.01
14.76
11.92
9.53
7.65
6.47
6.28
7.24
9.24
11.71
13.83
14.84
14.35
12.47
9.70
6.61
3.51
0.41
-2.94
-6.71
-10.88
-15.14
-19.07
-22.36
-24.97
-27.22
-29.49
-32.09
-34.98
-37.83
-40.06
-41.07
-40.39
-37.67
-32.76
-25.77
-17.22
-8.02
0.72
7.99
13.42
17.23
20.12
22.76
25.35
27.56
28.78
28.57
26.91
24.21
20.93
17.34
13.41
9.06
4.40
-0.11
-3.74
-5.88
-6.25
-5.12
-3.13
-1.16
-0.05
-0.44
-2.69
-6.72
-11.99
-17.59
-22.44
-25.67
-26.89
-26.25
-24.24
-21.31
-17.67
-13.35
-8.35
-2.95
2.20
6.28
8.85
9.90
10.07
10.32
11.55
14.37
19.16
26.06
34.96
45.19
55.45
63.88
68.63
68.62
63.92
55.79
45.97
35.95
26.46
17.57
9.16
1.45
-4.91
-9.24
-11.34
-11.86
-12.07
-13.25
-15.95
-19.71
-23.37
-25.72
-26.14
-25.06
-23.65
-23.17
-24.33
-26.95
-30.12
-32.70
-33.84
-33.35
-31.67
-29.56
-27.70
-26.43
-25.71
-25.08
-23.89
-21.28
-16.33
-8.35
2.79
16.24
30.14
42.00
49.56
51.70
48.88
42.92
36.07
30.03
25.28
21.26
17.11
12.40
7.51
3.27
0.35
-1.25
-2.18
-3.32
-5.06
-7.11
-8.58
-8.64
-7.10
-4.70
-2.92
-3.26
-6.55
-12.50
-19.77
-26.59
-31.46
-33.76
-33.90
-32.99
-32.24
-32.41
-33.56
-35.15
-36.34
-36.36
-34.70
-31.22
-26.15
-19.82
-12.87
-5.85
0.82
7.03
13.21
20.21
29.08
40.46
54.00
68.21
80.70
88.95
91.22
87.11
77.64
64.72
50.45
36.48
23.74
12.63
3.26
-4.26
-9.79
-13.39
-15.42
-16.57
-17.61
-19.12
-21.28
-23.87
-26.50
-28.69
-30.32
-31.56
-32.73
-34.15
-36.02
-38.37
-41.06
-43.75
-45.86
-46.66
-45.40
-41.71
-35.77
-28.44
-20.91
-14.09
-8.37
-3.38
1.78
8.03
15.96
25.86
37.71
51.07
64.93
77.46
86.28
89.10
84.74
73.88
58.98
43.44
30.30
21.06
15.38
11.64
7.97
3.09
-3.25
-10.54
-18.04
-25.17
-31.64
-37.29
-41.96
-45.31
-47.01
-46.74
-44.56
-40.97
-36.71
-32.58
-29.11
-26.39
-24.05
-21.54
-18.43
-14.69
-10.74
-7.26
-4.91
-3.98
-4.32
-5.33
-6.31
-6.65
-6.10
-4.80
-3.13
-1.54
-0.41
0.05
-0.16
-0.90
-1.94
-3.04
-3.97
-4.57
-4.80
-4.76
-4.70
-4.95
-5.75
-7.10
-8.72
-10.17
-10.96
-10.81
-9.77
-8.09
-6.12
-4.08
-1.99
0.26
2.68
5.08
7.00
7.88
7.33
5.30
2.22
-1.15
-3.87
-5.13
-4.47
-1.95
1.79
5.66
8.49
9.37
8.07
5.14
1.64
-1.40
-3.52
-5.15
-7.32
-11.20
-17.39
-25.56
-34.38
-41.87
-46.01
-45.41
-39.92
-30.82
-20.55
-11.91
-7.08
-6.73
-9.70
-13.50
-15.31
-13.13
-6.46
3.81
15.99
28.34
39.55
48.76
55.40
58.99
59.11
55.60
48.79
39.59
29.29
19.28
10.61
3.82
-1.16
-4.90
-8.15
-11.62
-15.65
-20.05
-24.15
-26.97
-27.66
-25.82
-21.64
-15.82
-9.31
-2.91
2.84
7.65
11.37
13.87
14.98
14.66
13.11
10.81
8.37
6.31
4.92
4.17
3.87
3.82
3.92
4.20
4.74
5.57
6.53
7.32
7.54
6.84
5.02
2.17
-1.35
-5.00
-8.20
-10.49
-11.66
-11.75
-10.97
-9.52
-7.62
-5.38
-2.91
-0.34
2.18
4.50
6.48
7.98
8.88
9.08
8.59
7.58
6.35
5.31
4.78
4.84
5.25
5.61
5.46
4.60
3.17
1.58
0.31
-0.35
-0.42
-0.32
-0.62
-1.81
-4.04
-7.01
-10.13
-12.70
-14.13
-14.16
-12.82
-10.35
-7.19
-3.76
-0.49
2.28
4.33
5.61
6.24
6.43
6.42
6.30
6.13
5.94
5.80
5.90
6.38
7.25
8.25
8.93
8.86
7.84
6.03
3.92
2.08
0.86
0.25
-0.09
-0.67
-1.85
-3.68
-5.88
-7.95
-9.34
-9.66
-8.85
-7.13
-4.92
-2.67
-0.66
1.00
2.44
3.82
5.20
6.48
7.41
7.77
7.48
6.68
5.69
4.88
4.46
4.48
4.77
5.11
5.27
5.21
4.97
4.65
4.32
3.95
3.40
2.52
1.25
-0.38
-2.22
-4.10
-5.86
-7.34
-8.42
-9.00
-8.94
-8.21
-6.83
-4.94
-2.75
-0.51
1.56
3.33
4.73
5.82
6.62
7.13
7.30
7.05
6.40
5.45
4.41
3.49
2.85
2.49
2.30
2.12
1.83
1.40
0.88
0.39
0.04
-0.16
-0.26
-0.41
-0.80
-1.61
-2.89
-4.46
-6.03
-7.16
-7.52
-6.99
-5.64
-3.77
-1.69
0.39
2.38
4.29
6.12
7.75
8.98
9.58
9.43
8.63
7.44
6.20
5.18
4.55
4.34
4.49
4.90
5.45
6.02
6.48
6.73
6.71
6.46
6.06
5.56
4.93
4.01
2.62
0.63
-1.89
-4.60
-6.98
-8.54
-8.94
-8.10
-6.22
-3.64
-0.69
2.38
5.37
8.10
10.34
11.84
12.42
12.07
10.96
9.46
7.94
6.69
5.86
5.45
5.40
5.63
6.05
6.53
6.89
6.88
6.29
5.02
3.24
1.30
-0.35
-1.34
-1.61
-1.38
-1.06
-1.11
-1.73
-2.86
-4.17
-5.24
-5.66
-5.25
-4.05
-2.28
-0.22
1.86
3.77
5.41
6.71
7.65
8.24
8.53
8.60
8.54
8.42
8.29
8.17
8.10
8.10
8.19
8.35
8.48
8.44
8.12
7.42
6.36
5.05
3.62
2.20
0.92
-0.21
-1.22
-2.19
-3.27
-4.55
-6.03
-7.58
-9.02
-10.17
-10.87
-11.07
-10.77
-9.95
-8.62
-6.82
-4.64
-2.32
-0.16
1.52
2.51
2.81
2.56
2.04
1.46
0.97
0.63
0.48
0.55
0.85
1.31
1.76
2.02
1.95
1.51
0.84
0.11
-0.58
-1.24
-1.95
-2.84
-3.90
-5.08
-6.33
-7.65
-9.16
-10.99
-13.18
-15.56
-17.81
-19.56
-20.53
-20.73
-20.34
-19.66
-19.00
-18.56
-18.49
-18.89
-19.95
-21.76
-24.30
-27.35
-30.50
-33.31
-35.46
-36.87
-37.59
-37.69
-37.07
-35.48
-32.61
-28.32
-22.75
-16.29
-9.46
-2.68
3.88
10.25
16.61
23.00
29.26
34.91
39.39
42.18
43.08
42.28
40.30
37.77
35.24
33.05
31.25
29.75
28.42
27.23
26.26
25.68
25.61
26.06
26.86
27.66
28.09
27.83
26.76
24.94
22.61
20.08
17.63
15.48
13.75
12.47
11.58
10.86
10.00
8.64
6.64
4.07
1.28
-1.28
-3.23
-4.49
-5.23
-5.78
-6.38
-7.04
-7.60
-7.88
-7.85
-7.67
-7.56
-7.63
-7.72
-7.48
-6.57
-4.85
-2.54
-0.18
1.60
2.39
2.09
0.98
-0.42
-1.59
-2.24
-2.32
-2.00
-1.49
-0.88
-0.11
0.94
2.29
3.80
5.13
5.99
6.21
5.85
5.07
4.02
2.71
1.00
-1.21
-3.87
-6.66
-9.12
-10.73
-11.21
-10.53
-8.93
-6.84
-4.71
-2.86
-1.46
-0.51
0.10
0.44
0.50
0.22
-0.42
-1.29
-2.12
-2.56
-2.41
-1.75
-0.86
-0.10
0.28
0.24
-0.05
-0.40
-0.67
-0.86
-1.02
-1.21
-1.45
-1.71
-2.05
-2.49
-3.12
-3.94
-4.90
-5.89
-6.82
-7.60
-8.19
-8.50
-8.37
-7.70
-6.41
-4.52
-2.26
0.12
2.31
4.10
5.38
6.20
6.64
6.81
6.81
6.67
6.45
6.16
5.79
5.31
4.68
3.93
3.13
2.42
1.92
1.64
1.47
1.20
0.63
-0.29
-1.46
-2.72
-3.88
-4.85
-5.59
-6.07
-6.22
-6.00
-5.47
-4.93
-4.80
-5.42
-6.87
-8.80
-10.58
-11.51
-11.21
-9.76
-7.68
-5.60
-3.95
-2.85
-2.11
-1.47
-0.79
-0.12
0.40
0.66
0.70
0.64
0.60
0.60
0.65
0.74
0.97
1.45
2.27
3.31
4.30
4.87
4.79
4.04
2.86
1.62
0.66
0.16
0.07
0.19
0.29
0.26
0.15
0.12
0.36
0.99
1.93
3.00
4.01
4.85
5.56
6.27
7.04
7.84
8.44
8.58
8.11
7.03
5.53
3.87
2.31
1.00
-0.05
-0.91
-1.70
-2.52
-3.36
-4.12
-4.61
-4.68
-4.26
-3.47
-2.58
-1.92
-1.69
-1.95
-2.54
-3.20
-3.73
-4.05
-4.20
-4.30
-4.45
-4.71
-5.13
-5.74
-6.50
-7.35
-8.12
-8.58
-8.53
-7.85
-6.60
-5.00
-3.34
-1.84
-0.65
0.19
0.72
0.96
0.92
0.64
0.17
-0.32
-0.63
-0.56
-0.02
0.95
2.12
3.17
3.84
4.01
3.82
3.50
3.26
3.19
3.14
2.92
2.39
1.56
0.62
-0.24
-0.91
-1.46
-2.08
-2.92
-3.99
-5.13
-6.05
-6.50
-6.38
-5.82
-5.04
-4.19
-3.32
-2.31
-1.10
0.25
1.46
2.22
2.31
1.77
0.85
-0.08
-0.75
-1.12
-1.30
-1.50
-1.81
-2.23
-2.66
-2.96
-3.04
-2.85
-2.41
-1.83
-1.25
-0.81
-0.65
-0.76
-1.01
-1.26
-1.37
-1.32
-1.18
-1.08
-1.14
-1.38
-1.72
-2.03
-2.18
-2.11
-1.81
-1.33
-0.70
0.03
0.85
1.72
2.59
3.37
3.98
4.33
4.38
4.16
3.75
3.23
2.70
2.24
1.90
1.76
1.83
2.08
2.44
2.74
2.83
2.58
2.01
1.20
0.34
-0.43
-1.02
-1.44
-1.79
-2.17
-2.67
-3.37
-4.28
-5.36
-6.56
-7.81
-9.00
-10.10
-11.06
-11.91
-12.68
-13.40
-14.09
-14.73
-15.33
-15.95
-16.66
-17.56
-18.78
-20.38
-22.39
-24.77
-27.37
-29.96
-32.25
-33.98
-34.94
-35.10
-34.59
-33.66
-32.58
-31.54
-30.50
-29.27
-27.47
-24.68
-20.62
-15.16
-8.44
-0.79
7.33
15.44
23.11
30.03
36.03
41.08
45.23
48.59
51.19
52.97
53.73
53.19
51.21
47.83
43.40
38.40
33.36
28.66
24.48
20.88
17.83
15.28
13.15
11.25
9.36
7.24
4.81
2.16
-0.47
-2.83
-4.83
-6.47
-7.84
-8.94
-9.73
-10.10
-10.00
-9.49
-8.69
-7.66
-6.38
-4.75
-2.60
0.10
3.25
6.62
9.88
12.72
14.86
16.04
16.08
14.94
12.73
9.82
6.72
4.02
2.27
1.80
2.59
4.29
6.29
7.94
8.73
8.45
7.11
5.01
2.46
-0.20
-2.64
-4.64
-6.06
-6.91
-7.42
-7.95
-8.84
-10.25
-12.00
-13.69
-14.87
-15.32
-15.12
-14.49
-13.60
-12.36
-10.59
-8.15
-5.26
-2.39
-0.11
1.32
2.07
2.64
3.51
4.80
6.22
7.22
7.33
6.43
4.74
2.61
0.36
-1.86
-4.08
-6.42
-8.93
-11.50
-13.89
-15.81
-17.00
-17.44
-17.44
-17.53
-18.27
-19.95
-22.40
-24.98
-26.91
-27.63
-26.94
-25.06
-22.25
-18.68
-14.35
-9.25
-3.64
1.95
6.80
10.38
12.49
13.32
13.23
12.49
11.22
9.48
7.44
5.50
4.22
4.13
5.47
8.14
11.61
15.18
18.17
20.10
20.87
20.74
20.20
19.77
19.78
20.33
21.20
21.97
22.16
21.44
19.69
17.10
14.15
11.47
9.67
9.08
9.60
10.77
11.93
12.57
12.45
11.61
10.22
8.36
5.98
3.05
-0.34
-3.80
-6.75
-8.71
-9.45
-9.23
-8.57
-8.11
-8.21
-8.91
-9.94
-10.98
-11.86
-12.65
-13.58
-14.81
-16.31
-17.84
-19.13
-20.05
-20.63
-21.03
-21.32
-21.45
-21.19
-20.35
-18.86
-16.85
-14.56
-12.16
-9.66
-6.96
-3.96
-0.63
2.91
6.51
10.08
13.59
17.05
20.52
24.05
27.59
30.94
33.65
35.14
34.89
32.72
29.03
24.56
20.14
16.26
12.91
9.77
6.51
3.09
-0.18
-2.95
-5.06
-6.72
-8.34
-10.25
-12.38
-14.28
-15.39
-15.33
-14.10
-12.08
-9.82
-7.83
-6.41
-5.62
-5.31
-5.21
-5.07
-4.77
-4.31
-3.80
-3.41
-3.26
-3.38
-3.70
-4.08
-4.45
-4.79
-5.14
-5.53
-5.88
-6.10
-6.14
-6.06
-6.06
-6.41
-7.30
-8.74
-10.54
-12.40
-14.10
-15.50
-16.57
-17.25
-17.40
-16.80
-15.24
-12.69
-9.32
-5.54
-1.80
1.64
4.82
8.05
11.68
15.79
20.12
24.14
27.35
29.58
30.97
31.85
32.36
32.31
31.19
28.53
24.24
18.72
12.70
6.82
1.33
-3.95
-9.32
-14.82
-20.00
-23.99
-25.94
-25.34
-22.37
-17.81
-12.83
-8.52
-5.57
-4.14
-3.88
-4.21
-4.49
-4.14
-2.70
0.23
4.78
10.69
17.12
22.80
26.32
26.76
24.14
19.43
14.10
9.43
5.95
3.39
1.01
-1.80
-5.13
-8.52
-11.28
-12.83
-12.90
-11.56
-9.09
-5.81
-2.10
1.67
5.13
7.88
9.59
10.06
9.23
7.30
4.67
1.93
-0.39
-1.98
-2.94
-3.63
-4.50
-5.75
-7.23
-8.44
-8.81
-7.96
-5.86
-2.85
0.55
3.84
6.71
9.00
10.69
11.75
12.08
11.60
10.29
8.32
6.07
3.99
2.50
1.75
1.62
1.78
1.87
1.59
0.81
-0.52
-2.48
-5.13
-8.50
-12.46
-16.72
-20.75
-24.09
-26.37
-27.46
-27.52
-26.84
-25.87
-25.05
-24.84
-25.54
-27.29
-29.97
-33.21
-36.56
-39.53
-41.76
-42.92
-42.73
-40.79
-36.78
-30.66
-22.97
-14.84
-7.80
-3.25
-1.97
-3.80
-7.75
-12.32
-16.03
-17.86
-17.44
-14.89
-10.60
-4.80
2.47
11.35
21.87
34.07
48.11
64.45
83.60
105.48
128.60
149.79
164.94
170.42
164.60
148.64
126.00
101.13
77.86
58.41
43.28
31.93
23.61
17.89
14.66
13.73
14.45
15.67
16.08
14.79
11.90
8.53
6.37
6.77
10.01
15.17
20.56
24.73
27.02
27.56
26.77
24.83
21.61
16.99
11.20
4.90
-1.07
-6.07
-9.74
-12.01
-12.99
-12.91
-12.20
-11.55
-11.66
-12.90
-15.03
-17.25
-18.62
-18.68
-17.66
-16.26
-15.07
-14.08
-12.79
-10.70
-7.92
-5.29
-4.04
-5.01
-8.08
-12.30
-16.44
-19.67
-21.93
-23.62
-25.12
-26.25
-26.31
-24.60
-20.99
-16.11
-10.99
-6.48
-2.80
0.27
2.87
4.61
4.64
2.16
-2.88
-9.64
-16.78
-23.14
-28.23
-32.19
-35.37
-37.89
-39.50
-39.86
-38.97
-37.25
-35.26
-33.40
-31.53
-29.31
-26.52
-23.47
-20.86
-19.39
-19.14
-19.40
-19.07
-17.24
-13.76
-9.37
-5.17
-2.05
-0.21
0.81
1.69
2.79
3.89
4.44
3.92
2.25
-0.11
-2.44
-4.11
-4.81
-4.56
-3.57
-2.14
-0.58
0.73
1.37
0.97
-0.63
-3.23
-6.34
-9.29
-11.44
-12.41
-12.03
-10.36
-7.59
-3.98
0.16
4.37
8.16
11.09
12.89
13.57
13.33
12.34
10.63
8.11
4.69
0.58
-3.66
-7.23
-9.38
-9.62
-7.96
-4.87
-1.11
2.39
4.80
5.49
4.25
1.29
-2.70
-6.78
-10.07
-11.99
-12.47
-11.80
-10.41
-8.74
-7.09
-5.77
-5.11
-5.42
-6.85
-9.29
-12.27
-15.20
-17.60
-19.22
-20.14
-20.53
-20.54
-20.27
-19.82
-19.45
-19.47
-20.14
-21.43
-22.98
-24.29
-25.05
-25.31
-25.47
-25.96
-27.04
-28.64
-30.50
-32.35
-34.01
-35.36
-36.20
-36.17
-34.97
-32.50
-29.10
-25.44
-22.20
-19.72
-17.84
-16.00
-13.63
-10.51
-6.86
-3.19
0.00
2.58
4.83
7.26
10.19
13.48
16.46
18.19
17.95
15.54
11.42
6.41
1.41
-2.91
-6.26
-8.61
-10.11
-10.98
-11.47
-11.78
-12.08
-12.41
-12.72
-12.86
-12.64
-11.83
-10.21
-7.64
-4.21
-0.32
3.43
6.42
8.26
8.98
8.98
8.84
8.98
9.41
9.86
9.91
9.39
8.49
7.65
7.32
7.65
8.50
9.54
10.56
11.61
12.97
14.82
17.11
19.39
21.00
21.39
20.37
18.22
15.49
12.85
10.79
9.57
9.14
9.25
9.56
9.75
9.61
9.06
8.11
6.86
5.48
4.18
3.17
2.53
2.14
1.71
0.94
-0.31
-1.95
-3.71
-5.31
-6.61
-7.52
-7.99
-7.91
-7.21
-5.94
-4.45
-3.20
-2.55
-2.60
-3.16
-3.91
-4.63
-5.27
-5.82
-6.20
-6.12
-5.24
-3.37
-0.55
2.87
6.46
9.81
12.74
15.15
17.06
18.49
19.48
20.12
20.56
20.99
21.53
22.24
23.06
23.91
24.61
24.92
24.55
23.28
21.10
18.31
15.54
13.35
12.02
11.35
10.80
9.73
7.83
5.16
2.09
-1.00
-3.92
-6.74
-9.67
-12.92
-16.57
-20.49
-24.35
-27.63
-29.77
-30.40
-29.59
-27.93
-26.33
-25.65
-26.23
-27.81
-29.62
-30.91
-31.21
-30.40
-28.52
-25.50
-21.16
-15.37
-8.47
-1.27
5.13
9.94
13.04
14.95
16.55
18.36
20.35
22.04
22.92
22.92
22.44
21.99
21.79
21.57
20.82
19.31
17.30
15.42
14.12
13.32
12.38
10.54
7.39
3.07
-1.96
-7.44
-13.44
-20.31
-28.20
-36.76
-45.12
-52.25
-57.34
-59.93
-59.90
-57.26
-52.25
-45.37
-37.48
-29.65
-22.78
-17.24
-12.80
-8.85
-4.84
-0.59
3.56
7.02
9.19
9.66
8.19
4.76
-0.44
-6.96
-14.13
-21.07
-26.84
-30.62
-31.85
-30.44
-26.96
-22.56
-18.69
-16.51
-16.27
-17.06
-17.12
-14.74
-9.11
-0.83
8.44
16.87
23.35
27.91
31.43
34.75
38.09
40.87
42.14
41.32
38.63
35.09
32.03
30.48
30.72
32.21
33.94
34.90
34.54
32.95
30.76
28.69
27.20
26.31
25.75
25.20
24.52
23.77
23.10
22.53
21.97
21.23
20.15
18.69
16.88
14.74
12.39
9.95
7.66
5.81
4.64
4.20
4.29
4.58
4.71
4.43
3.68
2.56
1.30
0.16
-0.71
-1.33
-1.95
-2.88
-4.31
-6.13
-8.01
-9.59
-10.73
-11.61
-12.58
-13.81
-15.15
-16.00
-15.71
-13.95
-10.94
-7.43
-4.32
-2.33
-1.59
-1.79
-2.35
-2.86
-3.29
-3.88
-4.96
-6.54
-8.23
-9.31
-9.12
-7.38
-4.43
-1.10
1.70
3.36
3.80
3.46
2.92
2.58
2.52
2.62
2.79
3.11
3.76
4.74
5.75
6.24
5.75
4.29
2.31
0.55
-0.41
-0.40
0.42
1.77
3.44
5.29
7.07
8.27
8.26
6.66
3.66
0.13
-2.74
-3.92
-3.07
-0.57
2.66
5.67
7.82
8.86
8.81
7.80
5.92
3.31
0.38
-2.21
-3.60
-3.15
-0.79
2.85
6.65
9.52
10.86
10.82
10.12
9.56
9.55
9.88
9.89
8.93
6.86
4.14
1.74
0.49
0.73
2.10
3.84
5.30
6.30
7.19
8.49
10.42
12.67
14.59
15.57
15.50
14.71
13.75
12.96
12.30
11.43
10.12
8.55
7.29
7.03
8.08
10.11
12.31
13.71
13.68
12.20
9.83
7.47
5.90
5.51
6.13
7.12
7.66
7.08
5.19
2.38
-0.66
-3.22
-5.02
-6.29
-7.59
-9.45
-11.98
-14.84
-17.49
-19.50
-20.80
-21.60
-22.08
-22.22
-21.79
-20.52
-18.39
-15.68
-12.81
-10.13
-7.78
-5.67
-3.73
-1.96
-0.50
0.49
1.01
1.19
1.22
1.25
1.33
1.42
1.56
1.78
2.14
2.60
3.00
3.17
3.06
2.77
2.43
2.07
1.54
0.63
-0.71
-2.25
-3.54
-4.14
-3.95
-3.31
-2.82
-3.02
-4.13
-5.90
-7.86
-9.57
-10.82
-11.58
-11.83
-11.43
-10.09
-7.62
-4.15
-0.19
3.45
6.01
7.14
7.11
6.56
6.22
6.43
7.07
7.70
7.89
7.60
7.15
6.96
7.20
7.61
7.64
6.75
4.82
2.27
-0.17
-1.81
-2.31
-1.78
-0.64
0.56
1.30
1.08
-0.42
-3.25
-7.01
-10.89
-13.85
-15.16
-14.69
-13.06
-11.29
-10.23
-10.12
-10.56
-10.79
-10.24
-8.82
-6.90
-5.02
-3.61
-2.83
-2.65
-3.05
-4.06
-5.59
-7.28
-8.53
-8.68
-7.40
-4.94
-2.12
0.10
1.06
0.72
-0.34
-1.34
-1.71
-1.36
-0.65
-0.05
0.11
-0.21
-0.93
-2.03
-3.67
-6.03
-9.04
-12.25
-14.89
-16.19
-15.71
-13.71
-10.99
-8.57
-7.15
-6.71
-6.53
-5.60
-3.27
0.37
4.41
7.56
8.86
8.15
6.03
3.45
1.08
-1.06
-3.42
-6.39
-9.80
-12.80
-14.24
-13.38
-10.41
-6.47
-3.11
-1.55
-2.14
-4.28
-6.93
-9.23
-10.94
-12.30
-13.54
-14.40
-14.19
-12.13
-8.11
-2.76
2.77
7.66
11.91
16.33
21.79
28.34
34.79
39.14
39.67
35.95
29.12
21.40
14.95
10.93
9.22
8.87
8.78
8.37
7.73
7.33
7.54
8.29
9.11
9.55
9.56
9.63
10.67
13.58
18.82
26.16
34.73
43.32
50.73
56.12
59.08
59.49
57.32
52.63
45.63
36.93
27.64
19.14
12.75
9.17
8.23
9.08
10.58
11.84
12.49
12.54
11.96
10.42
7.33
2.23
-4.76
-12.66
-19.83
-24.52
-25.47
-22.39
-15.98
-7.61
1.21
9.36
16.36
22.33
27.81
33.32
39.10
44.99
50.42
54.60
56.71
56.09
52.52
46.27
38.04
28.74
19.19
9.92
1.06
-7.50
-16.00
-24.65
-33.61
-42.90
-52.33
-61.39
-69.31
-75.22
-78.54
-79.29
-78.10
-76.00
-74.01
-72.69
-72.11
-71.94
-71.80
-71.52
-71.19
-71.01
-71.06
-71.23
-71.22
-70.72
-69.45
-67.27
-64.12
-59.96
-54.78
-48.75
-42.14
-35.35
-28.80
-22.61
-16.54
-10.12
-2.81
5.75
15.69
26.90
38.93
50.90
61.55
69.42
73.38
73.10
69.24
63.12
56.08
48.84
41.34
33.09
23.77
13.67
3.57
-5.72
-13.81
-20.87
-27.30
-33.29
-38.46
-42.12
-43.57
-42.56
-39.50
-35.26
-30.84
-27.00
-24.10
-22.04
-20.49
-19.07
-17.53
-15.80
-13.92
-11.95
-9.84
-7.27
-3.76
1.23
7.97
16.21
24.95
32.70
37.90
39.51
37.49
32.83
27.22
22.29
19.04
17.41
16.47
14.87
11.53
6.09
-0.98
-8.62
-15.66
-21.24
-25.06
-27.35
-28.62
-29.46
-30.37
-31.65
-33.51
-36.15
-39.62
-43.77
-48.16
-52.12
-54.84
-55.67
-54.23
-50.45
-44.49
-36.61
-27.02
-15.91
-3.48
9.84
23.33
36.01
46.79
54.75
59.37
60.63
58.93
54.87
49.02
41.81
33.54
24.47
14.91
5.22
-4.26
-13.34
-22.15
-31.27
-41.63
-54.36
-70.37
-89.89
-111.87
-133.62
-151.12
-159.84
-156.13
-138.39
-107.65
-67.25
-21.81
24.02
66.52
103.36
133.56
157.06
174.31
185.96
192.60
194.64
192.32
185.94
176.25
164.77
153.70
145.16
140.45
139.42
140.57
141.82
141.48
138.84
134.15
128.06
120.90
112.49
102.34
90.33
77.06
63.80
51.88
42.02
33.93
26.54
18.58
9.28
-1.18
-11.71
-20.73
-26.85
-29.48
-29.00
-26.66
-24.09
-22.80
-23.72
-27.03
-32.23
-38.42
-44.51
-49.60
-53.16
-55.07
-55.71
-55.62
-55.20
-54.43
-52.69
-49.25
-43.81
-37.10
-30.91
-27.47
-28.50
-34.31
-43.62
-54.19
-63.82
-71.30
-76.56
-80.34
-83.36
-85.83
-87.51
-88.18
-88.04
-87.77
-88.08
-88.98
-89.43
-87.42
-80.54
-67.04
-46.45
-19.91
10.23
40.98
69.53
93.68
112.21
124.67
131.17
132.08
127.83
118.86
105.75
89.30
70.66
51.28
32.81
16.92
4.95
-2.41
-5.35
-4.94
-2.91
-1.22
-1.52
-4.91
-11.73
-21.72
-34.36
-49.09
-65.33
-82.15
-97.81
-109.79
-115.46
-113.20
-103.52
-89.17
-74.29
-62.75
-56.64
-55.80
-58.28
-61.74
-64.44
-65.25
-63.19
-56.95
-45.15
-27.38
-4.91
19.40
42.46
62.44
79.51
95.17
110.61
125.31
136.88
142.26
139.69
129.82
115.56
100.52
87.12
75.71
64.84
52.59
37.92
21.24
4.09
-11.78
-25.27
-36.32
-45.48
-53.32
-59.91
-64.66
-66.74
-65.64
-61.53
-55.34
-48.42
-42.05
-37.09
-33.89
-32.37
-32.19
-32.90
-33.94
-34.79
-34.99
-34.28
-32.61
-30.08
-26.87
-23.12
-19.00
-14.66
-10.42
-6.62
-3.56
-1.38
-0.07
0.46
0.32
-0.38
-1.53
-2.93
-4.38
-5.82
-7.34
-9.25
-11.80
-14.95
-18.26
-20.95
-22.23
-21.62
-19.12
-15.24
-10.74
-6.39
-2.77
-0.23
1.09
1.09
-0.22
-2.75
-6.19
-9.97
-13.32
-15.52
-16.05
-14.87
-12.35
-9.15
-5.99
-3.41
-1.58
-0.42
0.35
0.96
1.56
2.13
2.59
2.87
2.84
2.40
1.45
0.02
-1.74
-3.48
-4.84
-5.55
-5.57
-5.19
-4.77
-4.63
-4.83
-5.22
-5.54
-5.58
-5.38
-5.12
-5.04
-5.28
-5.80
-6.46
-7.07
-7.55
-7.89
-8.13
-8.21
-8.00
-7.30
-5.97
-4.10
-1.99
-0.07
1.30
2.02
2.28
2.39
2.64
3.10
3.60
3.88
3.79
3.39
2.92
2.63
2.62
2.79
2.89
2.70
2.18
1.49
0.93
0.72
0.91
1.29
1.50
1.21
0.30
-1.14
-2.80
-4.36
-5.59
-6.45
-7.04
-7.53
-8.02
-8.46
-8.67
-8.43
-7.65
-6.37
-4.80
-3.22
-1.80
-0.58
0.52
1.60
2.70
3.77
4.68
5.37
5.84
6.17
6.46
6.75
6.99
7.08
6.97
6.65
6.22
5.77
5.35
4.99
4.67
4.34
3.99
3.56
3.01
2.30
1.41
0.42
-0.55
-1.37
-1.92
-2.22
-2.41
-2.66
-3.16
-3.94
-4.93
-5.87
-6.50
-6.58
-6.02
-4.88
-3.33
-1.59
0.18
1.85
3.36
4.67
5.71
6.43
6.80
6.85
6.62
6.20
5.67
5.12
4.61
4.20
3.93
3.77
3.64
3.48
3.24
2.99
2.80
2.77
2.87
2.91
2.67
1.96
0.81
-0.55
-1.76
-2.50
-2.66
-2.35
-1.87
-1.56
-1.60
-2.05
-2.84
-3.87
-5.04
-6.26
-7.41
-8.34
-8.84
-8.77
-8.07
-6.81
-5.12
-3.19
-1.16
0.83
2.61
4.03
4.99
5.52
5.78
5.95
6.18
6.41
6.49
6.28
5.78
5.17
4.66
4.44
4.46
4.54
4.47
4.17
3.72
3.32
3.16
3.26
3.49
3.62
3.44
2.84
1.86
0.67
-0.54
-1.58
-2.38
-2.97
-3.52
-4.20
-5.12
-6.20
-7.23
-7.90
-7.93
-7.23
-5.90
-4.24
-2.55
-1.03
0.26
1.40
2.48
3.56
4.51
5.22
5.59
5.62
5.48
5.32
5.26
5.29
5.35
5.34
5.20
4.96
4.61
4.21
3.78
3.37
3.04
2.84
2.73
2.61
2.34
1.84
1.14
0.41
-0.19
-0.62
-0.95
-1.36
-1.94
-2.70
-3.57
-4.44
-5.30
-6.14
-6.96
-7.62
-7.86
-7.40
-6.10
-4.03
-1.50
0.99
2.97
4.17
4.57
4.44
4.17
4.06
4.21
4.49
4.69
4.70
4.55
4.38
4.33
4.36
4.33
4.11
3.72
3.31
3.06
3.03
3.08
2.95
2.49
1.73
0.93
0.33
0.09
0.11
0.21
0.17
-0.13
-0.69
-1.51
-2.55
-3.79
-5.13
-6.35
-7.16
-7.30
-6.69
-5.38
-3.61
-1.62
0.40
2.31
3.95
5.19
5.87
5.94
5.51
4.84
4.20
3.77
3.57
3.50
3.44
3.37
3.34
3.40
3.52
3.54
3.25
2.53
1.40
0.12
-0.99
-1.71
-1.96
-1.84
-1.55
-1.18
-0.77
-0.29
0.20
0.49
0.26
-0.69
-2.31
-4.16
-5.62
-6.17
-5.64
-4.28
-2.61
-1.09
0.10
1.06
2.03
3.06
3.96
4.36
3.93
2.62
0.70
-1.32
-3.01
-4.07
-4.41
-4.01
-2.81
-0.72
2.21
5.68
9.06
11.62
12.84
12.67
11.57
10.22
9.17
8.47
7.71
6.28
3.81
0.39
-3.39
-6.69
-8.75
-9.19
-8.14
-6.14
-3.99
-2.47
-2.12
-3.12
-5.29
-8.16
-11.18
-13.85
-15.71
-16.38
-15.56
-13.17
-9.46
-5.08
-0.96
2.01
3.31
3.04
1.87
0.72
0.42
1.36
3.38
5.97
8.51
10.52
11.81
12.36
12.21
11.34
9.71
7.32
4.44
1.54
-0.82
-2.24
-2.69
-2.42
-1.86
-1.35
-1.06
-0.93
-0.82
-0.69
-0.60
-0.69
-1.09
-1.84
-2.90
-4.14
-5.37
-6.37
-6.96
-7.01
-6.52
-5.63
-4.54
-3.47
-2.59
-1.93
-1.43
-0.96
-0.41
0.23
0.83
1.16
0.99
0.18
-1.27
-3.17
-5.31
-7.44
-9.37
-10.88
-11.77
-11.86
-11.02
-9.30
-6.94
-4.34
-1.88
0.11
1.52
2.36
2.70
2.70
2.42
1.99
1.50
1.09
0.86
0.84
0.98
1.15
1.19
1.01
0.60
0.11
-0.30
-0.52
-0.56
-0.61
-0.87
-1.54
-2.64
-4.07
-5.68
-7.32
-8.82
-10.03
-10.75
-10.73
-9.76
-7.81
-5.06
-1.92
1.05
3.37
4.77
5.29
5.22
5.02
5.08
5.59
6.48
7.49
8.36
8.89
9.06
8.94
8.62
8.20
7.68
7.05
6.31
5.42
4.36
3.12
1.74
0.34
-0.86
-1.75
-2.41
-3.07
-4.06
-5.58
-7.62
-9.91
-12.07
-13.75
-14.73
-14.89
-14.19
-12.64
-10.28
-7.27
-3.91
-0.57
2.40
4.78
6.52
7.69
8.44
8.89
9.15
9.31
9.40
9.48
9.60
9.78
10.04
10.31
10.53
10.58
10.37
9.87
9.06
8.02
6.86
5.68
4.61
3.66
2.81
1.96
1.03
-0.01
-1.13
-2.29
-3.52
-4.93
-6.67
-8.80
-11.18
-13.39
-14.92
-15.30
-14.34
-12.17
-9.21
-5.97
-2.89
-0.25
1.91
3.63
5.02
6.13
6.92
7.30
7.20
6.64
5.74
4.73
3.83
3.18
2.80
2.57
2.33
1.92
1.22
0.16
-1.32
-3.23
-5.56
-8.17
-10.86
-13.40
-15.57
-17.34
-18.83
-20.25
-21.87
-23.80
-25.95
-27.95
-29.25
-29.11
-26.93
-22.33
-15.37
-6.68
2.72
11.65
19.18
24.90
29.00
32.09
34.87
37.87
41.25
44.93
48.66
52.23
55.44
58.13
60.03
60.87
60.45
58.73
55.91
52.33
48.36
44.23
40.01
35.67
31.15
26.49
21.86
17.60
14.08
11.59
10.25
9.93
10.22
10.54
10.30
9.09
6.76
3.57
-0.01
-3.39
-6.13
-8.01
-9.05
-9.45
-9.40
-8.98
-8.11
-6.71
-4.76
-2.48
-0.24
1.56
2.62
2.89
2.49
1.58
0.34
-1.10
-2.53
-3.62
-3.99
-3.34
-1.69
0.54
2.74
4.28
4.90
4.73
4.21
3.78
3.73
4.09
4.73
5.45
6.16
6.78
7.26
7.50
7.41
6.94
6.17
5.24
4.36
3.67
3.19
2.84
2.46
1.90
1.10
0.07
-1.09
-2.22
-3.16
-3.84
-4.27
-4.57
-4.88
-5.30
-5.84
-6.39
-6.79
-6.95
-6.88
-6.70
-6.61
-6.80
-7.43
-8.59
-10.25
-12.25
-14.29
-15.97
-16.86
-16.70
-15.48
-13.39
-10.78
-8.03
-5.38
-2.99
-0.92
0.76
2.00
2.83
3.35
3.70
4.03
4.33
4.49
4.38
3.98
3.48
3.18
3.29
3.81
4.45
4.81
4.64
3.98
3.13
2.48
2.24
2.32
2.46
2.36
1.90
1.16
0.34
-0.38
-0.92
-1.31
-1.59
-1.84
-2.09
-2.38
-2.72
-3.18
-3.84
-4.73
-5.80
-6.92
-7.87
-8.43
-8.43
-7.82
-6.71
-5.32
-3.88
-2.58
-1.49
-0.56
0.26
1.00
1.62
2.05
2.29
2.40
2.53
2.76
3.08
3.39
3.51
3.37
3.01
2.63
2.45
2.58
2.97
3.38
3.55
3.28
2.54
1.50
0.44
-0.37
-0.76
-0.71
-0.40
-0.09
-0.03
-0.37
-1.07
-1.98
-2.89
-3.64
-4.19
-4.57
-4.94
-5.41
-6.07
-6.89
-7.77
-8.53
-9.00
-9.01
-8.50
-7.48
-6.06
-4.46
-2.93
-1.67
-0.81
-0.34
-0.13
-0.05
0.03
0.13
0.24
0.36
0.54
0.84
1.31
1.88
2.39
2.69
2.66
2.33
1.82
1.29
0.80
0.37
-0.08
-0.60
-1.22
-1.92
-2.69
-3.52
-4.44
-5.48
-6.59
-7.67
-8.58
-9.19
-9.45
-9.47
-9.43
-9.54
-9.94
-10.61
-11.45
-12.28
-12.93
-13.30
-13.31
-12.94
-12.15
-10.94
-9.34
-7.49
-5.62
-4.04
-3.00
-2.67
-3.03
-3.90
-5.00
-6.10
-7.06
-7.87
-8.61
-9.41
-10.34
-11.43
-12.65
-13.90
-15.01
-15.73
-15.79
-14.99
-13.27
-10.74
-7.58
-3.98
-0.07
4.08
8.40
12.81
17.09
21.04
24.44
27.20
29.32
30.87
32.03
32.96
33.76
34.37
34.56
33.97
32.21
29.08
24.69
19.41
13.74
8.23
3.31
-0.70
-3.65
-5.53
-6.57
-7.16
-7.77
-8.75
-10.18
-11.79
-13.16
-13.88
-13.75
-12.81
-11.27
-9.35
-7.23
-5.03
-2.85
-0.74
1.38
3.73
6.64
10.25
14.38
18.42
21.56
23.11
22.80
20.92
18.07
14.87
11.65
8.41
5.03
1.46
-2.11
-5.37
-8.01
-9.94
-11.28
-12.25
-12.97
-13.42
-13.39
-12.70
-11.30
-9.34
-7.16
-5.12
-3.57
-2.72
-2.61
-3.09
-3.94
-4.95
-5.97
-6.98
-8.06
-9.26
-10.58
-11.92
-13.14
-14.08
-14.70
-15.04
-15.22
-15.37
-15.53
-15.71
-15.82
-15.78
-15.57
-15.19
-14.70
-14.17
-13.63
-13.08
-12.49
-11.83
-11.06
-10.21
-9.32
-8.43
-7.49
-6.44
-5.14
-3.47
-1.38
1.10
3.82
6.54
8.98
10.95
12.38
13.41
14.29
15.31
16.64
18.30
20.17
21.98
23.50
24.61
25.32
25.75
25.95
25.94
25.65
25.04
24.15
23.10
22.02
20.87
19.43
17.36
14.39
10.45
5.79
0.88
-3.78
-7.86
-11.23
-13.91
-15.95
-17.28
-17.81
-17.44
-16.16
-14.12
-11.67
-9.16
-6.96
-5.25
-4.07
-3.30
-2.78
-2.41
-2.16
-2.07
-2.11
-2.15
-2.02
-1.60
-0.95
-0.35
-0.17
-0.76
-2.25
-4.53
-7.36
-10.50
-13.76
-17.07
-20.27
-23.10
-25.18
-26.09
-25.59
-23.75
-20.95
-17.71
-14.47
-11.38
-8.23
-4.62
-0.25
4.80
9.99
14.50
17.50
18.53
17.58
15.07
11.56
7.62
3.67
-0.01
-3.19
-5.68
-7.34
-8.17
-8.25
-7.83
-7.15
-6.42
-5.83
-5.46
-5.42
-5.76
-6.46
-7.43
-8.58
-9.83
-11.21
-12.83
-14.84
-17.28
-20.03
-22.81
-25.24
-26.95
-27.69
-27.29
-25.61
-22.58
-18.19
-12.60
-6.23
0.32
6.40
11.52
15.41
18.08
19.65
20.22
19.88
18.65
16.64
14.06
11.21
8.42
5.90
3.78
2.15
1.13
0.91
1.65
3.43
6.14
9.47
13.01
16.31
19.02
20.99
22.32
23.34
24.50
26.21
28.71
31.84
35.13
37.97
39.89
40.79
40.96
40.89
40.99
41.45
42.17
43.00
43.81
44.47
44.75
44.29
42.60
39.35
34.54
28.50
21.77
14.83
7.96
1.25
-5.21
-11.22
-16.50
-20.86
-24.31
-27.03
-29.19
-30.81
-31.74
-31.78
-30.99
-29.64
-28.11
-26.69
-25.42
-24.14
-22.70
-21.14
-19.71
-18.76
-18.54
-18.97
-19.73
-20.37
-20.53
-20.13
-19.38
-18.60
-18.11
-17.94
-17.98
-17.97
-17.78
-17.42
-17.14
-17.13
-17.46
-17.91
-18.11
-17.69
-16.47
-14.55
-12.21
-9.80
-7.58
-5.69
-4.15
-2.87
-1.78
-0.79
0.17
1.15
2.22
3.40
4.59
5.67
6.50
6.98
7.15
7.10
6.96
6.80
6.63
6.41
6.14
5.83
5.53
5.21
4.73
3.95
2.73
1.09
-0.81
-2.72
-4.39
-5.65
-6.44
-6.74
-6.56
-5.90
-4.79
-3.34
-1.76
-0.37
0.55
0.83
0.54
-0.08
-0.61
-0.70
-0.22
0.71
1.79
2.66
3.07
2.93
2.30
1.38
0.39
-0.46
-1.08
-1.44
-1.52
-1.24
-0.36
1.37
4.09
7.67
11.57
15.05
17.41
18.25
17.62
15.94
13.72
11.32
8.84
6.16
3.20
0.09
-2.82
-5.04
-6.21
-6.29
-5.59
-4.64
-3.92
-3.69
-3.90
-4.20
-4.21
-3.62
-2.36
-0.55
1.50
3.41
4.81
5.44
5.18
4.12
2.52
0.70
-1.09
-2.75
-4.38
-6.11
-8.07
-10.21
-12.39
-14.40
-16.14
-17.65
-19.09
-20.70
-22.63
-24.81
-26.92
-28.48
-29.01
-28.27
-26.34
-23.58
-20.42
-17.21
-14.03
-10.75
-7.15
-3.10
1.33
5.92
10.41
14.64
18.49
21.94
25.00
27.72
30.28
32.98
36.09
39.80
44.04
48.42
52.22
54.57
54.72
52.35
47.79
42.01
36.33
31.94
29.43
28.64
28.70
28.51
27.17
24.26
19.82
14.20
7.78
0.94
-5.96
-12.45
-18.02
-22.22
-24.88
-26.17
-26.52
-26.52
-26.56
-26.78
-27.00
-26.90
-26.26
-25.09
-23.66
-22.35
-21.45
-20.98
-20.70
-20.28
-19.39
-17.93
-15.94
-13.53
-10.79
-7.84
-4.82
-2.00
0.27
1.68
2.15
1.83
1.13
0.49
0.22
0.41
0.96
1.70
2.52
3.37
4.19
4.90
5.30
5.24
4.69
3.78
2.79
1.99
1.51
1.23
0.81
-0.06
-1.48
-3.27
-5.03
-6.45
-7.44
-8.23
-9.21
-10.67
-12.63
-14.81
-16.86
-18.57
-19.98
-21.38
-23.00
-24.92
-26.93
-28.67
-29.85
-30.39
-30.44
-30.25
-30.00
-29.71
-29.23
-28.34
-26.93
-25.05
-22.95
-20.95
-19.29
-18.00
-16.89
-15.61
-13.80
-11.28
-8.08
-4.43
-0.66
2.91
6.06
8.76
11.15
13.46
15.88
18.53
21.35
24.13
26.57
28.54
30.02
31.27
32.68
34.54
37.07
40.32
44.11
47.96
51.08
52.45
51.21
47.06
40.54
32.99
26.00
20.88
18.07
17.17
17.14
16.99
16.09
14.27
11.61
8.23
4.15
-0.56
-5.64
-10.54
-14.64
-17.41
-18.77
-18.99
-18.72
-18.65
-19.24
-20.71
-22.89
-25.41
-27.81
-29.65
-30.66
-30.76
-30.14
-29.07
-27.82
-26.53
-25.08
-23.24
-20.79
-17.66
-14.03
-10.18
-6.38
-2.75
0.76
4.32
8.07
12.02
16.07
20.04
23.77
27.15
30.13
32.71
34.79
36.20
36.66
35.89
33.64
29.88
24.78
18.73
12.25
5.86
-0.04
-5.20
-9.47
-12.85
-15.37
-17.15
-18.30
-18.93
-19.10
-18.76
-17.88
-16.47
-14.76
-13.16
-12.18
-12.21
-13.31
-15.21
-17.41
-19.43
-20.97
-21.98
-22.53
-22.64
-22.29
-21.41
-19.98
-18.17
-16.15
-14.08
-11.95
-9.58
-6.80
-3.54
0.09
3.86
7.58
11.15
14.61
17.98
21.08
23.59
25.05
25.14
23.78
21.18
17.73
13.80
9.56
4.99
-0.07
-5.79
-12.16
-18.98
-25.85
-32.35
-38.15
-43.09
-47.11
-50.12
-51.90
-52.09
-50.29
-46.27
-40.07
-32.05
-22.77
-12.87
-2.96
6.46
14.90
21.97
27.40
31.08
33.11
33.70
33.11
31.57
29.31
26.57
23.60
20.66
17.90
15.34
12.90
10.46
7.99
5.51
3.09
0.86
-1.06
-2.60
-3.69
-4.33
-4.51
-4.34
-3.93
-3.45
-3.06
-2.84
-2.79
-2.77
-2.56
-1.93
-0.72
1.13
3.49
6.14
8.77
11.13
13.09
14.57
15.60
16.25
16.50
16.32
15.65
14.43
12.70
10.58
8.26
5.94
3.74
1.75
0.01
-1.48
-2.70
-3.67
-4.49
-5.24
-6.01
-6.76
-7.35
-7.60
-7.35
-6.50
-5.05
-3.09
-0.72
1.92
4.63
7.27
9.74
12.12
14.56
17.32
20.53
24.15
27.87
31.22
33.70
34.88
34.54
32.65
29.36
24.95
19.80
14.36
9.01
4.09
-0.20
-3.80
-6.73
-9.04
-10.76
-11.88
-12.43
-12.51
-12.32
-12.13
-12.14
-12.35
-12.63
-12.68
-12.25
-11.24
-9.78
-8.18
-6.86
-6.20
-6.42
-7.52
-9.26
-11.24
-13.01
-14.19
-14.53
-13.94
-12.45
-10.23
-7.50
-4.59
-1.92
0.11
1.21
1.37
0.88
0.17
-0.33
-0.43
-0.26
-0.19
-0.66
-1.98
-4.23
-7.19
-10.37
-13.12
-14.76
-14.78
-13.06
-9.92
-6.09
-2.39
0.54
2.51
3.77
4.83
6.17
7.99
10.20
12.52
14.72
16.73
18.65
20.66
22.90
25.43
28.23
31.22
34.16
36.67
38.24
38.34
36.72
33.54
29.43
25.25
21.81
19.55
18.41
17.95
17.50
16.44
14.28
10.81
6.10
0.53
-5.30
-10.67
-15.02
-18.06
-19.86
-20.71
-20.96
-20.90
-20.66
-20.35
-20.03
-19.83
-19.83
-20.03
-20.28
-20.38
-20.15
-19.55
-18.72
-17.86
-17.13
-16.49
-15.79
-14.84
-13.54
-11.98
-10.39
-9.00
-7.93
-7.17
-6.60
-6.11
-5.67
-5.29
-4.99
-4.66
-4.12
-3.19
-1.81
-0.14
1.53
2.85
3.62
3.78
3.52
3.13
2.94
3.20
4.01
5.31
6.83
8.29
9.39
10.06
10.45
10.91
11.85
13.52
15.90
18.70
21.47
23.83
25.63
27.02
28.31
29.76
31.41
33.03
34.23
34.67
34.13
32.55
29.97
26.41
21.93
16.67
10.96
5.36
0.48
-3.16
-5.37
-6.31
-6.40
-6.19
-6.22
-6.91
-8.55
-11.23
-14.84
-19.05
-23.39
-27.37
-30.59
-32.82
-33.97
-34.19
-33.77
-33.16
-32.84
-33.10
-33.85
-34.54
-34.31
-32.30
-27.96
-21.19
-12.38
-2.23
8.39
18.51
27.22
33.75
37.67
39.08
38.50
36.71
34.36
31.73
28.67
24.82
19.87
13.81
6.97
-0.05
-6.54
-11.80
-15.30
-16.82
-16.58
-15.06
-12.97
-10.90
-9.12
-7.44
-5.19
-1.51
4.39
12.92
23.87
36.35
48.92
59.99
68.27
73.33
75.75
76.77
77.64
78.91
80.02
79.59
76.14
68.90
58.18
45.18
31.44
18.15
5.84
-5.55
-16.21
-26.14
-35.05
-42.55
-48.37
-52.50
-55.17
-56.63
-57.05
-56.42
-54.68
-51.78
-47.89
-43.33
-38.57
-34.00
-29.87
-26.20
-22.90
-19.90
-17.23
-14.95
-13.13
-11.77
-10.89
-10.63
-11.26
-13.06
-16.00
-19.58
-22.79
-24.55
-24.09
-21.45
-17.42
-13.13
-9.56
-7.10
-5.54
-4.41
-3.42
-2.67
-2.55
-3.42
-5.26
-7.68
-10.10
-12.14
-13.85
-15.65
-18.01
-21.14
-24.79
-28.34
-31.06
-32.45
-32.37
-31.09
-29.22
-27.49
-26.58
-26.85
-28.22
-29.93
-30.73
-29.19
-24.26
-15.78
-4.71
7.08
17.35
24.23
26.89
25.79
22.53
19.34
18.23
20.31
25.40
32.16
38.68
43.16
44.54
42.65
38.06
31.62
24.14
16.23
8.43
1.30
-4.50
-8.45
-10.31
-10.25
-8.85
-6.83
-4.78
-3.01
-1.51
-0.10
1.38
2.98
4.56
5.85
6.59
6.63
6.00
4.90
3.63
2.44
1.36
0.15
-1.66
-4.45
-8.20
-12.31
-15.70
-17.16
-15.97
-12.22
-6.87
-1.38
2.83
4.85
4.43
1.90
-2.11
-6.85
-11.67
-15.96
-19.29
-21.38
-22.19
-21.98
-21.17
-20.23
-19.58
-19.49
-20.12
-21.48
-23.50
-25.93
-28.41
-30.44
-31.56
-31.45
-30.05
-27.62
-24.61
-21.43
-18.19
-14.59
-10.00
-3.75
4.50
14.52
25.46
35.99
44.51
49.43
49.42
43.80
32.92
18.50
3.41
-8.98
-15.79
-15.75
-9.57
0.26
10.53
18.46
22.56
22.72
19.81
14.93
8.95
2.34
-4.58
-11.37
-17.31
-21.62
-23.73
-23.51
-21.36
-17.91
-13.78
-9.27
-4.40
0.95
6.77
12.89
19.00
24.78
30.03
34.66
38.66
41.96
44.40
45.69
45.49
43.44
39.34
33.21
25.42
16.61
7.56
-1.00
-8.61
-15.08
-20.47
-24.93
-28.65
-31.80
-34.63
-37.39
-40.24
-43.17
-45.99
-48.43
-50.32
-51.64
-52.55
-53.19
-53.57
-53.51
-52.79
-51.29
-49.15
-46.71
-44.38
-42.36
-40.65
-39.11
-37.70
-36.74
-36.81
-38.52
-42.03
-46.82
-51.65
-54.90
-55.21
-52.04
-45.88
-37.94
-29.41
-20.69
-11.11
0.74
16.14
35.43
57.65
80.71
102.16
119.73
131.58
136.32
133.05
121.65
103.31
80.85
58.40
40.37
30.07
28.70
35.17
46.79
60.57
74.31
87.17
99.44
111.88
124.94
138.30
150.86
161.09
167.52
169.10
165.53
157.17
144.80
129.42
111.96
93.30
74.23
55.59
38.13
22.39
8.54
-3.65
-14.62
-24.76
-34.24
-43.06
-51.40
-59.75
-68.84
-79.11
-90.25
-101.02
-109.56
-114.15
-113.97
-109.37
-101.69
-92.54
-83.23
-74.42
-66.27
-58.72
-51.69
-45.24
-39.44
-34.31
-29.78
-25.70
-21.97
-18.46
-15.17
-12.25
-10.15
-9.45
-10.71
-13.98
-18.64
-23.49
-27.20
-29.00
-28.98
-27.90
-26.69
-25.84
-25.09
-23.85
-21.74
-19.11
-17.14
-17.30
-20.57
-26.90
-35.06
-43.13
-49.30
-52.51
-52.81
-51.19
-49.06
-47.60
-47.36
-48.17
-49.37
-50.25
-50.35
-49.51
-47.77
-44.99
-40.81
-34.69
-26.27
-15.67
-3.68
8.52
19.79
29.48
37.70
45.14
52.56
60.36
68.26
75.46
80.97
84.06
84.41
82.12
77.56
71.23
63.59
55.01
45.77
36.06
26.13
16.31
7.01
-1.42
-8.82
-15.23
-20.71
-25.14
-28.13
-29.27
-28.44
-26.06
-23.03
-20.29
-18.41
-17.33
-16.55
-15.61
-14.45
-13.50
-13.30
-14.15
-15.91
-18.07
-20.04
-21.43
-22.06
-21.87
-20.90
-19.30
-17.40
-15.67
-14.57
-14.26
-14.51
-14.79
-14.53
-13.42
-11.53
-9.22
-6.90
-4.89
-3.29
-2.06
-1.18
-0.65
-0.52
-0.80
-1.40
-2.14
-2.76
-3.00
-2.69
-1.72
-0.17
1.74
3.70
5.33
6.28
6.43
5.82
4.74
3.54
2.55
1.87
1.44
1.11
0.81
0.61
0.68
1.18
2.03
3.01
3.80
4.21
4.25
4.15
4.17
4.49
5.12
5.90
6.66
7.28
7.70
7.93
7.93
7.62
6.94
5.82
4.32
2.60
0.86
-0.65
-1.80
-2.53
-2.93
-3.17
-3.39
-3.68
-4.07
-4.54
-5.12
-5.85
-6.78
-7.89
-9.08
-10.23
-11.31
-12.36
-13.56
-14.99
-16.62
-18.27
-19.66
-20.63
-21.21
-21.64
-22.28
-23.42
-25.20
-27.55
-30.26
-33.08
-35.84
-38.52
-41.24
-44.23
-47.73
-51.95
-56.97
-62.67
-68.79
-74.96
-80.89
-86.44
-91.79
-97.32
-103.50
-110.72
-118.94
-127.57
-135.62
-141.89
-145.35
-145.39
-141.75
-134.39
-123.29
-108.35
-89.38
-66.14
-38.34
-5.78
31.43
72.60
116.37
160.74
203.39
242.20
275.66
302.96
323.87
338.51
347.20
350.50
349.32
344.92
338.69
331.90
325.36
319.31
313.47
307.20
299.59
289.66
276.71
260.55
241.72
221.37
200.76
180.64
160.67
139.49
115.32
86.80
53.71
17.09
-21.04
-58.37
-92.90
-123.23
-148.63
-168.78
-183.73
-193.68
-198.97
-200.05
-197.49
-192.01
-184.50
-175.82
-166.59
-156.92
-146.51
-135.05
-122.77
-110.74
-100.59
-93.86
-91.30
-92.71
-97.23
-103.83
-111.56
-119.42
-126.03
-129.63
-128.63
-122.40
-111.82
-99.07
-86.61
-76.04
-67.51
-59.98
-52.16
-43.39
-33.92
-24.61
-16.28
-9.28
-3.55
1.09
4.63
6.87
7.75
7.56
6.96
6.61
6.82
7.35
7.57
6.86
4.88
1.68
-2.47
-7.34
-12.78
-18.52
-24.05
-28.56
-31.34
-32.30
-32.18
-32.35
-34.06
-37.74
-42.67
-47.40
-50.52
-51.34
-49.97
-46.87
-42.29
-35.92
-27.19
-15.89
-2.65
11.01
23.30
32.77
38.79
41.36
40.62
36.44
28.31
15.90
-0.33
-18.59
-36.05
-49.57
-56.93
-57.66
-53.25
-46.48
-40.33
-36.82
-36.50
-38.55
-41.45
-43.62
-43.95
-42.01
-37.89
-32.06
-25.17
-17.89
-10.83
-4.36
1.48
6.96
12.51
18.47
24.86
31.37
37.37
42.25
45.52
47.02
46.79
45.01
41.81
37.33
31.79
25.58
19.32
13.62
9.02
5.72
3.64
2.47
1.91
1.72
1.83
2.24
2.94
3.90
5.08
6.52
8.40
10.99
14.56
19.29
25.10
31.56
37.96
43.51
47.45
49.32
48.98
46.50
42.06
35.83
28.02
19.01
9.49
0.43
-7.22
-12.90
-16.72
-19.41
-21.90
-24.83
-28.10
-30.96
-32.44
-31.90
-29.52
-26.28
-23.57
-22.64
-24.14
-27.97
-33.44
-39.73
-46.08
-52.06
-57.45
-62.08
-65.72
-68.04
-68.69
-67.42
-64.16
-59.09
-52.48
-44.61
-35.66
-25.74
-15.01
-3.81
7.33
17.74
26.75
33.79
38.34
39.84
37.77
31.80
22.30
10.59
-1.09
-10.15
-14.58
-13.74
-8.60
-1.28
5.97
11.60
15.15
16.92
17.30
16.25
13.29
7.95
0.34
-8.51
-16.87
-22.96
-25.51
-24.28
-19.89
-13.47
-6.12
1.46
9.02
16.54
23.93
30.90
36.94
41.53
44.28
45.03
43.72
40.44
35.37
28.91
21.75
14.72
8.68
4.19
1.31
-0.29
-1.02
-1.02
-0.16
1.83
4.94
8.68
12.20
14.64
15.52
14.77
12.72
9.70
5.92
1.42
-3.66
-8.85
-13.31
-15.97
-15.99
-13.02
-7.42
-0.15
7.43
13.99
18.54
20.73
20.96
20.19
19.60
20.15
22.25
25.69
29.83
33.96
37.54
40.34
42.44
44.14
45.76
47.48
49.08
49.74
48.14
42.89
33.40
20.58
7.06
-3.50
-7.80
-4.38
5.52
18.34
29.53
35.36
34.15
26.51
14.69
1.24
-11.87
-23.70
-34.02
-42.75
-49.56
-53.84
-55.17
-53.62
-49.94
-45.33
-40.84
-36.89
-33.03
-28.32
-21.96
-13.99
-5.40
2.44
8.52
12.87
16.41
20.29
25.01
30.03
34.00
35.60
34.27
30.50
25.46
20.30
15.63
11.50
7.74
4.33
1.42
-0.99
-3.31
-6.26
-10.43
-15.69
-21.00
-24.69
-25.28
-22.21
-16.15
-8.80
-2.07
2.66
4.97
5.20
4.06
2.11
-0.37
-3.26
-6.28
-8.87
-10.36
-10.24
-8.50
-5.65
-2.47
0.34
2.55
4.41
6.45
9.07
12.22
15.28
17.35
17.57
15.54
11.49
6.27
1.07
-2.85
-4.48
-3.29
0.64
6.62
13.38
19.31
22.79
22.64
18.55
11.34
2.83
-4.64
-8.94
-8.89
-4.65
2.37
10.00
16.08
19.08
18.39
14.25
7.52
-0.63
-8.96
-16.33
-21.76
-24.52
-24.25
-20.96
-15.02
-7.04
2.22
12.01
21.60
30.45
38.13
44.38
49.00
51.75
52.31
50.38
45.86
39.09
30.88
22.40
14.78
8.65
4.01
0.24
-3.54
-7.92
-12.96
-18.13
-22.57
-25.47
-26.35
-25.16
-22.22
-18.08
-13.34
-8.56
-4.07
-0.01
3.67
7.11
10.42
13.57
16.42
18.82
20.74
22.40
24.15
26.36
29.16
32.30
35.26
37.34
37.91
36.67
33.70
29.53
24.95
20.91
18.26
17.49
18.70
21.52
25.25
28.99
31.95
33.76
34.65
35.37
36.91
39.90
44.24
48.93
52.54
53.74
51.98
47.72
42.11
36.45
31.56
27.52
23.79
19.65
14.63
8.71
2.28
-4.08
-9.81
-14.52
-18.02
-20.28
-21.31
-21.15
-19.89
-17.80
-15.41
-13.56
-13.16
-14.94
-19.15
-25.38
-32.69
-39.96
-46.26
-51.12
-54.56
-56.92
-58.63
-59.99
-61.15
-62.15
-62.94
-63.39
-63.19
-61.84
-58.84
-53.90
-47.22
-39.55
-32.04
-25.75
-21.36
-18.84
-17.60
-16.77
-15.64
-13.89
-11.65
-9.36
-7.56
-6.72
-7.08
-8.50
-10.41
-11.89
-11.91
-9.76
-5.36
0.59
6.82
11.90
14.70
14.62
11.59
5.92
-1.88
-11.17
-21.16
-30.88
-39.20
-44.95
-47.08
-44.84
-37.89
-26.55
-11.79
4.79
21.27
35.88
47.45
55.75
61.41
65.56
69.24
72.99
76.62
79.41
80.48
79.23
75.56
69.85
62.72
54.83
46.75
38.95
31.72
25.20
19.22
13.41
7.38
0.94
-5.59
-11.48
-15.78
-17.78
-17.26
-14.63
-10.83
-7.13
-4.84
-5.03
-8.30
-14.48
-22.60
-31.19
-38.67
-44.00
-46.89
-47.79
-47.50
-46.74
-45.93
-45.11
-44.24
-43.31
-42.36
-41.49
-40.68
-39.91
-39.13
-38.40
-37.83
-37.47
-37.24
-36.83
-35.79
-33.64
-30.03
-24.82
-18.22
-10.78
-3.22
3.77
9.84
15.11
20.08
25.32
31.13
37.25
42.97
47.38
49.79
50.01
48.34
45.29
41.34
36.74
31.57
25.86
19.83
13.88
8.49
4.03
0.64
-1.82
-3.64
-5.13
-6.48
-7.72
-8.70
-9.24
-9.17
-8.46
-7.24
-5.82
-4.57
-3.83
-3.71
-4.11
-4.74
-5.30
-5.59
-5.58
-5.41
-5.15
-4.81
-4.24
-3.31
-1.98
-0.42
1.07
2.23
2.95
3.30
3.50
3.71
4.03
4.46
4.98
5.68
6.69
8.14
9.99
11.97
13.62
14.43
14.12
12.69
10.48
8.04
5.88
4.33
3.48
3.19
3.26
3.46
3.61
3.58
3.26
2.60
1.60
0.37
-0.92
-2.06
-2.92
-3.44
-3.68
-3.76
-3.87
-4.22
-5.01
-6.35
-8.23
-10.52
-12.92
-15.18
-17.10
-18.63
-19.83
-20.82
-21.71
-22.64
-23.70
-24.95
-26.32
-27.61
-28.47
-28.53
-27.55
-25.56
-22.80
-19.65
-16.45
-13.38
-10.46
-7.59
-4.67
-1.67
1.35
4.31
7.12
9.70
12.06
14.20
16.18
18.00
19.59
20.75
21.24
20.89
19.77
18.13
16.40
14.91
13.81
12.99
12.19
11.16
9.78
8.15
6.45
4.88
3.51
2.34
1.33
0.46
-0.21
-0.65
-0.86
-0.96
-1.17
-1.70
-2.72
-4.19
-5.89
-7.53
-8.81
-9.61
-9.98
-10.12
-10.19
-10.25
-10.17
-9.73
-8.77
-7.28
-5.38
-3.30
-1.20
0.83
2.77
4.59
6.20
7.46
8.23
8.49
8.30
7.83
7.24
6.66
6.19
5.85
5.67
5.63
5.69
5.79
5.83
5.75
5.52
5.19
4.78
4.36
3.95
3.60
3.34
3.24
3.30
3.50
3.71
3.77
3.58
3.12
2.48
1.84
1.32
0.94
0.58
0.05
-0.77
-1.79
-2.85
-3.64
-3.99
-3.91
-3.59
-3.33
-3.33
-3.66
-4.20
-4.74
-5.08
-5.11
-4.82
-4.25
-3.44
-2.47
-1.44
-0.49
0.21
0.59
0.66
0.58
0.54
0.73
1.24
2.06
3.05
4.03
4.83
5.28
5.30
4.93
4.32
3.68
3.15
2.77
2.45
2.07
1.52
0.78
-0.10
-1.02
-1.91
-2.75
-3.52
-4.24
-4.91
-5.58
-6.28
-7.04
-7.85
-8.65
-9.35
-9.85
-10.13
-10.19
-10.01
-9.58
-8.78
-7.54
-5.80
-3.62
-1.14
1.41
3.79
5.80
7.33
8.37
8.99
9.39
9.78
10.33
11.11
12.01
12.77
13.11
12.85
12.00
10.78
9.48
8.31
7.30
6.38
5.42
4.42
3.52
2.89
2.64
2.70
2.88
2.94
2.71
2.12
1.18
-0.07
-1.58
-3.30
-5.14
-6.93
-8.50
-9.67
-10.37
-10.67
-10.77
-10.91
-11.26
-11.86
-12.54
-13.06
-13.10
-12.51
-11.25
-9.52
-7.52
-5.46
-3.44
-1.52
0.25
1.72
2.71
3.11
2.91
2.31
1.58
1.02
0.89
1.40
2.71
4.92
8.02
11.82
15.84
19.46
22.03
23.10
22.52
20.49
17.45
13.98
10.67
8.00
6.25
5.40
5.14
4.92
4.17
2.50
-0.21
-3.75
-7.73
-11.66
-15.07
-17.56
-18.87
-18.93
-17.96
-16.38
-14.77
-13.59
-13.05
-12.98
-12.98
-12.63
-11.68
-10.18
-8.35
-6.45
-4.61
-2.81
-1.02
0.73
2.22
3.04
2.76
1.05
-2.05
-6.16
-10.54
-14.30
-16.66
-17.13
-15.66
-12.64
-8.69
-4.48
-0.59
2.62
4.99
6.64
7.89
9.24
11.18
13.96
17.44
21.05
23.96
25.41
24.99
22.74
19.12
14.77
10.30
6.20
2.74
0.08
-1.81
-3.04
-3.84
-4.46
-5.08
-5.84
-6.76
-7.75
-8.62
-9.08
-8.84
-7.69
-5.71
-3.26
-0.91
0.78
1.45
1.16
0.30
-0.60
-1.05
-0.84
-0.04
1.07
2.22
3.21
4.03
4.79
5.64
6.62
7.68
8.63
9.25
9.31
8.66
7.21
5.00
2.19
-0.90
-3.92
-6.51
-8.44
-9.66
-10.18
-10.08
-9.35
-7.91
-5.71
-2.79
0.58
3.91
6.56
7.88
7.42
5.05
1.07
-3.83
-8.77
-12.93
-15.73
-16.86
-16.29
-14.11
-10.54
-5.93
-0.77
4.43
9.18
13.21
16.38
18.59
19.73
19.59
18.02
15.11
11.25
7.09
3.26
0.17
-2.16
-4.02
-5.80
-7.82
-10.15
-12.54
-14.53
-15.55
-15.23
-13.54
-10.93
-8.23
-6.44
-6.36
-8.31
-11.98
-16.56
-21.01
-24.39
-26.14
-26.16
-24.67
-22.02
-18.45
-14.04
-8.71
-2.41
4.92
13.31
22.76
33.18
44.02
54.13
61.82
65.32
63.53
56.57
45.87
33.62
21.89
11.98
4.17
-1.91
-6.77
-10.66
-13.57
-15.42
-16.36
-16.75
-16.98
-17.18
-17.24
-16.81
-15.57
-13.54
-11.06
-8.68
-6.99
-6.29
-6.58
-7.51
-8.57
-9.32
-9.53
-9.22
-8.60
-8.00
-7.64
-7.68
-8.07
-8.64
-9.14
-9.33
-8.96
-7.92
-6.16
-3.77
-1.03
1.61
3.57
4.20
3.02
-0.03
-4.50
-9.37
-13.36
-15.23
-14.23
-10.28
-4.06
3.16
9.86
14.70
16.83
16.13
13.14
8.91
4.55
0.97
-1.30
-2.09
-1.52
0.16
2.54
5.12
7.27
8.41
8.18
6.61
4.14
1.44
-0.78
-2.09
-2.41
-2.02
-1.37
-0.92
-0.97
-1.58
-2.59
-3.72
-4.66
-5.20
-5.30
-5.08
-4.75
-4.51
-4.45
-4.46
-4.32
-3.77
-2.70
-1.24
0.25
1.32
1.62
1.08
-0.04
-1.33
-2.33
-2.80
-2.81
-2.60
-2.48
-2.60
-2.90
-3.17
-3.18
-2.80
-2.11
-1.32
-0.69
-0.39
-0.46
-0.74
-1.04
-1.09
-0.65
0.50
2.52
5.43
8.97
12.63
15.78
17.83
18.57
18.19
17.20
16.13
15.27
14.48
13.30
11.28
8.21
4.30
0.07
-3.80
-6.73
-8.42
-8.86
-8.29
-7.12
-5.76
-4.61
-3.95
-3.92
-4.49
-5.46
-6.50
-7.30
-7.66
-7.63
-7.43
-7.40
-7.75
-8.44
-9.23
-9.73
-9.61
-8.78
-7.31
-5.39
-3.21
-0.90
1.37
3.36
4.77
5.37
5.20
4.60
4.10
4.23
5.22
6.95
8.97
10.72
11.81
12.09
11.68
10.83
9.79
8.73
7.70
6.67
5.58
4.42
3.25
2.14
1.15
0.25
-0.67
-1.75
-3.08
-4.63
-6.30
-7.91
-9.28
-10.27
-10.79
-10.80
-10.28
-9.22
-7.72
-5.98
-4.29
-2.93
-2.14
-1.99
-2.36
-2.98
-3.51
-3.65
-3.15
-1.80
0.54
3.98
8.44
13.61
18.90
23.48
26.60
27.79
27.01
24.60
21.02
16.78
12.24
7.78
3.82
0.73
-1.28
-2.42
-3.23
-4.31
-5.97
-7.99
-9.71
-10.44
-9.85
-8.19
-6.10
-4.29
-3.18
-2.79
-2.85
-3.04
-3.17
-3.16
-3.02
-2.85
-2.72
-2.79
-3.11
-3.62
-4.10
-4.27
-3.97
-3.36
-2.92
-3.26
-4.78
-7.53
-11.14
-14.97
-18.40
-20.90
-22.06
-21.54
-19.22
-15.48
-11.52
-9.18
-10.34
-15.94
-25.22
-35.62
-43.53
-45.62
-40.06
-27.17
-9.17
10.61
28.78
42.63
50.55
52.14
48.10
40.06
30.23
20.94
14.12
10.91
11.54
15.43
21.46
28.27
34.48
38.94
40.83
39.82
36.07
30.18
23.05
15.61
8.71
2.87
-1.75
-5.33
-8.30
-11.05
-13.79
-16.38
-18.39
-19.36
-18.97
-17.32
-14.86
-12.26
-10.09
-8.64
-7.88
-7.60
-7.63
-8.00
-8.82
-10.20
-12.05
-14.06
-15.82
-16.97
-17.32
-16.85
-15.69
-14.03
-12.12
-10.25
-8.80
-8.11
-8.43
-9.69
-11.55
-13.42
-14.75
-15.17
-14.60
-13.18
-11.14
-8.63
-5.71
-2.44
1.07
4.56
7.68
10.12
11.66
12.25
11.95
10.92
9.33
7.39
5.34
3.41
1.81
0.70
0.11
0.02
0.28
0.70
1.02
0.93
0.28
-0.98
-2.69
-4.60
-6.44
-8.01
-9.16
-9.81
-9.84
-9.13
-7.63
-5.40
-2.75
-0.10
2.05
3.37
3.77
3.44
2.71
1.98
1.52
1.44
1.73
2.27
2.95
3.68
4.47
5.28
6.09
6.75
7.11
6.96
6.22
4.95
3.40
1.90
0.74
0.08
-0.19
-0.23
-0.26
-0.38
-0.61
-0.91
-1.25
-1.67
-2.16
-2.70
-3.19
-3.44
-3.29
-2.66
-1.59
-0.28
0.95
1.77
1.89
1.28
0.13
-1.18
-2.19
-2.60
-2.39
-1.81
-1.24
-1.01
-1.23
-1.78
-2.45
-2.99
-3.31
-3.43
-3.49
-3.61
-3.78
-3.93
-3.92
-3.64
-3.08
-2.30
-1.38
-0.38
0.70
1.83
2.96
3.91
4.51
4.62
4.18
3.36
2.41
1.61
1.12
0.92
0.90
0.87
0.72
0.46
0.21
0.11
0.25
0.58
0.98
1.25
1.25
0.94
0.39
-0.26
-0.89
-1.44
-1.93
-2.37
-2.78
-3.09
-3.20
-3.00
-2.43
-1.50
-0.28
1.07
2.32
3.23
3.58
3.31
2.57
1.67
0.97
0.72
0.94
1.41
1.80
1.85
1.54
1.01
0.56
0.39
0.53
0.84
1.07
1.01
0.60
-0.07
-0.79
-1.35
-1.64
-1.72
-1.73
-1.84
-2.15
-2.62
-3.11
-3.49
-3.60
-3.36
-2.69
-1.59
-0.12
1.47
2.84
3.61
3.50
2.51
0.95
-0.68
-1.87
-2.24
-1.73
-0.60
0.75
1.90
2.56
2.67
2.35
1.87
1.47
1.31
1.40
1.60
1.74
1.69
1.42
0.99
0.51
0.02
-0.50
-1.10
-1.79
-2.49
-3.07
-3.36
-3.25
-2.75
-1.99
-1.10
-0.25
0.46
0.96
1.17
1.07
0.71
0.24
-0.21
-0.51
-0.65
-0.68
-0.64
-0.59
-0.54
-0.51
-0.54
-0.68
-0.93
-1.24
-1.50
-1.58
-1.46
-1.22
-1.01
-0.99
-1.22
-1.64
-2.16
-2.65
-3.05
-3.31
-3.40
-3.25
-2.76
-1.86
-0.58
0.98
2.59
4.06
5.24
6.10
6.68
7.06
7.31
7.47
7.56
7.61
7.63
7.61
7.53
7.31
6.92
6.33
5.52
4.52
3.34
2.03
0.67
-0.68
-1.94
-3.14
-4.37
-5.72
-7.23
-8.85
-10.40
-11.66
-12.51
-12.95
-13.08
-13.08
-13.08
-13.16
-13.39
-13.80
-14.48
-15.51
-16.91
-18.60
-20.38
-22.03
-23.38
-24.43
-25.34
-26.35
-27.66
-29.33
-31.18
-32.94
-34.27
-34.90
-34.66
-33.46
-31.28
-28.13
-24.08
-19.24
-13.76
-7.74
-1.29
5.52
12.56
19.54
26.07
31.71
36.09
39.06
40.70
41.30
41.13
40.42
39.25
37.65
35.63
33.30
30.82
28.38
26.11
24.04
22.10
20.22
18.31
16.40
14.61
13.11
12.01
11.33
10.94
10.60
10.03
9.07
7.74
6.21
4.74
3.50
2.56
1.85
1.32
0.94
0.76
0.83
1.07
1.32
1.38
1.16
0.79
0.45
0.36
0.54
0.84
1.03
0.96
0.67
0.34
0.20
0.35
0.71
1.12
1.39
1.44
1.31
1.04
0.66
0.17
-0.49
-1.34
-2.32
-3.35
-4.33
-5.15
-5.75
-6.07
-6.10
-5.87
-5.47
-5.01
-4.63
-4.41
-4.40
-4.57
-4.85
-5.21
-5.61
-6.05
-6.55
-7.11
-7.73
-8.39
-9.10
-9.92
-10.91
-12.11
-13.43
-14.71
-15.71
-16.28
-16.44
-16.42
-16.55
-17.11
-18.11
-19.26
-20.07
-20.05
-18.89
-16.47
-12.88
-8.29
-2.96
2.77
8.51
13.85
18.54
22.49
25.80
28.63
31.00
32.77
33.66
33.51
32.38
30.59
28.52
26.46
24.44
22.30
19.93
17.31
14.65
12.18
10.02
8.13
6.33
4.47
2.47
0.46
-1.36
-2.76
-3.59
-3.72
-3.03
-1.40
1.19
4.52
8.14
11.35
13.41
13.78
12.26
9.10
4.92
0.49
-3.48
-6.55
-8.59
-9.79
-10.44
-10.82
-11.10
-11.30
-11.40
-11.42
-11.41
-11.49
-11.72
-12.08
-12.47
-12.75
-12.83
-12.72
-12.43
-11.96
-11.21
-10.03
-8.26
-5.92
-3.13
0.00
3.41
7.19
11.52
16.42
21.65
26.72
31.03
34.13
35.83
36.22
35.53
34.06
32.18
30.37
29.15
28.93
29.71
30.95
31.62
30.71
27.75
23.20
18.33
14.65
13.19
14.03
16.30
18.60
19.72
19.08
16.81
13.42
9.33
4.56
-1.19
-8.24
-16.55
-25.53
-34.15
-41.22
-45.75
-47.16
-45.35
-40.72
-34.01
-26.35
-19.02
-13.27
-10.01
-9.45
-11.01
-13.47
-15.41
-15.77
-14.17
-10.93
-6.81
-2.60
1.08
3.86
5.44
5.56
4.00
0.81
-3.58
-8.38
-12.66
-15.78
-17.59
-18.47
-19.12
-20.19
-22.03
-24.56
-27.33
-29.67
-30.90
-30.57
-28.52
-25.06
-20.85
-16.76
-13.61
-11.86
-11.53
-12.22
-13.36
-14.48
-15.38
-16.20
-17.25
-18.83
-21.01
-23.56
-25.97
-27.62
-27.95
-26.73
-24.01
-20.17
-15.65
-10.81
-5.74
-0.24
6.01
13.29
21.66
30.79
39.95
48.04
53.83
56.37
55.35
51.31
45.51
39.46
34.33
30.52
27.60
24.68
21.01
16.31
10.89
5.31
0.03
-4.91
-9.71
-14.64
-19.62
-24.17
-27.56
-29.13
-28.62
-26.39
-23.19
-19.90
-17.24
-15.57
-14.89
-14.96
-15.45
-16.02
-16.32
-16.03
-14.91
-12.91
-10.22
-7.19
-4.20
-1.44
1.19
3.99
7.33
11.34
15.91
20.64
25.07
28.81
31.63
33.40
33.98
33.26
31.18
27.92
23.87
19.59
15.57
12.17
9.51
7.57
6.30
5.54
5.08
4.55
3.52
1.74
-0.76
-3.55
-6.03
-7.65
-8.17
-7.74
-6.82
-5.98
-5.62
-5.89
-6.68
-7.76
-8.88
-9.95
-10.97
-12.00
-13.02
-13.87
-14.31
-14.18
-13.50
-12.54
-11.67
-11.16
-10.96
-10.81
-10.35
-9.32
-7.81
-6.13
-4.73
-3.88
-3.62
-3.65
-3.54
-2.88
-1.39
1.02
4.35
8.56
13.51
18.92
24.21
28.54
31.01
31.05
28.71
24.73
20.24
16.25
13.23
11.05
9.18
7.15
4.77
2.14
-0.56
-3.30
-6.20
-9.35
-12.61
-15.52
-17.56
-18.35
-17.97
-16.81
-15.51
-14.55
-14.15
-14.14
-14.09
-13.47
-11.85
-9.01
-5.06
-0.45
4.24
8.40
11.67
13.95
15.43
16.32
16.77
16.81
16.32
15.21
13.50
11.37
9.14
7.16
5.67
4.62
3.72
2.44
0.30
-2.91
-6.95
-11.21
-14.94
-17.62
-19.14
-19.79
-19.99
-20.01
-19.78
-19.01
-17.42
-15.12
-12.52
-10.24
-8.71
-7.92
-7.49
-6.83
-5.45
-3.14
0.01
3.74
7.71
11.61
15.18
18.17
20.50
22.22
23.52
24.71
26.11
27.85
29.79
31.45
32.20
31.44
28.91
24.91
20.27
16.11
13.40
12.63
13.63
15.60
17.41
17.97
16.51
12.75
6.91
-0.40
-8.34
-16.07
-22.85
-28.23
-31.95
-33.91
-34.01
-32.31
-29.02
-24.62
-19.86
-15.51
-12.23
-10.25
-9.46
-9.46
-9.84
-10.32
-10.88
-11.67
-12.83
-14.42
-16.32
-18.24
-19.74
-20.42
-19.99
-18.42
-15.91
-12.86
-9.68
-6.62
-3.77
-0.98
1.89
4.91
7.97
10.90
13.60
16.13
18.66
21.28
23.88
26.03
27.12
26.60
24.24
20.29
15.37
10.31
5.81
2.28
-0.30
-2.19
-3.75
-5.24
-6.79
-8.34
-9.78
-11.04
-12.10
-12.98
-13.70
-14.13
-14.14
-13.64
-12.70
-11.62
-10.80
-10.61
-11.13
-12.08
-12.86
-12.81
-11.39
-8.33
-3.68
2.31
9.23
16.59
23.79
30.22
35.26
38.51
39.85
39.49
37.82
35.28
32.22
28.84
25.20
21.31
17.21
13.03
9.01
5.53
2.95
1.52
1.23
1.73
2.47
2.93
2.79
2.12
1.27
0.72
0.77
1.43
2.42
3.28
3.64
3.29
2.26
0.69
-1.22
-3.32
-5.52
-7.76
-9.91
-11.82
-13.30
-14.26
-14.74
-14.87
-14.80
-14.63
-14.36
-13.91
-13.22
-12.35
-11.51
-11.03
-11.17
-12.08
-13.63
-15.47
-17.11
-18.11
-18.20
-17.39
-15.92
-14.12
-12.33
-10.73
-9.38
-8.25
-7.33
-6.68
-6.39
-6.49
-6.87
-7.27
-7.38
-7.00
-6.13
-5.04
-4.08
-3.55
-3.53
-3.86
-4.25
-4.43
-4.33
-4.03
-3.72
-3.61
-3.79
-4.27
-4.96
-5.73
-6.45
-6.97
-7.14
-6.87
-6.08
-4.75
-2.97
-0.86
1.39
3.55
5.42
6.83
7.67
7.96
7.80
7.38
6.89
6.50
6.29
6.25
6.29
6.36
6.39
6.36
6.24
5.98
5.50
4.81
4.00
3.23
2.65
2.30
2.06
1.73
1.15
0.32
-0.54
-1.08
-1.09
-0.53
0.34
1.17
1.61
1.52
1.00
0.29
-0.34
-0.73
-0.85
-0.81
-0.72
-0.68
-0.72
-0.81
-0.91
-1.03
-1.20
-1.45
-1.76
-2.10
-2.36
-2.49
-2.48
-2.43
-2.48
-2.73
-3.25
-3.93
-4.56
-4.86
-4.62
-3.74
-2.33
-0.64
1.08
2.66
4.07
5.30
6.30
6.87
6.64
5.25
2.55
-1.28
-5.74
-10.13
-13.79
-16.31
-17.58
-17.75
-17.06
-15.79
-14.16
-12.35
-10.43
-8.42
-6.16
-3.44
-0.19
3.40
6.87
9.62
11.26
11.84
11.85
12.07
13.27
15.90
19.86
24.45
28.45
30.51
29.48
24.92
17.28
7.76
-2.02
-10.69
-17.43
-22.04
-24.71
-25.66
-25.00
-22.76
-19.16
-14.73
-10.25
-6.45
-3.80
-2.28
-1.59
-1.29
-1.04
-0.80
-0.69
-0.87
-1.34
-1.92
-2.23
-1.94
-0.85
0.98
3.31
5.70
7.72
9.03
9.43
8.97
7.86
6.51
5.32
4.64
4.67
5.39
6.56
7.79
8.64
8.71
7.77
5.81
3.03
-0.21
-3.57
-6.81
-9.82
-12.51
-14.76
-16.31
-16.85
-16.11
-14.00
-10.71
-6.59
-2.12
2.26
6.15
9.28
11.39
12.24
11.74
9.94
7.23
4.24
1.73
0.28
0.17
1.26
3.12
5.25
7.25
8.87
9.98
10.44
10.08
8.77
6.50
3.48
0.14
-2.99
-5.48
-7.10
-7.85
-7.95
-7.62
-6.99
-6.03
-4.58
-2.48
0.37
3.91
7.89
11.97
15.80
19.12
21.76
23.66
24.83
25.28
25.00
24.01
22.33
20.11
17.56
14.94
12.44
10.11
7.89
5.61
3.14
0.51
-2.13
-4.51
-6.41
-7.72
-8.51
-8.97
-9.36
-9.84
-10.50
-11.34
-12.36
-13.54
-14.89
-16.32
-17.64
-18.52
-18.62
-17.65
-15.57
-12.54
-8.87
-4.90
-0.88
3.00
6.67
10.04
12.96
15.27
16.83
17.55
17.39
16.40
14.63
12.17
9.18
5.87
2.50
-0.74
-3.71
-6.45
-9.05
-11.61
-14.09
-16.35
-18.11
-19.10
-19.18
-18.40
-17.01
-15.37
-13.73
-12.16
-10.45
-8.26
-5.32
-1.72
2.01
5.04
6.62
6.43
4.82
2.70
1.08
0.66
1.49
3.12
4.97
6.75
8.67
11.35
15.43
21.18
28.36
36.22
43.81
50.17
54.54
56.43
55.68
52.50
47.47
41.40
35.12
29.23
23.99
19.30
14.91
10.54
6.02
1.21
-3.95
-9.52
-15.41
-21.34
-26.86
-31.45
-34.74
-36.69
-37.59
-37.85
-37.96
-38.14
-38.37
-38.43
-37.97
-36.61
-34.09
-30.40
-25.90
-21.25
-17.28
-14.68
-13.78
-14.36
-15.82
-17.43
-18.55
-18.84
-18.21
-16.65
-14.16
-10.76
-6.58
-2.01
2.38
5.92
8.11
8.77
7.99
6.07
3.32
-0.05
-3.87
-7.96
-11.98
-15.44
-17.88
-18.92
-18.42
-16.43
-13.22
-9.18
-4.88
-0.98
1.87
3.27
3.28
2.44
1.55
1.34
2.14
3.76
5.70
7.42
8.65
9.48
10.24
11.25
12.60
14.06
15.06
15.01
13.55
10.78
7.36
4.17
1.96
0.98
0.90
1.12
1.14
0.99
1.12
2.15
4.41
7.68
11.35
14.74
17.45
19.51
21.11
22.42
23.24
23.18
21.83
19.10
15.33
11.13
7.19
3.96
1.52
-0.30
-1.82
-3.30
-4.84
-6.43
-7.96
-9.28
-10.23
-10.61
-10.30
-9.29
-7.75
-6.02
-4.43
-3.22
-2.45
-2.08
-2.08
-2.54
-3.72
-5.90
-9.22
-13.54
-18.35
-22.95
-26.70
-29.19
-30.32
-30.23
-29.16
-27.34
-24.85
-21.70
-17.84
-13.31
-8.33
-3.29
1.36
5.22
8.12
10.09
11.32
11.95
11.95
11.16
9.36
6.53
2.89
-1.12
-5.01
-8.41
-11.11
-13.03
-14.11
-14.23
-13.34
-11.47
-8.85
-5.79
-2.59
0.59
3.72
6.78
9.63
12.03
13.69
14.49
14.57
14.33
14.22
14.54
15.20
15.76
15.64
14.35
11.80
8.33
4.63
1.48
-0.52
-1.08
-0.32
1.27
2.95
3.88
3.41
1.27
-2.30
-6.61
-10.73
-13.82
-15.42
-15.48
-14.29
-12.24
-9.64
-6.65
-3.36
0.15
3.76
7.29
10.55
13.37
15.63
17.31
18.53
19.54
20.64
21.98
23.45
24.67
25.13
24.38
22.25
18.74
14.06
8.45
2.27
-3.91
-9.35
-13.25
-15.08
-14.76
-12.72
-9.69
-6.46
-3.66
-1.76
-1.10
-1.89
-4.17
-7.64
-11.69
-15.56
-18.69
-20.88
-22.35
-23.55
-24.89
-26.51
-28.34
-30.08
-31.45
-32.26
-32.50
-32.23
-31.53
-30.32
-28.40
-25.51
-21.45
-16.27
-10.27
-3.89
2.54
8.97
15.69
23.12
31.39
40.18
48.58
55.50
60.09
62.05
61.63
59.37
55.73
50.92
45.05
38.35
31.39
24.91
19.52
15.33
11.87
8.35
4.13
-0.93
-6.49
-11.96
-16.91
-21.15
-24.65
-27.32
-28.84
-28.81
-27.04
-23.75
-19.73
-15.99
-13.48
-12.67
-13.34
-14.72
-15.82
-15.77
-14.19
-11.23
-7.52
-3.88
-1.09
0.42
0.63
-0.04
-0.80
-0.68
1.15
5.04
10.69
17.16
23.19
27.75
30.40
31.36
31.33
30.98
30.71
30.45
29.88
28.68
26.69
23.88
20.29
15.86
10.61
4.70
-1.39
-7.03
-11.64
-15.09
-17.71
-20.16
-23.03
-26.44
-29.84
-32.25
-32.72
-30.78
-26.70
-21.39
-15.91
-11.18
-7.73
-5.81
-5.66
-7.58
-11.87
-18.49
-26.73
-35.19
-42.07
-45.78
-45.47
-41.30
-34.26
-25.57
-16.31
-7.11
1.71
9.84
16.79
21.96
24.89
25.55
24.38
22.17
19.74
17.69
16.27
15.49
15.18
15.03
14.66
13.69
11.88
9.32
6.38
3.63
1.44
-0.17
-1.50
-2.98
-4.74
-6.53
-7.84
-8.28
-7.96
-7.53
-7.84
-9.56
-12.68
-16.49
-19.79
-21.40
-20.51
-16.94
-11.04
-3.46
5.10
14.08
23.00
31.37
38.63
44.14
47.39
48.30
47.38
45.61
44.04
43.26
43.12
42.75
41.10
37.47
31.91
25.17
18.36
12.49
8.16
5.52
4.41
4.51
5.46
6.81
8.10
8.84
8.60
7.18
4.56
0.84
-3.84
-9.40
-15.81
-23.04
-30.95
-39.21
-47.31
-54.64
-60.59
-64.64
-66.47
-66.02
-63.47
-59.28
-53.96
-47.94
-41.43
-34.36
-26.50
-17.65
-7.84
2.53
12.81
22.33
30.59
37.36
42.60
46.30
48.34
48.54
46.83
43.40
38.75
33.52
28.28
23.38
18.99
15.17
12.10
10.02
9.16
9.64
11.41
14.23
17.75
21.46
24.66
26.56
26.43
23.95
19.33
13.36
7.06
1.28
-3.67
-8.03
-12.33
-17.05
-22.29
-27.67
-32.57
-36.35
-38.62
-39.28
-38.52
-36.68
-34.08
-30.94
-27.44
-23.75
-20.09
-16.72
-13.83
-11.48
-9.60
-8.08
-6.84
-5.88
-5.26
-4.95
-4.83
-4.69
-4.38
-3.90
-3.43
-3.19
-3.30
-3.70
-4.16
-4.47
-4.59
-4.68
-5.05
-6.04
-7.89
-10.71
-14.50
-19.05
-23.94
-28.36
-31.17
-31.11
-27.25
-19.44
-8.51
3.82
15.49
24.78
30.80
33.58
33.76
32.12
29.25
25.44
20.97
16.28
12.07
9.02
7.44
7.08
7.21
7.08
6.38
5.53
5.56
7.58
12.23
19.31
27.73
35.93
42.28
45.59
45.22
41.09
33.54
23.22
11.23
-0.88
-11.24
-18.11
-20.46
-18.42
-13.30
-6.99
-1.23
3.10
6.11
8.54
11.12
14.01
16.76
18.63
19.10
18.11
16.04
13.36
10.28
6.69
2.29
-3.03
-9.00
-14.98
-20.18
-24.04
-26.47
-27.82
-28.68
-29.55
-30.57
-31.52
-31.93
-31.40
-29.77
-27.18
-23.99
-20.41
-16.30
-11.12
-4.14
5.10
16.33
28.36
39.33
47.28
50.81
49.48
43.79
34.85
23.91
12.20
0.84
-9.04
-16.48
-20.98
-22.84
-23.07
-23.01
-23.59
-24.87
-25.99
-25.78
-23.47
-19.19
-13.99
-9.31
-6.32
-5.48
-6.38
-7.94
-8.82
-7.91
-4.73
0.32
6.02
10.80
13.29
12.91
10.06
5.88
1.73
-1.40
-3.01
-3.10
-1.84
0.52
3.66
7.02
9.76
10.98
10.02
6.79
1.88
-3.65
-8.62
-12.17
-14.02
-14.44
-14.15
-13.99
-14.58
-16.11
-18.22
-20.19
-21.26
-20.88
-18.99
-15.94
-12.22
-8.23
-4.02
0.65
6.13
12.58
19.77
27.05
33.51
38.17
40.18
39.03
34.65
27.47
18.36
8.53
-0.77
-8.62
-14.55
-18.63
-21.20
-22.59
-22.83
-21.72
-18.98
-14.63
-9.10
-3.19
2.18
6.18
8.32
8.54
7.27
5.36
3.91
3.82
5.40
8.07
10.61
11.64
10.37
7.02
2.71
-1.14
-3.46
-4.04
-3.44
-2.54
-2.06
-2.33
-3.26
-4.71
-6.64
-9.17
-12.42
-16.28
-20.25
-23.60
-25.58
-25.82
-24.48
-22.20
-19.85
-18.05
-16.94
-16.18
-15.09
-13.04
-9.71
-5.25
-0.12
5.07
9.84
14.06
17.97
22.07
26.87
32.54
38.80
44.87
49.75
52.39
52.04
48.35
41.45
31.95
20.89
9.59
-0.69
-9.09
-15.39
-19.93
-23.35
-26.07
-28.07
-28.94
-28.19
-25.65
-21.62
-16.86
-12.26
-8.60
-6.32
-5.43
-5.50
-5.69
-5.03
-2.84
0.87
5.19
8.67
9.98
8.62
5.14
0.89
-2.72
-4.88
-5.59
-5.39
-4.79
-3.99
-2.87
-1.31
0.44
1.72
1.80
0.22
-2.84
-6.60
-10.02
-12.22
-12.89
-12.31
-11.26
-10.54
-10.67
-11.64
-12.97
-14.02
-14.26
-13.53
-11.91
-9.62
-6.72
-3.04
1.67
7.48
14.07
20.74
26.61
30.90
33.17
33.33
31.49
27.87
22.69
16.29
9.21
2.14
-4.17
-9.20
-12.81
-15.17
-16.56
-17.06
-16.44
-14.22
-10.10
-4.14
3.05
10.53
17.30
22.60
25.91
26.92
25.52
21.83
16.45
10.43
5.06
1.31
-0.65
-1.50
-2.35
-4.00
-6.47
-9.00
-10.57
-10.55
-9.08
-6.95
-5.10
-4.17
-4.28
-5.17
-6.52
-8.15
-10.05
-12.24
-14.59
-16.79
-18.47
-19.30
-19.15
-18.15
-16.69
-15.27
-14.32
-13.98
-14.03
-13.97
-13.32
-11.86
-9.66
-6.92
-3.69
0.30
5.48
12.09
19.83
27.82
34.84
39.83
42.25
42.14
39.87
35.83
30.33
23.72
16.74
10.63
6.93
6.89
10.98
18.61
28.33
38.37
47.14
53.60
57.11
57.38
54.26
47.83
38.60
27.57
16.19
5.96
-2.08
-7.75
-11.80
-15.54
-20.12
-25.93
-32.36
-38.12
-41.95
-43.23
-42.33
-40.28
-38.20
-36.76
-36.01
-35.63
-35.40
-35.42
-36.07
-37.62
-39.96
-42.61
-44.96
-46.67
-47.80
-48.78
-50.02
-51.62
-53.31
-54.46
-54.46
-52.93
-49.93
-45.88
-41.41
-37.15
-33.58
-30.89
-28.79
-26.45
-22.49
-15.28
-3.44
13.48
34.72
58.29
81.51
101.79
117.27
127.05
131.01
129.39
122.55
111.02
95.67
77.93
59.71
42.95
29.15
19.02
12.35
8.25
5.58
3.33
1.01
-1.27
-3.12
-4.12
-4.35
-4.47
-5.49
-8.19
-12.59
-17.64
-21.42
-21.83
-17.38
-7.85
5.40
19.56
30.84
35.14
29.11
11.46
-16.04
-48.17
-77.28
-95.57
-97.93
-83.92
-57.99
-27.62
-0.26
19.36
30.27
34.42
34.67
33.07
30.29
26.30
21.38
16.67
13.72
13.45
15.31
17.24
16.59
11.40
1.35
-12.12
-26.34
-38.48
-46.43
-49.41
-47.96
-43.60
-38.16
-33.03
-28.46
-23.44
-16.03
-4.33
12.46
33.47
56.26
77.82
95.66
108.56
116.50
119.93
118.96
113.06
101.54
84.46
63.33
41.15
21.54
7.54
0.43
-0.63
1.56
3.15
0.41
-9.19
-26.21
-48.92
-73.70
-95.81
-110.72
-115.40
-109.29
-94.51
-75.19
-56.16
-41.40
-33.00
-30.83
-33.10
-37.28
-41.04
-42.77
-41.73
-37.85
-31.70
-24.46
-17.82
-13.64
-13.28
-16.98
-23.64
-31.28
-37.87
-42.34
-45.00
-47.24
-50.65
-55.94
-62.44
-68.17
-70.41
-66.35
-53.80
-31.75
-0.90
36.10
74.91
110.46
138.38
156.21
163.78
162.55
154.44
140.76
122.11
99.24
73.98
49.65
30.32
19.13
16.77
20.86
26.62
28.62
22.74
7.61
-14.78
-39.69
-61.19
-74.08
-75.69
-66.79
-51.30
-34.88
-22.90
-18.60
-22.31
-31.85
-43.79
-54.99
-63.57
-69.10
-72.02
-72.97
-72.23
-69.83
-65.86
-60.83
-55.77
-52.05
-51.01
-53.59
-59.95
-69.28
-79.80
-89.00
-94.31
-93.88
-86.89
-73.37
-53.53
-27.62
3.86
39.63
77.45
114.54
148.36
177.27
200.38
216.71
224.47
221.19
205.14
177.18
141.67
105.68
76.49
58.59
51.90
51.92
51.73
44.81
27.56
0.69
-30.89
-59.70
-78.57
-83.49
-75.28
-59.34
-43.30
-33.83
-34.10
-43.15
-57.30
-72.50
-86.25
-98.00
-108.25
-117.09
-123.43
-125.34
-121.38
-111.99
-100.03
-89.91
-85.68
-88.95
-97.60
-106.25
-108.35
-99.18
-78.07
-48.66
-16.89
11.97
35.63
54.92
72.47
90.81
111.43
134.94
161.62
191.25
222.08
249.83
268.05
270.31
253.47
219.83
176.82
134.03
99.10
74.73
58.16
43.14
23.18
-5.37
-41.70
-80.70
-114.75
-136.79
-143.10
-134.82
-117.11
-96.56
-77.93
-62.39
-48.01
-32.21
-14.48
2.55
14.25
16.86
9.84
-3.38
-17.12
-26.14
-28.12
-24.36
-18.57
-14.69
-14.67
-17.80
-21.45
-23.07
-21.96
-19.88
-19.98
-24.75
-34.26
-45.80
-55.20
-58.99
-56.22
-48.87
-40.67
-35.15
-34.05
-36.86
-41.52
-45.76
-48.29
-49.23
-49.71
-50.97
-53.61
-57.23
-60.81
-63.41
-64.72
-65.09
-64.95
-64.30
-62.42
-58.28
-51.15
-41.17
-29.33
-16.97
-5.26
5.09
13.61
19.87
23.45
24.22
22.65
19.77
16.92
15.26
15.57
18.13
22.84
29.26
36.66
44.12
50.73
55.97
59.90
63.22
66.89
71.60
77.41
83.64
89.15
92.80
93.92
92.52
89.24
84.96
80.27
75.08
68.55
59.52
47.22
31.90
14.99
-1.39
-15.32
-25.88
-33.44
-39.16
-44.14
-48.54
-51.44
-51.26
-46.75
-37.78
-25.65
-12.67
-1.33
6.71
11.08
12.50
12.16
10.98
9.37
7.34
5.03
3.08
2.67
4.97
10.51
18.66
27.67
35.42
40.53
43.22
45.46
50.25
60.07
75.58
94.87
113.80
127.35
131.31
123.63
104.94
78.12
47.19
16.10
-12.32
-36.73
-57.01
-73.73
-87.70
-99.84
-111.27
-123.05
-135.70
-148.51
-159.30
-165.07
-163.14
-152.62
-134.99
-113.57
-92.15
-73.59
-59.03
-48.17
-40.31
-35.30
-34.16
-38.64
-49.95
-67.50
-88.18
-106.70
-117.41
-116.43
-103.00
-79.13
-48.14
-12.89
24.97
64.52
104.44
142.29
174.83
199.23
214.12
219.87
217.71
208.76
193.56
172.62
147.09
119.21
91.81
67.34
47.20
31.67
20.22
12.14
6.65
2.67
-1.25
-6.88
-15.90
-29.14
-46.07
-64.65
-81.84
-94.41
-100.04
-98.04
-89.66
-77.58
-64.86
-53.89
-45.72
-39.95
-35.32
-30.45
-24.48
-17.28
-9.21
-0.79
7.44
14.83
20.36
22.61
20.16
12.24
-0.62
-16.48
-32.46
-45.82
-54.99
-60.14
-62.78
-64.78
-67.25
-70.02
-71.74
-70.60
-65.00
-53.85
-36.56
-13.17
15.42
47.00
77.85
103.43
119.58
123.95
116.65
100.03
77.51
52.34
26.89
2.68
-19.08
-37.09
-49.98
-56.77
-57.26
-52.30
-43.55
-33.07
-23.02
-15.31
-11.46
-12.36
-18.02
-27.39
-38.48
-48.66
-55.33
-56.65
-52.14
-42.80
-30.74
-18.36
-7.46
1.35
8.60
15.46
22.82
30.77
38.48
44.72
48.49
49.49
47.95
44.20
38.17
29.31
17.07
1.50
-16.25
-33.87
-48.47
-57.51
-59.93
-56.74
-50.91
-46.33
-46.18
-51.56
-61.07
-71.41
-78.74
-79.92
-73.11
-57.70
-34.09
-3.63
31.18
66.51
97.76
120.56
132.11
131.97
121.86
104.73
83.54
60.67
37.96
17.08
-0.08
-11.64
-16.27
-13.76
-5.41
5.80
15.50
18.73
11.22
-8.77
-39.10
-73.40
-102.54
-117.73
-113.92
-92.04
-58.81
-23.87
4.19
21.13
27.86
28.69
28.29
29.10
30.72
31.13
28.66
23.47
17.40
12.69
10.36
9.41
7.43
1.99
-7.90
-21.15
-34.96
-46.07
-52.02
-52.11
-47.65
-41.52
-37.17
-37.41
-43.48
-54.51
-67.80
-79.64
-86.25
-84.54
-72.43
-49.09
-15.10
27.12
73.23
117.40
153.64
177.32
186.39
181.61
165.75
142.21
114.08
83.76
53.30
24.80
0.45
-17.79
-28.80
-32.47
-29.70
-22.12
-11.95
-2.02
4.59
5.23
-1.30
-14.04
-29.98
-45.04
-55.58
-59.61
-57.08
-49.35
-38.21
-25.14
-11.18
2.62
14.86
23.80
27.92
26.79
21.49
14.32
7.84
3.81
2.33
1.85
-0.05
-5.47
-15.14
-28.04
-41.81
-53.76
-61.93
-65.87
-66.88
-67.45
-70.54
-78.25
-90.70
-105.25
-116.66
-118.10
-103.14
-68.11
-14.04
52.58
121.19
180.08
219.88
236.03
229.27
204.20
167.14
124.35
81.20
42.19
10.79
-10.99
-23.20
-27.97
-28.40
-27.03
-24.53
-19.73
-10.72
3.56
22.33
43.21
63.07
79.05
89.13
92.34
88.67
79.05
65.20
49.27
33.27
18.43
5.02
-7.42
-19.44
-31.19
-42.33
-52.20
-60.18
-65.97
-69.74
-72.08
-73.84
-75.74
-78.13
-80.79
-83.13
-84.44
-84.29
-82.73
-80.26
-77.53
-75.05
-72.91
-70.76
-67.92
-63.59
-57.11
-48.23
-37.46
-26.22
-16.68
-11.09
-10.65
-14.52
-19.57
-21.20
-14.97
1.56
27.83
60.56
94.87
125.91
149.86
164.27
167.86
160.36
142.59
116.82
86.74
56.76
30.78
11.09
-2.18
-10.63
-16.51
-21.66
-26.88
-31.96
-36.09
-38.40
-38.06
-34.49
-27.31
-16.62
-3.18
11.47
25.35
36.55
43.78
46.73
45.94
42.42
37.24
31.18
24.70
18.04
11.34
4.77
-1.51
-7.40
-12.84
-17.80
-22.26
-26.15
-29.43
-32.07
-34.21
-36.16
-38.38
-41.34
-45.39
-50.49
-56.25
-61.93
-66.74
-70.01
-71.46
-71.18
-69.64
-67.50
-65.47
-64.20
-64.11
-65.34
-67.68
-70.57
-73.22
-74.78
-74.62
-72.51
-68.58
-63.25
-56.94
-50.04
-42.74
-35.21
-27.68
-20.42
-13.67
-7.67
-2.59
1.44
4.31
6.01
6.65
6.55
6.10
5.61
4.96
3.65
0.97
-3.48
-9.38
-15.74
-21.33
-25.42
-28.23
-30.81
-34.42
-39.69
-46.18
-52.53
-57.04
-58.42
-55.97
-49.45
-38.56
-22.85
-1.96
23.64
52.27
81.01
106.48
125.85
137.77
142.78
142.98
141.05
139.31
138.92
139.64
140.27
139.23
135.32
128.07
117.84
105.54
92.34
79.34
67.40
57.15
48.96
42.89
38.71
35.89
33.76
31.66
29.11
26.00
22.61
19.46
17.06
15.69
15.22
15.19
15.07
14.54
13.68
13.03
13.33
15.34
19.57
26.00
34.07
42.62
50.21
55.43
57.41
56.10
52.30
47.32
42.37
38.08
34.36
30.61
26.13
20.61
14.20
7.39
0.73
-5.48
-11.21
-16.57
-21.57
-26.06
-29.68
-32.19
-33.65
-34.45
-35.19
-36.31
-37.89
-39.59
-40.87
-41.27
-40.69
-39.40
-37.82
-36.32
-34.99
-33.71
-32.29
-30.67
-28.93
-27.24
-25.70
-24.27
-22.86
-21.43
-20.03
-18.80
-17.88
-17.28
-16.88
-16.54
-16.10
-15.47
-14.61
-13.51
-12.16
-10.66
-9.23
-8.11
-7.48
-7.28
-7.24
-7.00
-6.40
-5.57
-4.88
-4.72
-5.24
-6.21
-7.14
-7.49
-7.02
-5.91
-4.65
-3.77
-3.52
-3.75
-3.93
-3.51
-2.15
0.10
2.84
5.59
7.94
9.79
11.19
12.27
13.08
13.69
14.20
14.97
16.51
19.41
24.03
30.26
37.49
44.79
51.24
56.41
60.44
63.97
67.73
72.14
77.09
82.05
86.44
89.97
92.82
95.39
97.98
100.48
102.40
103.16
102.59
101.14
99.70
99.06
99.39
99.96
99.48
96.69
90.97
82.55
72.23
60.76
48.54
35.60
21.96
7.89
-6.08
-19.43
-32.03
-44.26
-56.65
-69.45
-82.38
-94.71
-105.62
-114.68
-121.93
-127.70
-132.22
-135.39
-136.84
-136.16
-133.22
-128.36
-122.28
-115.78
-109.52
-103.78
-98.51
-93.41
-88.23
-82.97
-77.91
-73.57
-70.41
-68.58
-67.76
-67.27
-66.19
-63.73
-59.34
-52.82
-44.24
-33.85
-22.05
-9.50
2.91
14.05
22.88
28.71
31.41
31.34
29.13
25.33
20.21
13.89
6.44
-1.76
-10.10
-17.88
-24.56
-29.88
-33.77
-36.17
-36.90
-35.82
-33.03
-29.06
-24.86
-21.48
-19.63
-19.41
-20.27
-21.27
-21.52
-20.49
-18.22
-15.27
-12.48
-10.70
-10.54
-12.26
-15.64
-20.13
-24.95
-29.34
-32.76
-35.07
-36.52
-37.57
-38.76
-40.53
-43.13
-46.64
-50.94
-55.86
-61.09
-66.36
-71.48
-76.41
-81.41
-86.87
-93.26
-100.88
-109.65
-119.11
-128.49
-137.02
-144.17
-149.91
-154.66
-158.98
-163.19
-167.08
-169.87
-170.48
-167.78
-160.88
-149.04
-131.68
-108.37
-79.09
-44.55
-6.38
33.11
71.53
106.95
138.22
164.86
186.63
203.29
214.62
220.73
222.22
220.20
216.01
210.88
205.72
201.08
197.14
193.75
190.43
186.38
180.86
173.40
164.17
153.82
143.26
133.20
123.94
115.47
107.68
100.60
94.46
89.53
85.93
83.56
82.20
81.64
81.79
82.66
84.15
85.95
87.53
88.30
87.91
86.41
84.26
82.16
80.73
80.22
80.38
80.65
80.30
78.67
75.31
69.93
62.45
52.92
41.64
29.12
16.10
3.31
-8.82
-20.25
-31.40
-42.82
-54.91
-67.63
-80.46
-92.57
-103.07
-111.36
-117.28
-121.06
-123.15
-124.06
-124.22
-123.90
-123.24
-122.32
-121.21
-119.97
-118.66
-117.25
-115.67
-113.78
-111.43
-108.52
-104.99
-100.84
-95.97
-90.24
-83.48
-75.65
-67.00
-58.11
-49.82
-43.01
-38.29
-35.83
-35.22
-35.63
-35.99
-35.34
-32.98
-28.63
-22.45
-14.96
-6.96
0.61
6.81
10.88
12.30
10.92
7.00
1.11
-5.81
-12.75
-18.73
-23.18
-26.09
-28.02
-29.86
-32.41
-36.06
-40.60
-45.37
-49.54
-52.40
-53.44
-52.34
-48.86
-42.86
-34.46
-24.16
-12.80
-1.28
9.85
20.64
31.69
43.72
56.97
70.84
83.82
93.89
99.16
98.48
91.83
80.27
65.58
49.71
34.36
20.63
9.06
-0.21
-7.29
-12.44
-16.13
-19.00
-21.85
-25.37
-29.78
-34.65
-38.89
-41.21
-40.69
-37.14
-31.13
-23.54
-15.21
-6.77
1.17
7.73
11.74
12.25
9.28
4.38
0.44
0.63
6.98
19.36
35.36
51.38
64.07
71.49
73.39
70.68
64.58
56.08
45.84
34.49
22.92
12.32
3.75
-2.18
-5.63
-7.39
-8.56
-10.16
-12.89
-17.12
-22.92
-30.15
-38.41
-47.06
-55.25
-62.03
-66.56
-68.28
-66.96
-62.72
-55.95
-47.13
-36.73
-25.12
-12.74
-0.12
12.02
22.80
31.43
37.41
40.73
41.89
41.69
40.86
39.86
38.66
36.84
33.93
29.78
24.79
19.87
16.15
14.63
15.75
19.32
24.53
30.30
35.48
39.13
40.67
39.91
37.25
33.67
30.65
29.79
32.30
38.45
47.34
57.04
65.20
69.77
69.56
64.57
55.79
44.80
33.21
22.37
13.12
5.87
0.66
-2.76
-4.85
-6.19
-7.37
-8.83
-10.76
-13.03
-15.38
-17.53
-19.42
-21.34
-23.76
-27.17
-31.76
-37.26
-42.90
-47.62
-50.34
-50.25
-47.06
-41.03
-32.99
-24.17
-15.90
-9.34
-5.10
-3.06
-2.42
-2.02
-0.74
2.02
6.26
11.41
16.63
21.11
24.30
26.05
26.52
26.24
25.82
25.86
26.66
28.04
29.49
30.29
29.91
28.13
25.17
21.52
17.84
14.84
13.17
13.40
15.82
20.20
25.71
31.03
34.67
35.55
33.21
27.87
20.17
10.82
0.43
-10.37
-20.71
-29.51
-35.60
-38.25
-37.42
-33.88
-28.87
-23.65
-19.09
-15.59
-13.13
-11.59
-10.86
-10.83
-11.26
-11.70
-11.64
-10.64
-8.65
-5.99
-3.21
-0.81
1.07
2.68
4.48
6.79
9.59
12.36
14.39
15.08
14.15
11.77
8.41
4.69
1.19
-1.58
-3.27
-3.71
-2.84
-0.79
2.29
6.18
10.60
15.15
19.29
22.37
23.83
23.43
21.42
18.48
15.65
13.96
14.15
16.40
20.24
24.67
28.48
30.58
30.31
27.54
22.49
15.56
7.16
-2.31
-12.34
-22.22
-31.03
-37.98
-42.60
-45.02
-45.87
-46.01
-46.21
-46.89
-48.06
-49.39
-50.41
-50.67
-49.94
-48.21
-45.60
-42.22
-38.11
-33.27
-27.75
-21.67
-15.18
-8.32
-0.95
7.18
16.13
25.54
34.61
42.39
48.27
52.25
55.08
57.73
60.93
64.69
68.32
70.79
71.17
69.02
64.45
58.04
50.59
42.93
35.79
29.66
24.67
20.53
16.56
11.96
6.06
-1.26
-9.41
-17.11
-22.66
-24.40
-21.29
-13.24
-1.34
12.35
25.24
34.83
39.35
38.09
31.52
20.99
8.33
-4.59
-16.18
-25.41
-31.78
-35.34
-36.57
-36.14
-34.75
-32.91
-31.04
-29.46
-28.58
-28.80
-30.44
-33.51
-37.62
-42.03
-45.97
-48.87
-50.58
-51.23
-50.96
-49.70
-47.05
-42.44
-35.34
-25.59
-13.41
0.64
15.92
31.75
47.43
62.15
74.95
84.75
90.79
92.88
91.61
88.24
84.15
80.25
76.55
72.12
65.59
56.01
43.43
29.07
14.81
2.39
-7.35
-14.69
-20.57
-25.98
-31.28
-36.11
-39.68
-41.24
-40.50
-37.65
-33.21
-27.67
-21.37
-14.54
-7.48
-0.73
4.90
8.60
9.97
9.21
7.11
4.72
2.80
1.49
0.29
-1.54
-4.44
-8.24
-12.22
-15.56
-17.82
-19.11
-19.96
-20.99
-22.61
-24.96
-28.09
-32.03
-36.81
-42.36
-48.29
-53.94
-58.52
-61.37
-62.19
-61.11
-58.56
-55.05
-51.08
-47.03
-43.18
-39.69
-36.51
-33.21
-28.90
-22.37
-12.46
1.40
18.87
38.61
58.70
77.17
92.53
103.83
110.44
111.85
107.92
99.44
88.51
78.23
71.58
69.93
72.14
74.90
74.28
67.65
54.98
38.73
22.56
9.55
1.02
-3.62
-6.06
-7.98
-10.33
-13.24
-16.44
-19.73
-23.29
-27.63
-33.31
-40.39
-48.26
-55.72
-61.41
-64.39
-64.54
-62.61
-59.85
-57.46
-56.10
-55.71
-55.78
-55.67
-55.05
-54.07
-53.31
-53.39
-54.66
-56.91
-59.44
-61.20
-61.13
-58.53
-53.16
-45.34
-35.75
-25.25
-14.66
-4.58
4.56
12.66
19.80
26.32
32.61
39.02
45.64
52.21
58.13
62.59
64.91
64.73
62.10
57.44
51.40
44.69
37.96
31.79
26.57
22.48
19.44
17.02
14.54
11.30
6.75
0.75
-6.26
-13.39
-19.43
-23.24
-24.06
-21.76
-16.92
-10.68
-4.39
0.86
4.48
6.39
6.84
6.09
4.30
1.56
-1.90
-5.50
-8.38
-9.63
-8.67
-5.60
-1.16
3.45
7.04
8.68
7.97
4.97
0.12
-5.93
-12.51
-19.00
-24.94
-30.02
-34.10
-37.08
-38.97
-39.78
-39.53
-38.23
-35.81
-32.14
-27.08
-20.61
-12.93
-4.55
3.81
11.40
17.66
22.42
25.86
28.40
30.36
31.89
32.76
32.54
30.77
27.20
21.95
15.54
8.75
2.37
-3.04
-7.34
-10.74
-13.65
-16.46
-19.37
-22.34
-25.03
-26.87
-27.15
-25.07
-20.00
-11.74
-0.79
11.56
23.45
32.94
38.57
39.77
36.83
30.74
22.71
13.85
5.00
-3.18
-10.11
-15.24
-18.03
-18.32
-16.40
-13.18
-9.90
-7.76
-7.47
-8.99
-11.70
-14.67
-17.21
-19.16
-20.78
-22.55
-24.73
-27.18
-29.49
-31.15
-31.85
-31.48
-30.00
-27.25
-22.87
-16.49
-8.01
2.20
13.22
23.85
32.96
39.83
44.31
46.69
47.49
47.12
45.79
43.49
40.13
35.63
30.12
23.89
17.40
11.18
5.63
1.01
-2.67
-5.53
-7.80
-9.83
-12.05
-14.90
-18.67
-23.21
-27.83
-31.28
-32.14
-29.35
-22.69
-12.96
-1.87
8.49
16.27
20.27
20.20
16.50
10.12
2.21
-6.10
-13.81
-20.12
-24.51
-26.76
-27.04
-25.87
-24.05
-22.38
-21.49
-21.59
-22.53
-23.96
-25.62
-27.46
-29.71
-32.50
-35.75
-38.92
-41.30
-42.25
-41.59
-39.68
-37.16
-34.55
-31.92
-28.77
-24.31
-17.89
-9.27
1.26
13.09
25.55
38.08
50.25
61.61
71.53
79.20
83.86
85.07
83.02
78.50
72.76
66.86
61.40
56.37
51.40
46.22
40.97
36.15
32.06
28.29
23.50
16.05
4.94
-9.30
-24.40
-37.10
-44.44
-44.95
-39.12
-28.99
-17.13
-5.78
3.57
10.07
13.30
13.09
9.74
4.24
-1.83
-6.67
-9.03
-8.71
-6.54
-4.15
-3.12
-4.39
-7.96
-13.01
-18.28
-22.61
-25.31
-26.25
-25.92
-25.06
-24.36
-24.14
-24.34
-24.68
-25.05
-25.76
-27.43
-30.53
-34.85
-39.18
-41.55
-39.84
-32.65
-19.78
-2.40
17.28
36.52
52.57
63.21
67.10
64.13
55.54
43.55
30.75
19.31
10.37
4.06
-0.09
-2.58
-3.53
-2.81
-0.37
3.26
6.98
9.44
9.64
7.43
3.41
-1.38
-6.13
-10.53
-14.82
-19.33
-24.12
-28.80
-32.71
-35.28
-36.44
-36.60
-36.41
-36.40
-36.71
-36.98
-36.62
-35.09
-32.20
-28.18
-23.59
-18.94
-14.41
-9.77
-4.55
1.65
8.93
16.94
25.11
32.80
39.44
44.75
48.49
50.62
51.19
50.40
48.70
46.63
44.66
42.92
41.12
38.60
34.69
28.98
21.63
13.38
5.35
-1.42
-6.35
-9.68
-12.40
-16.07
-22.16
-31.35
-42.88
-54.44
-62.59
-63.80
-55.63
-37.60
-11.49
19.11
49.63
75.50
92.86
99.27
94.03
78.41
55.50
29.62
5.27
-14.12
-26.97
-33.79
-36.54
-37.73
-39.38
-42.43
-46.56
-50.46
-52.38
-50.65
-44.30
-33.40
-19.05
-3.15
12.15
25.09
34.68
40.86
44.28
45.78
46.00
45.17
43.09
39.49
34.30
27.80
20.60
13.42
6.83
1.19
-3.41
-7.04
-9.87
-12.14
-14.15
-16.23
-18.70
-21.75
-25.33
-29.18
-32.89
-35.99
-38.17
-39.33
-39.62
-39.37
-39.01
-38.88
-39.13
-39.68
-40.19
-40.17
-39.16
-36.86
-33.31
-28.87
-24.13
-19.65
-15.68
-12.04
-8.16
-3.39
2.68
9.97
17.86
25.36
31.38
35.06
35.94
33.98
29.54
23.24
15.82
8.08
0.70
-5.79
-11.12
-15.22
-18.14
-19.96
-20.54
-19.52
-16.35
-10.49
-1.77
9.39
21.77
33.61
42.93
48.27
49.20
46.61
42.46
39.00
37.89
39.54
43.01
46.54
48.41
47.67
44.37
39.31
33.41
27.25
20.93
14.33
7.42
0.48
-5.99
-11.63
-16.36
-20.48
-24.35
-28.23
-32.00
-35.24
-37.47
-38.41
-38.21
-37.38
-36.63
-36.56
-37.45
-39.11
-41.02
-42.52
-43.13
-42.80
-41.92
-41.10
-40.83
-41.04
-40.94
-39.17
-34.31
-25.44
-12.71
2.57
18.14
31.44
40.40
44.00
42.55
37.42
30.48
23.46
17.52
13.13
10.26
8.67
8.03
8.01
8.29
8.52
8.52
8.37
8.53
9.60
12.10
16.03
20.76
25.11
27.65
27.29
23.68
17.44
9.98
3.04
-1.93
-4.26
-4.21
-2.76
-1.16
-0.45
-1.14
-3.13
-5.90
-8.73
-11.02
-12.40
-12.85
-12.60
-12.00
-11.40
-11.01
-10.96
-11.30
-12.07
-13.20
-14.52
-15.78
-16.70
-17.14
-17.19
-17.10
-17.16
-17.51
-18.14
-18.88
-19.54
-19.88
-19.60
-18.37
-15.94
-12.38
-8.21
-4.14
-0.61
2.79
7.40
14.96
26.64
42.22
60.01
77.39
91.83
101.66
106.16
105.24
98.93
87.30
70.78
50.67
29.16
8.83
-8.20
-21.04
-30.23
-37.30
-43.93
-51.15
-58.93
-66.26
-71.52
-73.12
-69.89
-61.57
-48.80
-33.11
-16.48
-0.96
11.79
20.79
25.82
27.36
26.38
24.05
21.47
19.40
18.17
17.63
17.35
16.82
15.57
13.31
9.86
5.16
-0.74
-7.51
-14.46
-20.63
-24.97
-26.81
-26.15
-23.76
-20.96
-19.10
-19.05
-20.88
-23.86
-26.88
-28.94
-29.59
-29.10
-28.26
-27.97
-28.74
-30.54
-32.73
-34.41
-34.71
-33.06
-29.33
-23.81
-17.18
-10.50
-4.95
-1.45
-0.20
-0.25
0.31
3.73
11.58
23.88
38.79
53.17
63.73
68.19
66.06
58.56
47.93
36.39
25.58
16.22
8.43
2.08
-2.91
-6.50
-8.69
-9.69
-9.95
-10.06
-10.47
-11.37
-12.61
-13.86
-14.71
-14.89
-14.25
-12.81
-10.66
-7.92
-4.69
-1.11
2.58
5.95
8.38
9.23
8.14
5.35
1.77
-1.23
-2.30
-0.61
3.77
9.96
16.63
22.43
26.34
27.77
26.57
22.85
17.00
9.60
1.43
-6.63
-13.65
-18.87
-21.89
-22.80
-22.30
-21.41
-21.19
-22.26
-24.51
-27.15
-29.09
-29.54
-28.38
-26.30
-24.39
-23.62
-24.30
-25.94
-27.48
-27.79
-26.21
-22.85
-18.44
-13.99
-10.24
-7.32
-4.76
-1.74
2.49
8.31
15.68
24.22
33.29
41.87
48.46
51.17
48.30
39.33
25.52
9.97
-3.44
-11.50
-12.95
-8.79
-1.60
5.75
11.09
13.47
12.80
9.38
3.51
-4.41
-13.67
-23.13
-31.41
-37.30
-40.17
-40.07
-37.50
-33.10
-27.30
-20.15
-11.53
-1.45
9.61
20.58
30.04
36.71
39.99
40.23
38.60
36.54
35.16
34.79
34.95
34.65
32.87
29.00
23.00
15.48
7.46
0.05
-5.77
-9.47
-10.99
-10.72
-9.20
-7.00
-4.52
-2.03
0.32
2.34
3.89
5.00
5.91
7.08
8.86
11.31
13.98
16.07
16.82
15.81
13.20
9.60
5.78
2.27
-0.76
-3.49
-6.17
-8.95
-11.79
-14.43
-16.61
-18.09
-18.73
-18.50
-17.47
-15.81
-13.81
-11.76
-9.92
-8.49
-7.53
-7.02
-6.87
-7.02
-7.45
-8.17
-9.24
-10.64
-12.30
-14.06
-15.65
-16.80
-17.28
-17.00
-16.02
-14.52
-12.71
-10.77
-8.72
-6.53
-4.12
-1.47
1.28
3.94
6.22
7.87
8.74
8.81
8.15
6.87
5.07
2.79
-0.05
-3.62
-8.11
-13.61
-19.92
-26.41
-32.03
-35.53
-35.75
-31.97
-24.19
-13.08
0.10
13.81
26.43
36.60
43.34
46.21
45.38
41.52
35.68
29.00
22.49
16.99
13.04
10.93
10.62
11.75
13.58
15.20
15.77
14.84
12.42
9.00
5.21
1.59
-1.61
-4.42
-6.93
-9.11
-10.70
-11.24
-10.36
-8.01
-4.53
-0.58
3.13
6.08
8.07
9.16
9.49
9.14
8.19
6.79
5.32
4.33
4.31
5.44
7.45
9.68
11.42
12.16
11.78
10.47
8.56
6.33
3.94
1.51
-0.85
-3.01
-4.93
-6.71
-8.51
-10.43
-12.39
-14.10
-15.16
-15.17
-13.93
-11.50
-8.21
-4.69
-1.79
-0.36
-1.09
-4.16
-9.14
-15.07
-20.73
-25.03
-27.30
-27.35
-25.42
-21.93
-17.30
-11.82
-5.79
0.33
5.86
9.92
11.83
11.32
8.82
5.29
1.80
-0.85
-2.53
-3.66
-4.91
-6.71
-9.14
-11.90
-14.61
-17.02
-19.03
-20.53
-21.25
-20.75
-18.62
-14.64
-9.02
-2.36
4.55
11.02
16.68
21.51
25.69
29.38
32.56
35.07
