1513814879.00
64.000000
-0.00
-0.00
-0.00
-0.00
-0.00
-0.00
-0.00
-0.00
-0.00
-0.00
0.00
0.01
0.01
-0.00
-0.03
-0.05
-0.05
0.00
0.13
0.36
0.66
1.01
1.37
1.72
2.06
2.40
2.79
3.24
3.80
4.42
5.06
5.66
6.20
6.68
7.15
7.68
8.31
9.14
10.09
11.04
11.88
12.56
13.14
13.76
14.65
15.96
17.91
20.32
22.90
25.38
27.58
29.57
31.68
34.32
37.81
42.54
48.15
54.10
59.83
64.97
69.58
74.14
79.34
85.71
93.76
103.00
112.62
121.73
129.77
136.75
143.30
150.75
157.77
166.64
177.95
191.79
206.97
220.57
228.25
225.36
208.53
176.87
132.76
80.05
23.07
-34.94
-92.44
-149.16
-205.23
-260.37
-313.74
-363.87
-409.83
-450.91
-486.50
-515.74
-537.23
-549.22
-549.96
-538.37
-514.21
-478.67
-433.88
-382.45
-327.02
-269.84
-212.63
-156.66
-102.95
-52.37
-5.90
35.58
71.43
101.35
125.50
144.38
158.69
169.15
176.37
180.75
182.57
182.07
179.51
175.23
169.65
163.18
156.15
148.81
141.30
133.69
126.02
118.33
110.69
103.16
95.80
88.68
81.83
75.25
68.95
62.95
57.25
51.86
46.78
42.03
37.58
33.45
29.61
26.07
22.81
19.84
17.14
14.71
12.56
10.65
8.99
7.56
6.34
5.31
4.46
3.75
3.17
2.70
2.32
2.02
1.78
1.59
1.46
1.37
1.35
1.37
1.42
1.46
1.46
1.41
1.32
1.23
1.19
1.25
1.39
1.62
1.88
2.15
2.44
2.75
3.13
3.60
4.16
4.80
5.44
6.02
6.49
6.87
7.21
7.62
8.23
9.10
10.20
11.36
12.38
13.08
13.42
13.52
13.70
14.25
15.34
16.91
18.60
19.93
20.49
20.06
18.71
16.71
14.27
11.41
7.73
2.63
-4.53
-13.93
-25.11
-37.05
-48.38
-57.94
-65.01
-69.43
-71.45
-71.42
-69.47
-65.85
-61.35
-57.34
-55.02
-54.13
-52.31
-45.47
-29.52
-2.64
33.29
73.10
110.82
142.01
164.83
179.05
184.34
179.19
162.06
133.45
97.26
60.73
31.80
15.64
12.40
18.30
26.78
32.50
33.09
29.42
23.62
17.20
10.19
1.49
-10.17
-25.37
-43.41
-60.65
-75.31
-86.02
-92.11
-94.15
-93.67
-92.70
-92.99
-95.25
-98.85
-102.61
-104.71
-103.36
-97.57
-87.77
-75.68
-63.86
-56.15
-53.43
-56.00
-62.18
-68.01
-67.80
-55.79
-28.42
13.17
62.53
108.76
139.18
144.26
120.38
72.06
9.50
-55.62
-113.58
-157.67
-183.82
-190.14
-176.50
-145.50
-103.13
-58.35
-20.76
2.42
9.14
2.62
-10.51
-23.09
-29.90
-28.59
-19.81
-6.05
9.41
24.60
38.64
51.90
65.61
80.71
97.60
115.67
133.78
150.93
165.96
176.62
179.09
168.24
139.53
92.25
31.78
-31.25
-84.38
-118.47
-131.34
-127.76
-115.80
-101.84
-87.53
-70.42
-48.60
-23.60
-1.10
11.87
11.52
0.11
-14.74
-24.32
-23.34
-13.23
0.35
11.69
18.87
24.64
34.25
51.40
71.24
86.87
85.92
58.46
2.96
-71.61
-148.56
-209.87
-242.92
-244.43
-219.92
-181.70
-141.63
-106.10
-74.83
-43.14
-5.90
40.43
96.02
158.42
222.79
283.16
332.97
365.65
376.41
364.33
334.11
293.83
252.29
215.35
185.06
160.36
139.02
119.55
97.24
71.04
42.22
13.17
-14.26
-38.89
-59.71
-75.36
-84.31
-86.05
-80.92
-71.24
-60.42
-51.66
-46.82
-45.61
-46.22
-46.30
-44.18
-38.67
-30.15
-20.18
-10.85
-3.72
0.75
3.31
5.34
8.05
12.57
18.95
26.06
32.12
35.36
34.67
30.11
22.40
12.62
2.24
-7.88
-17.93
-28.88
-42.00
-58.05
-76.73
-95.01
-111.14
-123.43
-130.96
-134.12
-134.43
-133.91
-134.39
-137.16
-142.82
-151.25
-160.66
-167.55
-167.29
-155.64
-130.96
-95.60
-55.68
-18.79
8.72
24.67
30.87
31.33
29.82
27.97
25.70
22.34
18.29
15.27
15.80
21.78
33.63
51.20
73.52
98.69
123.74
144.35
155.58
153.91
138.90
113.98
85.43
59.68
40.93
30.02
24.86
22.05
18.62
12.63
2.58
-13.08
-35.54
-64.15
-94.79
-119.92
-130.79
-121.26
-90.18
-42.54
12.05
62.13
98.50
117.27
120.74
115.69
109.82
108.03
110.32
112.33
107.87
93.27
69.90
43.35
20.82
7.03
1.57
-0.34
-5.59
-20.46
-48.02
-87.67
-135.85
-186.41
-231.20
-261.56
-271.33
-254.87
-215.28
-163.80
-116.50
-88.72
-89.67
-119.54
-170.29
-229.25
-283.04
-321.06
-337.75
-332.94
-310.96
-278.79
-243.53
-210.67
-183.04
-160.27
-139.07
-115.75
-87.57
-53.02
-11.84
35.46
87.43
141.54
195.82
249.97
303.50
355.32
403.42
445.16
477.92
499.08
506.33
487.90
437.88
357.44
255.44
144.90
38.18
-55.71
-128.61
-181.41
-214.31
-225.56
-214.49
-182.40
-132.50
-70.33
-2.03
63.97
118.31
155.02
172.66
173.71
163.87
150.11
138.85
133.40
131.64
129.46
126.39
126.25
135.44
160.28
197.57
240.19
288.82
338.28
369.20
369.33
336.03
277.10
206.83
139.15
83.01
40.29
6.40
-21.30
-45.35
-66.48
-85.48
-105.18
-130.56
-165.92
-212.19
-266.23
-317.16
-349.67
-351.35
-317.88
-255.99
-181.59
-113.25
-65.33
-44.14
-47.11
-66.25
-93.47
-122.51
-148.70
-167.31
-172.28
-157.77
-122.16
-71.03
-15.45
25.53
33.95
2.19
-63.28
-145.99
-227.60
-294.59
-340.43
-363.70
-365.53
-346.96
-309.72
-258.25
-200.53
-146.43
-103.56
-75.31
-60.42
-55.63
-55.68
-55.60
-52.24
-44.00
-30.48
-11.03
13.86
42.44
71.65
98.91
123.35
145.51
166.93
189.77
217.70
253.73
298.88
351.25
401.64
440.72
460.44
456.76
423.78
365.00
290.75
213.78
143.97
85.15
36.53
-4.73
-40.30
-69.63
-90.17
-100.53
-102.46
-100.08
-98.25
-99.97
-106.51
-117.55
-131.93
-146.61
-157.31
-159.61
-149.69
-127.07
-94.26
-57.10
-23.02
1.68
14.78
18.74
18.15
17.56
19.49
24.42
31.84
41.55
54.73
69.81
87.88
108.89
131.22
152.29
169.65
181.32
185.41
179.68
161.98
132.07
92.00
46.92
3.81
-30.87
-53.58
-64.60
-67.12
-65.08
-60.58
-54.38
-46.34
-36.81
-27.28
-19.92
-16.17
-16.02
-18.09
-19.94
-19.79
-17.20
-13.36
-10.77
-11.95
-18.24
-29.46
-43.89
-58.65
-71.41
-80.50
-85.81
-88.58
-90.72
-93.47
-97.26
-101.48
-104.70
-106.19
-105.70
-104.18
-103.73
-106.67
-114.33
-127.57
-146.76
-168.62
-191.72
-212.50
-225.30
-224.26
-208.99
-178.44
-135.83
-87.88
-41.62
-1.91
30.31
57.34
82.25
107.18
129.65
147.90
160.73
168.35
171.92
172.99
172.64
170.70
166.35
158.99
149.00
137.53
126.43
117.32
110.95
107.36
105.45
103.69
100.90
96.75
91.78
87.18
85.62
86.07
87.49
88.31
87.33
83.50
76.79
68.29
59.75
52.65
47.68
45.20
44.85
47.16
51.94
59.14
69.29
82.78
99.34
118.51
140.44
165.41
194.56
225.80
254.29
274.24
280.02
268.36
239.99
199.27
151.67
103.92
60.51
22.66
-10.55
-34.17
-43.81
-38.06
-19.65
-7.12
-4.41
-12.17
-30.67
-50.42
-66.73
-78.14
-85.86
-92.86
-102.55
-115.29
-131.73
-151.69
-173.51
-196.55
-221.40
-249.54
-283.02
-323.64
-370.86
-424.34
-482.31
-540.07
-591.10
-627.42
-641.77
-630.10
-593.49
-536.56
-467.40
-394.04
-321.38
-251.46
-183.94
-117.96
-53.63
7.76
64.68
114.93
156.22
186.42
203.10
204.39
189.50
158.54
112.57
53.52
-15.85
-91.08
-165.44
-230.74
-279.25
-306.37
-312.43
-302.28
-283.04
-261.05
-239.66
-218.96
-197.92
-176.21
-155.25
-137.50
-124.46
-114.91
-105.28
-91.38
-70.63
-43.56
-13.36
15.41
39.31
57.61
72.57
88.36
109.37
138.78
177.65
224.34
273.83
317.64
345.16
347.16
319.58
266.39
199.52
135.02
87.32
63.64
62.40
75.65
95.23
116.29
138.50
164.44
196.14
232.39
268.32
297.93
317.52
330.04
341.75
358.51
382.75
412.95
445.27
476.13
503.65
527.59
551.11
574.24
592.42
598.34
586.31
555.79
511.63
461.17
411.15
370.02
341.84
325.63
317.05
311.07
304.22
295.01
282.73
240.43
156.98
40.28
-85.84
-196.43
-278.02
-328.96
-354.38
-360.90
-357.72
-347.18
-331.08
-312.71
-296.94
-288.57
-290.93
-304.21
-328.02
-357.02
-381.37
-393.56
-391.42
-377.70
-357.07
-333.11
-307.86
-282.80
-259.15
-236.26
-214.11
-193.30
-174.53
-157.90
-142.70
-127.97
-113.77
-100.95
-90.10
-81.93
-76.77
-73.88
-71.87
-68.89
-63.70
-56.44
-48.52
-41.94
-38.87
-41.21
-49.29
-61.42
-73.26
-78.60
-71.12
-47.09
-7.78
39.50
83.19
111.22
115.06
93.21
51.44
0.24
-49.38
-89.30
-115.75
-130.17
-133.53
-127.58
-114.18
-96.17
-76.72
-59.38
-47.00
-40.54
-39.09
-40.30
-42.07
-42.65
-41.47
-38.97
-36.38
-35.00
-35.35
-36.26
-34.26
-25.09
-4.90
26.41
64.65
102.31
131.83
148.42
151.88
146.25
137.40
131.33
131.25
137.82
149.72
164.17
177.36
184.16
179.90
156.97
116.81
66.65
16.71
-23.73
-49.80
-62.23
-66.15
-68.34
-73.86
-82.93
-92.48
-97.54
-93.42
-79.35
-58.17
-35.16
-16.57
-7.33
-8.34
-17.71
-31.75
-46.87
-61.05
-73.73
-84.44
-92.38
-96.33
-94.99
-88.48
-78.95
-69.84
-64.62
-65.16
-69.71
-73.83
-74.13
-66.79
-48.78
-19.17
21.35
70.71
120.24
161.80
189.12
199.88
195.20
179.26
156.08
128.93
99.37
69.10
40.24
14.28
-2.27
-12.28
-18.94
-25.23
-32.70
-42.59
-53.70
-63.83
-71.41
-76.00
-78.64
-78.81
-80.54
-83.97
-87.98
-88.27
-80.69
-63.57
-38.08
-7.81
24.73
58.05
92.68
129.79
173.86
228.30
292.53
361.79
428.57
486.48
531.26
561.84
556.34
504.22
410.10
291.73
169.59
57.38
-39.35
-120.22
-186.19
-235.19
-265.67
-275.55
-264.77
-236.76
-197.17
-152.63
-110.03
-79.96
-71.58
-86.67
-119.15
-157.84
-191.65
-212.97
-220.48
-218.97
-216.77
-221.12
-232.90
-247.96
-259.35
-260.43
-245.41
-212.24
-163.67
-106.93
-50.32
1.06
43.54
76.92
103.31
127.13
151.77
178.25
205.82
234.16
264.96
300.57
341.25
370.17
370.08
331.81
262.46
182.81
115.29
72.17
50.68
37.57
18.12
-13.68
-52.62
-87.43
-108.79
-115.08
-112.29
-108.88
-109.28
-111.36
-107.93
-91.39
-59.36
-15.63
31.72
73.12
99.86
105.98
89.80
54.34
7.11
-42.43
-84.85
-113.50
-122.83
-113.52
-92.31
-66.88
-45.01
-26.56
-10.78
1.54
8.11
6.47
-3.69
-19.46
-30.09
-27.04
-9.04
16.36
38.85
53.36
61.44
72.34
94.23
129.48
172.28
212.25
239.76
249.84
244.05
229.04
211.87
195.81
179.90
160.70
135.98
106.96
77.57
53.10
37.33
30.60
30.14
32.40
34.97
37.32
40.43
43.85
46.91
48.97
49.14
46.21
39.22
28.52
14.72
-0.68
-19.82
-44.09
-72.68
-103.38
-133.98
-163.25
-189.20
-211.70
-230.21
-250.04
-274.58
-302.59
-329.77
-351.39
-364.90
-367.71
-361.65
-348.93
-339.90
-342.27
-357.28
-381.65
-410.55
-441.20
-470.11
-498.81
-477.22
-381.17
-223.52
-45.11
115.40
241.20
315.30
357.49
382.39
398.56
401.19
383.37
352.36
314.25
275.16
239.03
210.58
189.53
174.97
159.08
135.15
100.60
55.30
1.04
-60.47
-124.51
-186.88
-240.26
-279.33
-298.38
-292.34
-260.48
-207.08
-141.34
-72.90
-10.91
40.86
82.90
120.46
160.74
208.10
261.71
315.05
359.58
387.66
396.86
390.02
373.91
355.70
339.84
327.46
317.35
308.20
299.19
290.14
280.61
269.28
253.95
232.85
205.91
175.03
143.18
113.04
85.62
59.98
34.09
6.01
-24.77
-57.14
-89.00
-118.58
-145.57
-171.47
-198.89
-230.42
-267.35
-308.60
-350.57
-387.51
-412.84
-420.97
-409.23
-378.99
-335.53
-286.44
-239.52
-200.66
-172.61
-154.97
-145.13
-139.91
-137.24
-137.15
-141.80
-153.80
-173.71
-197.76
-217.66
-223.57
-208.94
-175.12
-132.03
-94.23
-73.74
-74.06
-88.67
-105.17
-112.52
-106.83
-92.59
-78.55
-71.56
-71.97
-73.85
-69.41
-54.38
-31.20
-7.89
6.51
6.95
-4.97
-21.80
-34.13
-35.00
-22.75
-1.42
21.70
39.27
47.03
45.14
37.47
29.42
25.28
26.59
31.87
38.13
42.77
44.99
45.72
46.38
47.66
49.01
49.23
47.38
43.56
38.52
33.08
27.55
21.72
15.41
8.83
2.71
-1.98
-4.31
-3.69
-0.09
5.86
12.82
19.21
23.96
27.07
29.65
33.19
38.28
43.87
47.82
48.15
44.52
38.54
32.84
29.60
29.44
31.54
34.39
36.83
38.20
38.22
36.66
33.46
29.09
24.67
21.58
20.61
21.28
21.86
20.25
15.24
7.27
-1.58
-8.53
-11.27
-8.91
-2.15
7.05
16.36
24.00
29.18
32.07
33.09
32.48
30.11
25.97
20.68
15.63
12.38
11.71
13.04
14.70
15.04
13.33
10.25
7.34
5.98
6.61
8.55
10.44
10.89
8.90
3.95
-3.90
-13.95
-24.79
-34.33
-40.36
-41.29
-37.06
-29.31
-21.14
-16.04
-16.51
-22.68
-31.62
-37.95
-35.70
-20.98
5.79
38.97
69.12
86.41
84.44
62.97
27.73
-11.90
-46.61
-70.11
-80.12
-77.55
-64.65
-43.52
-15.21
19.79
60.71
105.28
148.89
184.66
204.65
202.39
175.17
126.19
64.13
0.61
-53.44
-90.55
-107.53
-104.27
-82.55
-46.17
-1.87
40.28
69.10
76.13
59.71
25.99
-13.73
-47.96
-69.45
-76.60
-71.78
-58.63
-40.29
-19.51
0.38
15.21
21.34
17.39
5.46
-9.68
-22.66
-29.37
-28.05
-19.47
-6.36
7.28
17.19
20.37
16.17
6.88
-3.10
-9.32
-9.27
-3.66
4.68
12.21
16.74
18.08
17.53
16.80
16.92
17.92
19.17
20.01
19.88
18.74
17.01
15.25
13.96
13.12
12.30
10.95
8.94
6.67
4.99
4.46
4.84
5.16
4.17
1.15
-3.71
-9.31
-14.19
-17.07
-17.31
-14.97
-10.54
-4.76
1.55
7.60
12.70
16.38
18.49
19.23
19.01
18.43
18.11
18.49
19.63
21.10
22.15
22.09
20.76
18.58
16.24
14.28
12.73
11.28
9.53
7.32
4.76
2.11
-0.52
-3.18
-5.94
-8.76
-11.40
-13.56
-15.08
-16.06
-16.70
-17.19
-17.51
-17.46
-16.80
-15.34
-13.07
-10.09
-6.66
-3.17
-0.05
2.26
3.32
2.87
1.03
-1.62
-4.20
-5.64
-5.09
-2.19
2.56
7.45
10.00
7.63
-1.05
-15.55
-32.60
-46.06
-47.89
-31.91
2.43
48.38
93.71
125.61
135.75
123.52
95.56
62.91
35.66
19.61
16.39
26.04
48.57
83.09
125.43
167.91
202.88
226.05
238.43
245.57
254.18
268.00
285.89
302.69
308.81
300.33
283.50
270.79
270.58
281.95
296.31
306.60
309.54
305.02
295.18
281.63
263.74
239.16
205.85
164.09
117.04
69.17
24.97
-11.67
-39.05
-58.31
-72.76
-86.03
-100.50
-116.75
-134.43
-153.00
-171.78
-190.68
-210.35
-231.58
-254.41
-277.54
-298.70
-315.84
-328.01
-335.40
-339.38
-341.77
-343.95
-346.06
-347.03
-345.23
-339.75
-331.17
-321.57
-314.13
-312.43
-319.83
-338.74
-369.69
-410.48
-455.79
-497.68
-527.40
-537.97
-526.33
-494.01
-446.01
-388.38
-326.06
-261.98
-197.66
-134.27
-73.55
-17.39
33.26
79.08
122.78
168.29
219.57
279.12
346.83
418.98
488.69
547.39
587.23
603.99
598.50
576.16
544.37
509.41
474.47
439.62
403.57
365.24
325.36
285.85
248.26
212.34
176.00
136.72
93.28
47.15
0.90
-41.48
-76.50
-102.70
-121.43
-136.64
-153.68
-178.09
-214.08
-265.21
-330.58
-404.04
-475.50
-534.36
-573.31
-590.36
-588.88
-575.24
-558.60
-544.12
-531.51
-516.74
-495.67
-466.74
-430.98
-390.53
-347.01
-304.59
-265.20
-228.34
-192.51
-157.29
-124.41
-96.59
-75.93
-39.25
22.60
103.24
185.20
252.63
298.68
323.83
331.98
327.90
316.08
296.86
271.16
241.79
212.67
187.09
166.28
149.87
137.09
126.40
115.07
101.49
85.94
70.12
55.80
43.70
33.52
25.22
18.59
11.84
3.53
-6.45
-17.31
-27.27
-34.86
-39.11
-37.57
-30.89
-20.47
-8.19
4.48
16.23
27.70
39.83
53.23
70.55
93.46
121.87
153.81
186.57
216.56
242.86
265.24
283.32
299.68
315.99
332.17
346.02
354.55
353.72
343.32
324.41
278.85
198.59
87.16
-41.26
-169.40
-273.98
-356.06
-420.22
-470.28
-508.62
-535.44
-549.72
-551.90
-544.46
-530.93
-516.15
-501.43
-486.80
-472.04
-454.41
-431.69
-403.36
-370.62
-335.63
-301.63
-269.17
-237.78
-206.55
-172.69
-133.83
-89.21
-40.06
10.85
59.41
103.00
140.11
170.40
195.54
218.02
239.72
261.33
282.31
301.11
317.26
331.78
347.13
367.15
394.65
429.85
470.31
512.38
552.67
588.89
618.70
638.40
644.09
632.77
605.47
569.01
534.31
511.71
505.63
512.15
521.51
526.13
523.35
516.63
511.96
512.51
515.15
511.66
492.89
454.07
400.79
343.09
290.78
248.71
215.78
187.70
160.85
134.40
109.53
91.07
79.24
69.62
55.55
33.01
4.46
-21.85
-36.34
-60.08
-106.47
-181.43
-278.32
-382.36
-478.42
-556.36
-612.51
-648.71
-669.85
-675.18
-667.13
-646.97
-617.07
-581.22
-543.63
-507.82
-475.98
-448.44
-420.50
-389.45
-353.10
-311.68
-267.38
-223.05
-181.01
-142.60
-107.83
-73.32
-35.51
9.11
61.56
119.36
176.58
224.64
254.60
259.85
239.23
195.99
137.26
71.07
4.10
-58.96
-115.51
-164.08
-203.14
-230.37
-243.97
-242.89
-228.33
-203.93
-173.73
-141.11
-107.92
-74.21
-39.30
-3.64
32.31
67.70
102.27
138.34
178.96
225.07
272.94
314.63
340.22
344.53
328.50
297.95
261.82
227.48
198.51
175.66
159.20
149.41
149.63
162.44
176.19
178.31
159.00
116.81
59.83
9.91
-26.05
-47.56
-57.78
-60.92
-61.21
-58.32
-49.09
-30.13
-1.01
32.23
60.80
74.43
64.88
30.68
-22.04
-81.96
-136.40
-175.30
-194.62
-193.72
-175.03
-143.03
-102.72
-59.52
-19.24
12.75
32.71
38.98
33.84
22.10
9.07
-1.27
-7.68
-12.20
-18.70
-30.43
-48.08
-68.40
-85.87
-95.59
-95.61
-87.81
-76.89
-67.77
-62.86
-60.62
-56.08
-43.92
-21.77
7.70
37.25
58.20
64.18
54.09
32.22
5.86
-17.90
-34.18
-40.17
-33.56
-11.54
28.06
83.98
148.86
209.59
251.45
264.04
245.86
204.60
153.37
104.78
66.36
38.99
18.32
-2.20
-28.85
-65.82
-113.84
-169.40
-224.82
-269.33
-291.78
-284.51
-246.46
-184.79
-113.53
-49.96
-9.74
-2.45
-28.98
-81.57
-146.37
-207.35
-250.73
-267.81
-255.93
-217.49
-157.72
-82.98
-0.12
82.90
156.90
212.34
241.94
243.34
220.29
181.61
137.54
95.72
58.96
25.65
-8.38
-46.85
-91.34
-140.39
-189.69
-232.74
-262.44
-273.56
-264.95
-241.28
-211.02
-182.96
-161.19
-143.11
-121.10
-87.57
-40.78
13.14
61.26
90.17
90.97
62.70
11.44
-52.55
-117.55
-172.73
-208.79
-219.98
-203.48
-160.98
-98.61
-26.91
40.45
90.26
113.00
106.30
73.93
32.49
1.54
-2.33
26.30
78.74
138.44
184.19
210.52
218.77
214.23
202.76
189.60
179.97
175.29
173.72
170.46
160.06
137.13
100.86
55.04
6.42
-38.81
-78.29
-112.77
-144.35
-174.71
-204.69
-232.19
-253.18
-263.10
-258.92
-241.18
-212.87
-178.05
-141.31
-106.71
-75.27
-45.18
-13.24
25.44
68.35
103.45
121.47
117.22
88.98
40.12
-22.29
-89.03
-152.06
-206.09
-246.64
-268.44
-267.00
-240.21
-189.81
-122.06
-45.18
31.59
100.45
157.80
204.76
244.62
281.18
317.70
356.32
399.08
444.53
486.73
517.01
527.29
512.61
473.59
416.52
340.71
253.79
167.48
92.59
34.93
-5.22
-30.80
-45.34
-52.13
-54.54
-56.06
-60.87
-72.51
-91.80
-115.08
-134.47
-140.62
-126.92
-90.65
-36.90
21.39
67.97
89.51
80.41
43.48
-12.76
-78.38
-144.46
-202.94
-245.96
-265.34
-254.14
-210.02
-138.63
-54.20
23.37
75.13
89.88
67.75
19.16
-39.82
-93.56
-131.60
-150.09
-150.41
-136.51
-112.81
-83.69
-53.71
-28.07
-11.39
-5.83
-9.66
-17.73
-24.10
-25.60
-23.97
-24.73
-33.33
-50.68
-70.86
-83.08
-76.94
-48.34
-3.03
44.73
78.13
85.01
63.14
20.81
-27.08
-65.48
-84.41
-81.43
-60.92
-31.32
-2.36
17.29
22.32
12.18
-8.42
-30.99
-46.83
-51.57
-48.25
-46.49
-57.60
-87.92
-134.57
-186.04
-227.73
-249.04
-247.85
-229.99
-204.67
-178.89
-154.52
-129.18
-99.66
-65.33
-29.07
4.16
30.58
49.94
66.20
85.65
113.63
151.83
197.28
243.50
283.48
312.59
329.92
337.50
338.10
333.27
322.75
305.49
281.40
252.38
221.79
192.84
167.00
143.63
120.93
97.64
74.03
51.65
32.24
16.47
3.61
-8.01
-20.09
-33.80
-49.51
-66.95
-85.14
-102.23
-115.35
-121.23
-117.58
-104.75
-86.53
-69.07
-58.23
-56.59
-61.88
-67.99
-68.21
-58.86
-40.98
-19.45
0.04
14.02
22.52
28.12
33.51
39.29
43.53
43.33
37.00
25.74
13.43
4.69
2.47
6.53
14.02
21.37
26.42
29.30
31.54
34.32
37.12
37.86
34.41
26.47
16.47
8.52
6.01
9.88
18.50
29.67
43.24
62.31
91.45
133.49
185.86
239.24
280.44
297.27
283.69
242.53
184.24
122.78
71.43
39.79
32.34
49.14
86.29
136.37
189.19
233.87
261.12
266.37
250.85
218.92
176.54
129.04
79.78
30.14
-18.60
-64.89
-104.72
-132.13
-144.31
-142.17
-130.72
-117.49
-110.04
-111.88
-123.59
-141.07
-157.69
-172.10
-186.74
-205.40
-230.02
-259.30
-287.85
-313.18
-334.06
-350.37
-368.61
-396.01
-436.31
-487.63
-543.91
-595.95
-640.40
-675.85
-669.97
-601.80
-471.40
-302.52
-128.71
6.50
103.07
167.38
205.14
221.71
219.95
200.55
168.51
135.09
113.59
115.03
137.48
170.92
203.80
221.41
213.94
180.87
131.38
83.51
55.19
52.00
60.06
70.40
75.79
74.72
65.28
46.52
17.30
-22.62
-73.92
-132.94
-189.24
-232.28
-254.66
-254.83
-235.89
-204.90
-170.15
-139.51
-116.97
-100.93
-88.75
-78.55
-70.06
-61.65
-51.47
-38.25
-22.70
-6.71
8.70
22.60
34.22
43.03
52.28
65.77
85.76
111.37
139.62
168.19
195.82
222.31
247.64
275.61
309.90
352.63
403.33
460.60
523.93
592.60
663.27
703.68
684.66
593.68
445.68
273.50
109.15
-27.70
-130.04
-198.19
-234.96
-239.32
-213.27
-163.99
-107.34
-63.91
-50.41
-72.36
-122.11
-183.00
-233.41
-256.11
-242.37
-196.58
-133.10
-68.72
-15.80
21.36
46.08
67.90
95.77
132.70
173.18
206.35
221.89
214.59
185.43
139.35
83.38
24.16
-31.88
-77.47
-104.16
-104.34
-75.79
-25.19
32.29
78.45
98.36
85.22
41.59
-22.65
-93.34
-155.34
-195.66
-206.33
-186.97
-145.50
-96.48
-56.22
-36.90
-42.35
-67.22
-99.57
-125.62
-133.77
-117.63
-77.73
-21.36
38.87
88.55
116.51
119.07
101.69
76.08
55.17
47.68
55.66
75.22
99.52
122.05
138.06
144.89
141.16
126.66
102.65
72.35
40.51
11.56
-11.47
-28.38
-42.05
-57.92
-82.48
-120.80
-173.71
-236.21
-298.84
-349.63
-378.30
-379.96
-357.07
-318.33
-274.53
-234.08
-200.16
-172.61
-147.85
-120.54
-85.23
-38.68
18.42
81.15
141.45
190.55
219.09
222.53
203.33
169.95
132.49
98.13
69.27
44.64
21.68
-5.26
-40.13
-83.77
-134.27
-189.26
-247.94
-311.07
-379.57
-428.96
-440.27
-409.43
-350.93
-285.68
-227.12
-177.20
-130.27
-78.88
-18.67
45.22
103.20
146.26
170.64
178.42
175.18
166.95
158.11
150.74
142.09
129.30
111.93
92.67
75.33
62.23
53.29
46.80
40.76
32.24
20.04
5.14
-9.56
-21.15
-27.58
-28.77
-25.97
-20.88
-15.74
-11.72
-8.88
-6.46
-3.56
0.00
3.43
5.48
5.00
1.03
-6.13
-15.65
-26.31
-37.01
-47.06
-56.39
-65.21
-73.75
-82.08
-89.29
-94.52
-97.13
-96.84
-93.73
-88.09
-80.03
-69.00
-58.38
-49.07
-41.23
-34.77
-29.67
-26.17
-24.58
-25.06
-27.18
-29.87
-30.74
-27.66
-19.42
-6.25
10.11
27.03
42.07
54.03
63.42
72.85
85.22
102.37
124.13
148.12
170.79
189.30
202.80
213.00
223.52
237.78
257.39
281.84
309.32
337.90
365.84
390.60
407.91
412.59
400.96
373.98
338.44
304.55
280.45
267.43
259.11
245.62
220.10
183.05
142.00
106.86
83.90
72.70
67.46
61.03
48.69
29.37
4.37
-24.37
-55.50
-87.94
-120.26
-150.46
-176.72
-197.49
-211.16
-215.55
-208.03
-187.37
-156.34
-122.83
-98.09
-92.07
-108.39
-141.58
-178.99
-206.45
-214.44
-201.46
-173.18
-138.27
-103.77
-72.39
-42.98
-13.32
16.97
44.73
63.87
67.79
53.47
24.46
-8.66
-31.66
-33.04
-10.36
27.03
61.71
76.69
64.46
30.62
-9.84
-41.66
-57.77
-61.90
-64.02
-72.41
-88.31
-106.00
-118.28
-122.03
-120.13
-118.18
-118.83
-118.23
-107.73
-79.76
-34.01
20.22
67.53
93.31
89.88
58.91
8.63
-50.94
-111.92
-169.46
-220.15
-260.05
-284.13
-288.06
-270.50
-234.59
-186.92
-134.72
-82.87
-32.73
16.63
65.83
112.86
153.01
181.13
194.75
196.12
191.58
188.55
191.74
200.86
210.66
213.97
205.51
184.66
155.71
125.42
99.54
80.09
64.78
48.34
25.05
-8.62
-52.37
-101.54
-148.14
-182.80
-197.48
-188.13
-156.54
-110.33
-60.94
-20.13
3.53
6.73
-8.47
-36.35
-69.93
-102.97
-130.88
-150.52
-159.73
-156.82
-140.58
-110.77
-69.03
-19.75
30.08
72.19
99.47
108.77
102.50
87.88
73.90
67.38
70.14
78.99
87.95
91.50
86.93
74.59
56.73
35.85
14.01
-6.85
-24.00
-33.89
-32.93
-19.21
5.98
37.99
69.93
94.87
108.07
108.27
97.66
80.78
62.89
48.27
39.17
35.30
34.07
31.66
24.48
10.69
-8.66
-29.85
-47.89
-58.63
-60.63
-55.61
-47.25
-39.13
-32.89
-27.81
-21.93
-14.07
-4.94
3.01
7.17
6.58
2.76
-0.94
-1.09
4.06
13.82
25.55
36.12
43.37
46.95
48.18
49.33
52.61
59.35
69.62
82.32
95.61
107.62
117.08
123.56
127.49
129.83
131.82
134.65
139.05
144.76
150.01
151.37
144.35
124.94
91.61
46.95
-1.94
-44.95
-71.97
-76.53
-58.18
-22.82
19.54
58.52
86.87
102.34
107.43
107.37
107.55
111.64
120.67
133.29
146.30
155.75
158.01
151.19
136.05
115.90
95.44
78.57
66.71
58.12
48.96
35.06
13.44
-16.72
-53.75
-93.26
-128.53
-151.89
-157.44
-144.03
-117.12
-87.58
-67.72
-66.52
-86.17
-122.26
-166.78
-211.92
-252.66
-287.50
-317.62
-345.46
-373.33
-402.13
-430.04
-451.92
-460.59
-450.47
-421.86
-383.10
-348.05
-329.81
-333.83
-354.72
-378.92
-391.85
-385.29
-360.61
-326.46
-292.75
-265.19
-243.24
-222.13
-197.29
-167.49
-135.57
-106.12
-82.31
-63.82
-47.33
-28.09
-2.56
30.08
67.69
106.75
144.19
178.68
210.80
241.70
271.57
298.70
319.77
331.40
331.91
322.43
306.58
288.94
273.22
261.02
251.70
243.36
234.04
222.71
209.40
194.79
179.72
164.88
150.92
138.53
128.45
121.17
116.51
113.51
110.66
106.41
99.76
90.57
79.60
68.28
58.15
50.22
44.27
38.50
30.11
16.85
-1.18
-20.48
-35.02
-38.80
-28.76
-6.44
22.66
51.37
73.63
86.13
88.47
82.24
70.02
54.77
39.50
27.08
19.42
16.76
17.27
17.98
16.27
11.70
6.56
5.04
11.03
25.68
45.87
64.36
72.57
64.60
41.00
9.99
-15.58
-24.26
-12.48
13.00
38.35
50.72
46.31
33.29
27.38
42.14
79.97
129.01
168.69
180.37
156.78
104.92
41.16
-18.07
-64.02
-97.61
-126.04
-156.51
-191.88
-230.20
-266.84
-297.35
-318.73
-329.23
-327.27
-311.33
-281.08
-238.89
-190.45
-143.46
-104.81
-77.47
-59.02
-42.92
-22.01
8.05
46.19
85.83
117.93
134.64
133.10
116.24
90.91
63.63
37.71
12.47
-14.74
-44.98
-75.10
-97.64
-104.28
-90.19
-57.67
-14.53
29.12
65.15
89.72
104.07
113.39
123.57
138.59
157.17
174.48
184.03
180.44
160.64
125.08
78.74
29.59
-13.08
-42.70
-54.73
-47.26
-21.07
19.12
61.35
92.18
101.13
95.74
84.53
75.69
71.72
75.94
90.79
117.43
155.43
195.98
227.30
235.43
212.49
160.81
92.26
21.44
-40.23
-87.14
-119.25
-138.56
-148.56
-151.29
-147.93
-139.71
-129.36
-120.14
-114.10
-111.38
-109.79
-107.41
-102.48
-94.48
-84.12
-73.38
-64.39
-58.40
-55.38
-53.84
-52.27
-49.29
-44.32
-37.67
-30.53
-24.27
-19.76
-17.17
-15.73
-14.56
-12.78
-9.96
-6.20
-2.05
1.83
4.95
7.19
8.80
10.25
12.07
14.53
17.73
21.42
25.30
28.96
31.95
33.89
34.29
32.87
29.35
23.73
16.22
7.41
-1.88
-10.69
-17.98
-22.88
-24.71
-23.13
-18.18
-10.34
-0.37
10.74
21.88
32.00
40.10
45.42
47.51
46.20
41.57
33.96
23.86
11.88
-0.45
-12.56
-23.96
-34.13
-42.68
-49.41
-54.29
-57.42
-59.03
-59.39
-58.82
-57.79
-56.66
-55.74
-55.26
-55.31
-55.65
-55.83
-56.16
-55.21
-52.20
-46.68
-38.54
-28.00
-15.64
-2.18
11.59
24.84
36.89
46.89
54.38
59.07
60.91
60.17
57.55
54.04
50.75
48.47
47.21
46.55
45.54
42.60
36.44
26.66
13.94
-0.05
-13.96
-27.03
-38.74
-49.18
-59.42
-70.08
-80.54
-88.68
-91.01
-86.03
-74.02
-56.52
-36.55
-18.83
-7.34
-3.84
-7.17
-13.60
-21.76
-32.16
-44.51
-60.39
-83.64
-117.72
-164.46
-223.30
-290.05
-361.53
-432.89
-496.99
-533.70
-529.87
-487.03
-422.15
-368.08
-331.93
-312.05
-303.15
-296.81
-288.14
-276.42
-262.25
-245.56
-224.14
-192.96
-150.72
-98.50
-39.18
22.91
81.73
132.27
172.08
201.76
225.12
243.87
258.70
269.58
275.95
276.36
269.93
256.97
239.05
219.10
197.98
175.33
150.11
121.01
86.76
46.97
2.56
-44.17
-89.66
-131.12
-166.26
-193.41
-211.53
-220.20
-219.31
-209.11
-190.07
-162.98
-129.48
-91.77
-52.48
-14.23
20.60
50.23
73.74
91.05
102.92
110.43
115.01
117.85
119.93
121.63
122.84
122.96
120.92
115.53
105.50
90.07
68.82
42.08
10.70
-23.85
-59.76
-95.13
-128.08
-157.08
-180.75
-198.12
-208.50
-211.65
-207.58
-196.59
-179.28
-156.48
-129.31
-99.00
-66.87
-34.25
-2.18
28.45
57.15
83.41
106.87
126.97
143.09
154.35
159.77
158.51
149.93
134.07
111.45
83.39
51.51
17.78
-15.75
-47.20
-74.97
-97.95
-115.47
-127.35
-133.62
-134.62
-130.79
-122.70
-110.99
-96.28
-79.44
-61.45
-43.40
-26.41
-11.56
0.36
9.01
14.37
16.94
17.31
16.38
14.95
13.86
13.86
15.46
19.07
24.84
33.03
43.74
57.11
73.06
91.36
111.51
132.45
152.83
170.73
184.35
192.07
193.09
187.54
176.55
162.27
147.03
133.17
122.14
114.64
110.36
108.48
108.09
108.39
109.19
110.39
112.20
114.23
115.78
115.98
114.22
110.83
107.03
105.04
106.80
113.62
124.92
138.58
151.48
160.96
165.98
167.54
168.78
173.40
184.93
205.27
234.36
269.91
307.08
339.46
360.69
367.57
361.85
350.59
342.97
345.38
357.34
370.44
371.82
349.80
299.77
226.46
142.87
65.62
9.78
-15.25
-8.11
24.98
71.52
116.85
148.02
158.31
148.55
125.69
99.15
76.18
59.96
49.47
42.28
36.79
33.57
34.57
41.17
52.57
64.89
72.05
67.36
45.82
6.22
-47.08
-103.77
-149.65
-170.58
-158.53
-115.71
-55.93
-0.22
30.81
25.39
-13.58
-70.64
-123.73
-154.01
-152.15
-120.87
-71.90
-20.56
19.70
41.26
42.70
28.76
7.81
-10.57
-19.24
-16.42
-6.57
2.14
3.82
-2.38
-10.55
-11.42
2.83
34.02
76.59
120.41
155.39
179.11
193.42
202.22
207.81
210.31
209.08
203.91
195.71
185.02
178.29
179.59
190.53
210.74
240.53
282.25
338.14
406.82
480.54
557.07
631.35
698.37
754.86
801.64
844.45
890.63
945.20
1007.45
1084.96
1178.80
1282.46
1382.51
1463.21
1513.21
1528.60
1512.76
1386.67
1111.66
695.44
197.17
-300.34
-730.41
-1062.19
-1296.59
-1451.79
-1550.67
-1599.23
-1600.56
-1559.44
-1486.33
-1396.10
-1303.33
-1218.84
-1148.78
-1095.47
-1047.58
-994.25
-929.37
-854.15
-775.47
-701.13
-636.61
-584.28
-544.24
-508.37
-469.42
-423.62
-372.00
-319.69
-271.56
-230.96
-199.17
-176.27
-157.95
-140.33
-120.90
-99.11
-76.54
-55.06
-35.86
-19.29
-6.04
4.96
14.68
24.25
34.88
46.00
56.67
66.34
74.79
80.44
82.60
81.34
78.25
76.80
77.30
78.83
80.16
79.37
71.17
55.89
33.79
6.97
-19.53
-45.31
-71.39
-98.54
-127.62
-162.39
-204.53
-253.00
-303.22
-346.46
-380.20
-404.11
-418.19
-397.53
-329.73
-220.14
-90.63
15.28
94.83
151.12
186.95
210.90
226.20
231.26
225.24
209.42
187.98
169.02
152.24
135.88
119.86
104.50
87.83
68.42
46.18
22.93
3.45
-15.94
-39.00
-65.92
-94.93
-125.14
-155.43
-184.19
-209.04
-226.19
-240.55
-256.99
-276.38
-297.67
-320.50
-345.08
-372.02
-401.71
-400.56
-352.98
-266.26
-164.13
-70.31
2.98
55.16
91.40
118.13
140.93
157.78
160.50
152.35
138.41
122.35
106.24
90.76
76.50
64.91
54.20
43.75
35.24
37.83
54.51
84.24
123.16
166.53
209.70
245.75
268.57
274.83
263.11
233.59
190.14
139.97
92.31
56.01
35.34
29.81
35.00
42.96
43.97
30.57
-0.22
-45.73
-98.23
-147.18
-181.53
-192.17
-174.84
-131.83
-70.71
-2.13
63.43
118.64
160.65
190.49
210.90
223.94
229.39
225.71
211.51
187.06
154.86
118.62
81.60
45.14
8.38
-30.39
-71.40
-112.02
-146.96
-170.04
-176.85
-166.77
-143.34
-112.90
-82.33
-57.05
-40.19
-32.82
-34.91
-46.11
-65.64
-91.70
-120.74
-147.55
-166.49
-173.17
-165.98
-146.51
-118.94
-88.22
-58.59
-32.75
-11.86
3.70
13.78
18.33
17.61
12.53
4.72
-3.84
-11.25
-15.98
-17.01
-13.91
-7.04
2.43
12.56
21.23
26.83
28.97
28.46
26.77
25.15
23.91
22.58
20.25
16.36
10.97
4.60
-1.96
-7.96
-12.66
-15.24
-14.95
-11.50
-5.50
1.56
7.85
12.08
14.05
14.54
14.53
14.40
13.63
11.40
7.46
2.58
-1.58
-3.44
-2.39
0.77
4.38
6.92
7.77
7.34
6.40
5.41
4.22
2.35
-0.34
-3.35
-5.59
-5.95
-3.97
-0.20
4.08
7.32
8.29
6.46
2.04
-4.10
-10.59
-15.81
-18.21
-16.73
-11.23
-2.62
7.48
17.09
24.43
28.28
28.00
23.49
15.13
3.85
-8.88
-21.12
-30.99
-37.11
-39.03
-37.29
-32.97
-27.09
-20.23
-12.41
-3.51
6.23
15.86
23.83
28.42
28.29
23.07
13.55
1.50
-10.80
-21.16
-28.01
-30.77
-29.81
-26.12
-20.90
-15.34
-10.36
-6.61
-4.62
-4.74
-6.94
-10.76
-15.33
-19.54
-22.57
-24.16
-24.67
-24.85
-25.30
-26.07
-26.62
-26.05
-23.66
-19.34
-13.61
-7.29
-1.08
4.88
11.11
18.56
28.08
39.71
52.48
64.32
72.81
76.00
73.32
65.71
55.17
43.86
33.10
23.03
12.81
1.54
-10.90
-23.47
-34.33
-41.64
-44.26
-42.13
-36.15
-27.85
-18.98
-11.26
-6.04
-4.07
-5.21
-8.13
-10.42
-9.06
-1.26
14.43
37.40
64.65
91.35
111.86
121.26
116.69
98.34
69.52
35.71
2.85
-24.38
-43.69
-55.20
-60.36
-60.58
-56.08
-45.91
-29.02
-5.52
22.43
51.10
76.58
96.14
109.23
117.25
122.46
126.55
129.83
130.99
127.81
118.07
100.39
74.77
42.75
7.11
-28.82
-61.80
-89.34
-109.84
-122.14
-125.37
-118.94
-103.01
-79.16
-50.78
-22.63
0.38
14.55
19.31
16.49
9.61
2.20
-3.48
-7.23
-10.52
-15.62
-24.87
-38.16
-53.96
-68.72
-77.84
-76.96
-63.80
-39.62
-9.51
17.97
35.05
34.53
12.85
-28.69
-83.78
-142.28
-192.55
-224.42
-232.91
-216.64
-180.65
-132.68
-79.84
-26.03
28.54
85.42
150.35
211.20
262.07
294.19
301.23
282.36
242.67
191.36
138.02
89.45
47.17
11.07
-22.13
-55.76
-92.04
-131.43
-172.22
-210.44
-240.19
-255.43
-249.62
-220.41
-170.00
-105.17
-35.96
26.63
73.14
97.53
97.79
77.35
42.31
0.39
-40.97
-75.92
-100.81
-114.11
-115.94
-107.93
-92.22
-71.56
-48.63
-25.55
-3.99
14.46
27.96
34.76
34.04
27.32
18.66
14.03
19.71
40.27
77.07
127.51
185.41
242.21
288.88
318.04
325.97
313.40
284.98
247.36
206.65
166.51
127.55
87.91
44.80
-3.72
-57.27
-112.44
-163.25
-202.11
-222.12
-219.32
-194.76
-155.02
-111.31
-76.76
-62.77
-75.36
-112.74
-165.29
-218.40
-257.17
-271.26
-257.98
-222.10
-172.76
-119.23
-67.55
-19.87
24.03
64.67
101.45
132.55
155.85
169.53
172.14
162.07
137.63
98.14
45.24
-16.55
-80.48
-139.44
-188.11
-224.19
-248.24
-262.44
-268.92
-268.86
-262.24
-248.41
-226.64
-196.58
-158.78
-114.86
-67.75
-21.28
20.62
55.16
81.70
101.87
118.60
134.65
151.53
168.98
185.70
200.34
212.52
222.82
232.15
240.78
247.85
251.67
250.33
242.51
227.81
206.65
180.16
149.95
118.11
87.03
59.15
36.44
19.95
9.66
4.55
3.00
3.05
2.84
0.79
-4.03
-11.71
-21.41
-31.52
-40.19
-46.01
-48.54
-48.34
-46.76
-45.36
-45.44
-47.59
-51.72
-57.15
-62.85
-67.67
-70.48
-70.48
-67.36
-61.50
-53.88
-45.72
-38.12
-31.66
-26.33
-21.78
-17.64
-13.79
-10.34
-7.37
-4.52
-1.04
4.08
11.57
21.43
32.83
44.31
54.34
61.79
66.22
67.90
67.55
66.04
64.12
62.33
60.96
60.16
60.03
60.74
62.55
65.70
70.16
75.32
80.09
83.21
83.81
81.90
78.38
74.60
71.68
70.05
69.33
68.68
67.32
64.80
60.98
55.86
49.50
42.12
34.43
27.64
23.15
21.68
22.55
23.43
20.93
11.88
-5.29
-29.63
-57.89
-85.65
-108.83
-124.94
-133.37
-135.16
-132.14
-126.21
-118.76
-110.48
-101.46
-91.56
-80.85
-69.77
-59.09
-49.37
-40.57
-31.92
-22.42
-11.53
0.14
10.86
18.57
21.95
21.27
18.20
15.01
13.43
14.00
16.13
18.75
20.85
21.95
22.02
21.15
19.38
16.74
13.54
10.44
8.15
6.96
6.33
5.02
1.86
-3.51
-10.18
-16.37
-20.27
-21.10
-19.38
-16.50
-13.85
-12.05
-11.01
-10.31
-9.92
-10.35
-12.36
-16.21
-21.30
-26.24
-29.43
-29.82
-27.43
-23.35
-19.30
-16.93
-17.18
-20.01
-24.58
-29.59
-33.65
-35.76
-35.54
-33.49
-30.87
-29.27
-29.89
-32.86
-36.94
-39.90
-39.50
-34.49
-25.10
-12.81
0.40
12.88
23.73
32.70
39.80
44.98
48.01
48.67
46.95
43.03
37.12
29.54
20.68
11.18
1.97
-5.94
-11.83
-15.49
-17.25
-17.78
-17.75
-17.36
-16.39
-14.36
-11.14
-7.27
-3.97
-2.72
-4.36
-8.52
-13.51
-16.98
-16.91
-12.48
-4.38
5.59
15.32
23.22
28.53
31.38
32.34
32.12
31.33
30.36
29.40
28.38
27.16
25.66
24.02
22.58
21.88
22.32
23.94
26.30
28.60
29.95
29.73
27.89
24.90
21.31
17.22
12.03
4.78
-5.08
-16.92
-28.83
-38.37
-43.61
-44.07
-40.68
-35.14
-28.83
-22.21
-15.08
-7.13
1.29
9.09
14.85
17.48
16.53
12.18
4.98
-4.35
-14.84
-25.18
-33.83
-39.32
-40.76
-38.28
-33.02
-26.80
-21.33
-17.52
-15.30
-14.00
-13.12
-12.63
-13.05
-14.71
-17.19
-19.30
-19.58
-17.19
-12.31
-5.98
0.77
7.49
14.49
22.24
30.49
38.03
43.03
44.10
41.05
35.17
28.53
23.10
20.06
19.51
20.81
22.95
25.19
26.99
27.99
27.89
26.25
22.82
17.72
11.84
6.45
2.63
0.53
-0.90
-3.32
-8.01
-14.78
-21.85
-26.42
-26.19
-20.50
-10.71
0.43
10.04
16.24
18.57
17.62
14.37
9.56
3.65
-2.91
-9.40
-14.78
-17.97
-18.26
-15.86
-11.78
-7.50
-4.49
-3.61
-4.95
-7.97
-11.80
-15.43
-17.92
-18.48
-16.76
-13.15
-8.80
-5.38
-4.36
-6.30
-10.41
-14.83
-17.33
-16.33
-11.46
-3.65
5.38
13.74
19.96
23.21
23.26
20.30
14.77
7.28
-1.32
-10.07
-17.93
-23.87
-27.18
-27.68
-25.81
-22.60
-19.40
-17.37
-17.13
-18.56
-20.87
-22.98
-23.96
-23.49
-22.18
-21.38
-22.64
-26.94
-33.99
-42.01
-48.27
-50.00
-45.60
-35.21
-20.69
-4.73
10.11
22.15
30.89
36.56
39.83
41.31
41.59
41.23
40.78
40.65
40.99
41.59
41.92
41.49
40.01
37.53
34.37
30.87
27.33
23.96
21.08
19.21
18.93
20.45
23.20
25.84
26.81
25.22
21.35
16.47
12.06
8.90
6.73
4.70
2.28
-0.20
-1.43
-0.01
4.73
12.33
21.46
30.60
38.70
45.30
50.17
53.18
54.22
53.45
51.46
49.21
47.64
47.18
47.57
47.85
46.75
43.19
36.83
28.13
18.07
7.71
-2.06
-10.48
-16.70
-19.56
-17.95
-11.46
-1.15
10.32
19.41
22.94
19.39
9.25
-5.85
-24.61
-47.42
-76.75
-116.28
-168.59
-232.86
-303.49
-370.60
-422.67
-450.44
-450.40
-426.04
-386.33
-341.82
-300.27
-264.25
-231.27
-196.66
-156.95
-111.73
-63.59
-16.10
28.42
70.05
110.53
152.07
195.53
240.54
286.64
333.68
381.42
428.20
469.47
497.95
506.42
491.21
455.26
408.79
364.89
333.64
317.46
310.45
302.22
284.08
252.56
209.81
161.71
113.44
67.35
23.51
-18.00
-56.86
-86.56
-100.08
-97.75
-84.47
-68.71
-59.59
-63.72
-83.31
-116.21
-157.62
-198.94
-232.54
-254.00
-264.80
-269.86
-272.97
-274.91
-273.94
-268.00
-256.58
-240.94
-221.69
-197.97
-168.06
-131.17
-89.69
-48.84
-14.26
11.24
28.82
42.76
56.33
68.30
72.88
63.65
39.71
8.95
-14.61
-19.79
-2.93
28.34
58.59
72.71
63.69
36.14
2.90
-22.52
-32.49
-28.10
-16.01
-3.14
7.78
18.29
32.08
51.65
75.55
100.18
119.37
129.58
131.02
128.29
126.14
127.79
133.73
141.00
144.70
139.68
122.66
93.00
52.87
5.27
-45.35
-91.12
-125.57
-146.18
-155.77
-160.94
-168.85
-183.67
-206.41
-233.00
-256.78
-272.64
-279.06
-278.05
-272.74
-264.92
-243.33
-202.26
-143.31
-74.91
-7.86
49.95
95.29
128.82
153.85
173.51
188.48
198.77
204.55
206.10
203.80
198.33
190.56
182.52
175.00
168.14
160.58
151.93
142.39
132.31
122.05
111.24
101.15
91.21
79.99
66.23
49.30
28.86
4.57
-24.09
-58.97
-92.92
-122.97
-148.13
-168.46
-183.88
-194.28
-199.52
-199.53
-202.59
-205.83
-207.31
-205.54
-199.39
-187.86
-170.58
-148.14
-112.02
-65.65
-14.16
35.43
77.85
110.41
132.61
145.84
151.84
151.51
144.21
131.69
114.83
93.99
69.02
39.53
5.18
-33.03
-72.10
-108.93
-138.88
-159.42
-170.70
-175.28
-176.88
-172.85
-163.81
-153.36
-146.80
-146.92
-153.69
-164.89
-177.45
-188.14
-197.24
-203.51
-206.08
-204.93
-199.97
-190.14
-175.07
-155.70
-133.42
-110.97
-91.55
-76.69
-66.79
-61.25
-56.00
-47.59
-34.92
-18.75
-0.55
18.00
38.17
61.49
88.87
124.90
171.78
227.26
285.76
341.33
388.74
428.75
463.42
494.64
529.44
571.63
619.36
665.99
703.91
726.07
732.85
726.20
668.40
543.53
363.40
161.83
-27.13
-168.80
-271.32
-343.49
-390.60
-415.41
-415.07
-387.09
-333.77
-262.05
-184.59
-116.02
-63.65
-30.13
-14.11
-7.26
-2.76
1.72
4.48
3.17
-4.39
-15.26
-26.29
-36.01
-41.51
-41.61
-37.27
-31.19
-25.77
-23.15
-22.45
-22.68
-23.51
-23.52
-21.68
-17.64
-11.90
-4.63
3.84
13.87
25.14
35.98
44.71
49.60
51.76
50.79
48.55
47.72
50.79
58.84
70.72
83.13
90.55
86.73
66.88
31.20
-13.85
-56.50
-83.01
-83.15
-54.51
-4.52
52.58
100.94
129.38
134.72
121.49
99.03
76.95
61.96
56.21
58.60
66.55
77.68
90.37
103.00
113.33
117.95
115.95
106.48
90.56
71.24
52.33
36.90
25.96
18.26
10.95
1.18
-13.08
-31.98
-53.93
-76.83
-98.95
-119.89
-140.35
-161.63
-184.51
-208.74
-232.85
-254.56
-272.40
-286.86
-301.28
-320.76
-349.90
-389.28
-433.69
-472.73
-493.81
-487.40
-450.67
-388.77
-312.87
-236.02
-169.93
-122.62
-97.79
-94.93
-109.74
-134.21
-158.06
-171.75
-169.94
-153.96
-130.75
-109.00
-94.20
-86.21
-79.93
-69.01
-49.87
-23.44
6.01
34.30
60.01
85.67
115.73
154.36
202.75
257.74
312.53
357.88
384.93
387.69
365.33
323.02
270.82
220.78
183.56
165.64
167.51
184.04
206.13
223.49
227.82
214.53
183.14
136.06
77.49
12.33
-53.37
-112.04
-155.13
-175.45
-170.82
-146.21
-113.44
-86.27
-74.55
-79.52
-94.10
-107.28
-110.01
-99.63
-79.68
-57.18
-38.66
-28.14
-26.72
-33.30
-45.16
-58.32
-68.13
-70.23
-62.59
-47.20
-29.85
-18.19
-18.02
-30.36
-50.48
-70.02
-80.03
-74.05
-49.70
-8.74
43.43
98.39
145.32
173.03
172.71
141.71
85.94
19.54
-39.02
-73.43
-75.36
-47.39
-0.76
49.88
91.96
118.17
126.59
119.35
101.11
78.25
58.29
48.14
51.67
66.87
85.42
95.79
88.97
63.32
26.28
-8.62
-27.99
-24.31
1.43
41.08
83.20
117.14
135.52
135.09
116.50
83.89
44.49
7.16
-19.87
-31.97
-29.83
-18.97
-6.88
0.20
-0.84
-9.96
-25.40
-44.66
-64.61
-81.46
-91.46
-92.44
-85.60
-76.05
-70.54
-73.86
-85.64
-100.26
-109.60
-107.17
-90.64
-61.41
-23.21
19.26
59.93
90.83
102.99
89.79
51.58
-1.99
-53.66
-85.10
-84.21
-50.08
7.09
70.68
124.08
155.88
161.49
142.64
105.59
60.10
17.71
-10.54
-17.35
-2.36
26.87
56.54
72.18
64.63
34.41
-8.31
-48.56
-73.00
-75.51
-58.22
-29.47
0.86
25.06
39.27
43.32
39.19
30.30
20.64
14.53
15.17
23.29
36.03
46.99
48.86
36.65
10.73
-22.84
-54.32
-74.35
-77.71
-65.31
-43.95
-23.06
-11.34
-13.44
-28.88
-52.23
-75.09
-88.82
-87.27
-69.21
-38.12
-1.18
33.33
58.37
69.85
67.30
53.48
34.18
16.96
9.72
17.72
40.95
73.30
104.37
123.77
125.72
111.66
88.30
63.60
42.37
24.42
6.92
-12.42
-32.64
-50.18
-61.67
-67.44
-71.66
-79.67
-93.98
-111.38
-124.31
-124.52
-107.96
-76.68
-38.26
-2.24
23.77
36.17
35.86
26.32
11.88
-4.00
-19.27
-32.69
-43.10
-49.16
-50.14
-46.79
-42.00
-40.10
-44.33
-54.73
-66.90
-73.87
-70.11
-55.46
-36.26
-22.50
-22.44
-38.36
-66.12
-97.99
-126.91
-148.78
-162.15
-166.55
-160.12
-140.74
-108.48
-68.42
-30.18
-4.79
0.83
-11.53
-33.93
-53.71
-60.36
-49.94
-25.66
6.04
40.17
76.35
119.83
171.90
230.80
287.80
329.62
343.39
322.72
270.33
197.39
122.42
57.93
15.79
2.11
17.18
55.87
109.16
165.75
214.18
249.08
261.77
252.66
225.68
186.19
138.92
86.91
31.96
-45.54
-112.45
-168.09
-207.80
-230.54
-240.23
-244.48
-250.60
-261.49
-273.90
-276.50
-265.95
-240.01
-203.86
-167.34
-139.91
-125.36
-119.54
-112.66
-91.44
-53.44
-1.04
56.30
105.75
135.77
139.18
115.22
68.88
11.00
-48.77
-98.64
-129.04
-135.79
-122.12
-98.12
-76.68
-68.00
-73.62
-88.24
-100.29
-98.72
-78.32
-41.36
3.94
47.25
79.46
96.00
96.80
87.38
77.09
76.11
91.65
124.44
167.69
208.40
232.24
228.75
194.55
134.50
59.73
-16.04
-80.61
-126.17
-151.12
-159.39
-158.59
-157.13
-161.70
-176.15
-200.71
-232.48
-265.43
-292.65
-308.35
-309.09
-294.64
-267.69
-232.98
-195.65
-159.70
-125.41
-92.27
-60.35
-30.24
-1.95
26.12
56.05
89.49
126.87
170.96
221.79
276.32
329.79
378.76
422.79
463.30
502.32
541.47
587.99
646.02
713.83
783.97
846.42
891.74
912.24
903.68
866.70
814.73
760.99
712.49
668.96
627.03
584.57
541.60
500.09
413.69
266.48
78.13
-108.59
-259.81
-365.26
-430.41
-465.58
-479.61
-478.68
-459.48
-421.26
-369.72
-314.98
-266.23
-228.04
-201.23
-184.33
-174.88
-164.76
-149.02
-128.72
-109.94
-99.97
-100.06
-109.43
-125.60
-144.97
-160.08
-165.66
-161.02
-149.91
-137.89
-129.91
-129.61
-138.43
-154.99
-174.11
-190.60
-201.42
-206.97
-209.74
-212.86
-219.20
-230.52
-247.45
-269.14
-294.19
-320.04
-341.92
-352.53
-344.28
-313.12
-262.37
-203.17
-151.15
-120.30
-116.63
-136.46
-169.49
-205.54
-240.20
-275.97
-318.02
-367.68
-418.64
-458.22
-474.43
-462.55
-428.56
-386.07
-348.69
-322.89
-305.40
-286.53
-256.41
-211.22
-154.39
-93.54
-35.34
17.73
66.94
114.18
158.39
195.42
220.13
230.76
231.09
229.39
234.96
253.86
286.86
330.44
380.32
433.81
490.23
548.57
604.56
650.21
675.79
674.52
645.76
595.76
534.61
472.17
414.67
363.08
315.36
268.76
222.31
176.78
133.65
93.02
52.91
10.51
-35.93
-85.10
-133.24
-175.49
-208.14
-229.33
-238.36
-234.66
-217.51
-187.84
-149.85
-112.21
-86.15
-81.59
-102.59
-144.99
-198.45
-250.73
-293.33
-323.64
-343.87
-356.81
-362.38
-357.54
-338.55
-305.24
-262.41
-218.56
-181.09
-152.37
-128.89
-104.15
-73.91
-39.27
-6.06
20.03
37.73
51.87
69.73
94.95
123.46
144.42
146.75
125.93
87.88
45.74
12.26
-7.76
-20.76
-39.83
-76.28
-131.41
-194.51
-247.19
-272.45
-262.60
-221.35
-160.65
-93.74
-30.84
22.27
62.07
85.36
89.87
76.73
53.16
31.52
25.29
41.87
78.30
121.37
152.69
156.78
127.73
71.90
4.26
-57.81
-102.03
-124.93
-130.62
-126.27
-116.85
-103.36
-84.20
-59.51
-33.42
-12.88
-3.16
-3.71
-8.02
-6.94
5.15
27.37
53.12
75.11
89.76
98.11
102.91
104.02
98.04
80.74
52.08
18.74
-8.33
-19.78
-13.75
2.81
17.78
21.80
13.91
2.71
1.11
18.67
55.69
102.34
144.46
170.82
178.10
170.53
155.49
138.43
120.64
101.33
81.10
64.29
57.41
65.52
88.38
120.56
155.44
189.31
224.16
265.00
315.03
371.31
424.47
462.74
477.53
467.42
437.95
398.47
357.24
318.78
283.45
249.46
215.46
181.55
149.33
120.18
94.06
69.10
42.53
12.12
-22.99
-61.75
-101.96
-140.85
-176.39
-207.72
-235.45
-261.73
-289.54
-321.66
-358.58
-397.71
-433.03
-457.17
-464.14
-451.60
-421.22
-376.67
-321.67
-258.11
-187.79
-114.81
-47.64
1.97
23.47
12.59
-24.90
-74.89
-120.07
-147.38
-152.29
-138.54
-113.98
-85.49
-56.89
-29.48
-5.20
12.14
18.36
12.51
-0.69
-12.02
-11.94
2.73
26.52
47.40
53.67
40.52
12.78
-17.81
-39.69
-46.34
-38.64
-22.36
-4.47
9.41
15.90
13.47
2.76
-13.26
-28.55
-36.27
-31.88
-16.55
2.28
14.34
12.29
-3.30
-24.40
-39.91
-42.58
-32.42
-15.50
1.16
14.91
28.01
44.88
66.89
90.34
108.12
114.51
108.98
96.09
82.58
72.77
67.10
63.26
59.59
56.71
56.70
60.58
66.05
69.07
66.10
56.78
43.63
29.54
14.67
-4.89
-34.72
-78.12
-131.76
-185.59
-225.28
-238.04
-218.58
-171.52
-110.65
-52.76
-11.29
9.02
12.27
7.25
1.61
-2.19
-6.14
-13.44
-23.98
-33.88
-37.10
-29.56
-11.35
13.61
39.27
60.60
74.02
77.51
69.24
48.37
16.50
-21.63
-58.51
-86.99
-103.08
-108.01
-106.38
-103.36
-101.18
-97.45
-87.25
-65.98
-33.46
5.53
42.96
72.09
90.83
101.97
110.54
118.89
124.68
121.10
101.73
64.11
11.91
-46.60
-102.36
-148.41
-181.54
-200.66
-206.10
-198.08
-177.23
-145.70
-106.88
-65.29
-25.27
9.45
36.84
55.76
66.15
68.57
63.89
53.92
41.34
30.17
24.28
26.61
37.29
53.55
71.37
86.99
98.55
105.23
106.75
101.79
88.87
67.86
41.62
16.07
-2.44
-9.65
-6.39
2.68
11.55
16.10
15.79
12.90
10.63
10.59
12.98
16.48
19.88
22.85
25.56
28.10
29.21
26.48
16.95
-0.05
-21.81
-42.35
-54.48
-53.11
-37.66
-12.57
15.41
39.33
54.94
60.87
57.92
48.27
34.44
19.80
7.58
0.98
1.72
9.67
22.52
36.31
46.86
50.30
44.93
31.31
12.80
-5.65
-19.14
-24.59
-21.94
-13.34
-2.41
7.60
13.92
14.08
5.66
-12.55
-38.66
-67.15
-89.52
-98.39
-90.55
-68.79
-40.27
-13.12
6.72
17.40
19.53
14.88
4.72
-9.59
-26.07
-41.94
-54.37
-62.30
-66.58
-69.76
-73.70
-78.97
-84.77
-90.22
-96.10
-104.64
-118.81
-140.23
-168.23
-199.44
-229.20
-253.27
-268.80
-275.49
-274.80
-269.64
-262.68
-255.57
-247.95
-237.94
-223.45
-203.05
-177.48
-148.88
-120.26
-93.76
-70.05
-48.28
-26.83
-4.48
19.50
44.77
70.61
95.62
117.72
134.49
144.22
146.98
145.09
143.26
146.36
157.86
178.24
204.79
233.29
259.32
279.86
292.78
296.87
291.13
275.60
252.50
226.83
206.24
198.05
206.90
232.22
268.76
308.46
343.22
367.40
378.13
375.13
358.83
330.63
293.18
251.28
211.32
179.45
158.61
146.27
135.62
118.10
88.33
47.02
0.96
-40.16
-68.78
-82.80
-87.04
-89.59
-97.62
-113.33
-133.58
-152.92
-167.29
-176.34
-181.94
-185.96
-187.23
-181.75
-165.29
-136.30
-97.80
-56.48
-20.46
4.12
14.31
10.79
-3.26
-23.02
-42.88
-57.80
-64.07
-61.26
-51.95
-40.87
-32.33
-28.35
-27.88
-27.64
-24.85
-18.41
-10.06
-3.09
-0.22
-1.85
-6.05
-10.18
-13.02
-16.41
-23.10
-34.19
-46.90
-55.16
-52.92
-38.11
-14.33
11.51
32.82
46.89
54.81
58.98
60.25
57.25
48.94
36.88
26.11
22.23
27.90
40.48
53.41
60.31
58.25
49.79
40.52
36.03
39.41
50.51
66.72
84.58
100.82
112.04
115.76
110.39
96.60
77.79
59.59
47.86
46.01
53.77
66.70
78.76
84.99
83.83
77.19
68.38
60.07
52.58
45.02
36.73
28.80
23.21
21.41
23.25
26.72
30.10
32.75
34.99
36.12
33.18
21.32
-3.08
-38.48
-77.56
-108.82
-121.97
-112.28
-82.45
-40.84
2.57
39.78
66.87
82.83
88.44
84.26
70.23
46.23
12.89
-27.15
-69.83
-110.71
-147.36
-180.38
-213.44
-250.74
-293.55
-338.17
-375.90
-396.45
-392.06
-360.89
-306.95
-238.16
-163.87
-92.38
-31.16
13.21
35.41
32.97
8.32
-30.59
-71.60
-102.62
-115.54
-109.30
-89.02
-62.85
-37.44
-14.61
8.55
37.38
75.24
121.22
169.32
210.51
235.97
240.36
223.60
190.29
148.25
105.65
69.46
43.79
29.95
26.94
31.91
41.44
51.78
59.68
62.84
60.98
56.16
52.19
53.39
61.66
75.15
87.91
92.00
80.17
48.27
-3.58
-71.02
-145.60
-216.62
-272.70
-304.96
-309.36
-288.15
-248.64
-200.10
-150.75
-105.33
-65.84
-32.48
-5.79
13.39
24.90
29.82
30.73
30.30
30.45
31.43
32.66
33.69
34.52
35.56
36.77
37.79
37.86
36.78
34.96
32.99
31.37
29.90
28.04
24.92
20.06
13.00
4.19
-4.94
-11.77
-12.88
-5.74
10.18
32.00
54.74
72.36
80.27
77.08
64.70
47.54
30.26
16.65
8.25
4.93
5.54
8.70
13.40
18.82
24.66
30.13
34.47
36.60
35.67
31.42
24.36
15.69
6.40
-2.69
-11.59
-20.54
-29.81
-38.81
-46.17
-50.20
-49.28
-43.61
-34.80
-25.69
-18.65
-14.43
-11.81
-7.97
-0.16
13.62
33.55
57.95
82.85
102.70
111.74
106.23
86.86
59.10
31.97
13.83
9.24
16.79
30.61
44.01
52.45
55.32
54.51
52.36
49.47
45.02
38.13
29.52
22.41
20.68
26.62
38.33
49.70
52.82
42.50
19.73
-8.53
-32.89
-47.42
-52.55
-54.32
-59.05
-68.37
-77.67
-79.26
-68.20
-45.72
-19.46
1.32
10.53
7.53
-3.95
-19.12
-34.24
-47.35
-56.85
-61.11
-58.62
-49.33
-35.24
-19.75
-6.49
2.28
5.84
4.99
1.42
-2.80
-5.69
-6.42
-5.50
-5.07
-7.36
-13.12
-19.93
-22.04
-12.18
15.06
59.84
116.31
173.36
218.66
242.92
242.88
221.82
187.11
146.90
106.79
69.19
33.86
-0.45
-34.87
-70.58
-108.87
-151.23
-197.66
-245.41
-288.20
-317.74
-326.47
-310.14
-269.52
-209.66
-138.97
-67.02
-3.65
42.72
66.56
66.93
48.60
20.97
-4.26
-17.35
-13.64
5.02
31.37
55.92
70.56
72.30
64.15
54.33
52.13
63.47
87.33
115.12
134.12
132.66
105.39
55.11
-8.25
-71.98
-124.70
-158.91
-171.64
-163.45
-138.34
-102.69
-65.14
-34.35
-16.18
-11.33
-14.92
-19.04
-16.13
-2.85
19.01
43.68
64.27
75.68
75.63
64.84
45.93
23.00
0.43
-17.12
-25.67
-23.57
-12.54
2.13
13.97
17.83
12.95
2.68
-7.81
-14.88
-18.19
-19.41
-19.94
-18.59
-12.97
-2.16
11.07
21.15
23.47
17.91
9.65
5.02
6.80
11.46
11.76
2.49
-15.56
-35.79
-50.77
-56.42
-54.23
-48.25
-41.03
-32.11
-19.27
-2.11
16.75
32.59
42.22
45.34
43.93
39.66
31.99
19.15
0.47
-21.30
-41.11
-54.59
-61.01
-63.51
-65.92
-68.98
-68.60
-59.20
-38.06
-9.17
17.51
31.07
25.86
5.14
-20.93
-40.17
-45.03
-35.54
-17.90
-0.30
11.83
17.62
20.16
23.10
28.83
37.00
45.08
49.92
49.23
42.69
31.81
19.96
10.49
5.82
6.36
10.23
14.19
15.16
12.40
7.14
2.36
0.94
4.50
12.74
23.73
34.99
43.65
48.00
47.45
43.07
36.94
31.16
27.33
25.85
26.82
30.00
35.56
43.38
52.39
60.07
63.33
60.27
51.28
39.60
29.03
21.87
17.29
12.22
3.67
-9.52
-25.37
-40.38
-51.27
-56.64
-57.13
-54.76
-51.65
-48.67
-45.83
-42.30
-37.58
-31.48
-24.17
-15.99
-7.28
0.83
6.89
9.17
7.33
2.72
-1.49
-1.66
4.21
15.46
28.35
38.40
42.74
42.51
42.05
46.36
57.85
73.95
88.57
94.99
89.91
74.61
53.66
31.58
9.85
-12.52
-36.94
-62.00
-83.45
-96.22
-98.82
-95.20
-92.85
-98.07
-111.04
-124.56
-126.72
-107.85
-66.11
-9.56
47.20
90.11
111.17
111.02
95.77
72.55
45.94
17.25
-13.28
-44.60
-73.87
-98.11
-115.58
-126.64
-131.96
-130.08
-117.53
-91.32
-53.11
-10.87
23.54
41.38
42.98
38.59
42.96
66.37
108.13
156.46
195.33
212.59
205.67
181.28
149.99
120.83
97.70
80.56
67.65
57.46
48.40
37.26
19.46
-9.28
-49.22
-94.49
-134.24
-157.65
-159.81
-144.69
-123.86
-110.79
-114.69
-136.05
-167.35
-196.93
-214.58
-215.49
-200.61
-174.23
-140.24
-100.08
-52.41
4.62
70.57
141.10
207.76
259.86
287.27
283.97
250.44
194.94
132.09
79.10
50.91
55.09
89.09
140.89
193.74
231.69
244.76
230.93
194.65
144.17
88.59
36.92
-2.42
-22.08
-17.99
8.23
48.08
87.90
113.49
114.77
89.38
42.55
-15.69
-74.62
-125.83
-164.47
-189.05
-199.69
-197.45
-183.81
-161.19
-133.47
-105.54
-81.63
-62.88
-46.42
-25.76
5.28
48.63
99.29
146.26
177.23
183.65
164.61
125.70
75.53
21.54
-31.91
-82.46
-127.95
-164.85
-189.63
-200.31
-198.53
-189.25
-179.06
-173.49
-174.70
-180.91
-186.70
-185.63
-172.74
-147.19
-112.85
-76.44
-44.62
-21.13
-6.34
1.59
4.13
1.63
-5.86
-16.62
-26.18
-28.90
-20.34
-0.48
26.24
52.40
70.72
76.64
69.04
50.16
24.32
-2.34
-23.32
-33.32
-30.08
-15.55
5.05
25.19
40.00
46.84
45.64
37.73
24.65
8.37
-8.59
-23.01
-32.04
-33.72
-28.54
-19.26
-10.01
-5.01
-6.70
-14.85
-26.02
-35.41
-38.37
-32.86
-20.54
-5.69
6.41
11.83
8.65
-2.67
-20.50
-42.46
-65.43
-85.28
-97.17
-97.52
-85.38
-63.99
-39.44
-18.18
-4.53
0.40
-1.96
-8.97
-18.64
-28.96
-38.16
-44.54
-47.22
-47.25
-47.64
-52.63
-65.20
-85.69
-110.59
-133.70
-148.53
-150.36
-137.75
-112.23
-77.93
-39.71
-2.00
32.30
62.59
90.55
119.92
154.63
197.20
246.23
296.04
337.54
361.24
360.58
334.18
286.65
226.26
162.28
102.06
49.60
5.91
-29.61
-57.80
-79.00
-92.29
-96.13
-88.78
-69.07
-37.53
3.02
47.54
90.40
126.74
153.91
171.53
180.78
183.31
180.22
171.95
157.91
137.20
108.28
70.05
22.90
-29.99
-81.98
-124.45
-149.18
-151.85
-133.51
-100.13
-60.25
-22.25
7.65
25.94
30.99
23.24
4.76
-20.78
-48.60
-73.88
-93.16
-105.29
-111.35
-114.19
-116.75
-120.60
-124.64
-125.19
-117.96
-100.88
-76.70
-52.24
-35.40
-30.28
-34.77
-42.06
-45.21
-42.15
-36.37
-33.84
-37.01
-41.84
-39.35
-21.59
12.45
55.37
94.65
119.10
123.82
111.23
88.00
61.06
34.68
10.22
-12.13
-32.01
-47.89
-57.79
-60.54
-56.75
-49.31
-42.16
-38.49
-38.44
-38.73
-33.89
-19.33
5.50
36.29
65.47
85.76
92.94
87.44
72.93
53.95
34.06
15.35
-0.69
-12.80
-19.83
-21.60
-19.24
-14.65
-9.43
-4.30
0.64
5.80
10.89
15.20
18.41
21.07
24.75
31.12
41.06
53.45
66.41
77.04
82.54
81.35
74.12
63.79
54.46
49.71
50.81
58.36
72.01
91.26
115.33
142.44
168.90
188.49
194.04
179.95
146.24
97.15
38.66
-23.94
-86.71
-145.36
-194.18
-226.47
-236.60
-220.46
-179.41
-120.54
-53.85
11.62
71.13
124.04
171.61
201.25
202.49
173.43
123.30
65.81
11.45
-34.61
-71.28
-99.79
-122.40
-139.30
-150.26
-155.83
-157.66
-157.81
-157.85
-158.62
-160.70
-164.33
-168.08
-170.34
-170.37
-168.55
-165.53
-161.51
-156.33
-150.02
-142.59
-133.75
-123.72
-113.55
-104.87
-98.99
-95.87
-94.42
-93.33
-91.01
-86.45
-79.63
-71.46
-63.17
-55.28
-45.93
-31.71
-12.73
11.60
40.63
72.31
103.48
130.86
152.22
168.48
182.21
197.10
217.68
247.39
287.13
334.08
381.45
419.59
440.43
438.26
412.26
367.96
315.33
266.20
230.80
215.01
207.11
196.64
174.62
137.53
88.95
36.12
-13.95
-57.44
-94.25
-126.57
-155.01
-178.93
-196.24
-203.77
-200.47
-187.04
-165.66
-139.30
-111.35
-83.84
-59.69
-44.11
-41.41
-52.64
-74.04
-98.49
-118.69
-130.31
-132.34
-127.16
-118.18
-107.49
-95.53
-82.06
-67.58
-53.88
-43.43
-37.49
-35.68
-36.08
-35.99
-33.17
-26.89
-18.20
-9.16
-1.94
2.40
4.05
4.35
5.21
8.21
13.98
21.86
30.51
38.23
43.70
46.20
45.66
42.47
37.15
30.12
21.37
11.15
-0.23
-12.15
-23.71
-34.05
-42.37
-48.13
-51.20
-52.12
-51.31
-49.23
-46.19
-42.27
-37.45
-31.47
-23.91
-12.88
0.67
15.97
32.25
47.87
62.43
74.95
84.32
89.51
89.74
84.32
73.38
57.49
38.38
17.73
-3.09
-22.81
-40.25
-54.71
-65.90
-73.54
-77.63
-78.45
-76.51
-72.61
-67.50
-61.92
-56.57
-52.10
-48.96
-47.48
-47.85
-50.11
-54.22
-59.78
-67.57
-76.00
-83.42
-88.30
-89.38
-85.69
-76.80
-62.86
-44.38
-20.48
6.02
32.88
58.21
80.50
98.70
112.08
120.32
123.74
123.10
118.85
111.96
103.31
93.51
82.86
71.37
59.10
46.37
33.90
22.08
11.77
3.77
-1.50
-4.18
-4.73
-3.63
-1.19
2.63
7.53
13.27
19.18
23.70
24.80
20.14
7.95
-12.52
-37.15
-63.14
-88.11
-110.05
-128.06
-142.15
-153.10
-161.96
-169.93
-178.19
-187.66
-198.23
-207.31
-210.37
-202.21
-179.73
-143.90
-100.13
-58.12
-22.96
2.30
18.15
27.53
33.80
38.69
41.96
42.28
38.61
31.27
21.05
9.19
-3.69
-17.80
-33.73
-51.95
-72.00
-92.47
-111.33
-127.24
-139.53
-148.46
-155.00
-160.91
-167.58
-175.62
-184.76
-194.03
-202.56
-209.69
-215.11
-218.92
-221.29
-222.30
-221.68
-219.01
-213.77
-205.81
-195.20
-182.09
-166.80
-149.40
-129.79
-107.73
-83.22
-56.60
-28.55
0.11
28.69
56.87
84.82
112.95
141.55
170.36
198.44
224.39
246.70
264.60
278.21
288.78
298.06
307.66
318.40
330.02
341.75
352.48
361.89
370.52
379.65
390.74
405.11
423.97
448.08
477.20
508.93
538.39
558.55
562.26
545.06
507.28
454.79
396.79
343.05
300.67
273.05
259.87
258.61
265.95
277.73
289.34
295.36
290.91
272.71
240.40
196.12
143.46
86.51
27.72
-31.74
-92.48
-155.65
-222.64
-294.32
-370.05
-446.92
-518.48
-576.42
-612.91
-624.96
-615.80
-594.03
-569.70
-548.80
-531.52
-512.67
-486.62
-450.97
-409.27
-368.89
-336.95
-317.29
-308.55
-306.45
-305.55
-302.64
-296.25
-286.17
-271.91
-251.51
-223.48
-187.07
-144.20
-98.82
-55.84
-18.61
12.77
41.18
71.43
106.95
149.49
198.11
249.45
298.05
337.11
360.04
362.60
344.10
306.34
254.29
195.88
139.12
91.80
60.75
50.68
65.08
104.20
163.00
233.22
308.43
382.79
452.20
512.20
555.84
578.40
577.75
555.21
516.98
475.87
442.53
422.08
411.66
401.90
387.00
365.87
341.35
296.02
223.16
125.90
18.15
-67.65
-127.32
-163.03
-177.52
-178.18
-170.92
-159.04
-148.05
-144.54
-154.97
-185.02
-231.40
-285.67
-337.63
-379.54
-406.44
-420.57
-429.71
-443.61
-471.27
-512.03
-558.16
-597.67
-619.09
-613.75
-580.11
-523.63
-453.63
-381.27
-312.64
-249.56
-190.64
-134.04
-78.32
-23.91
27.36
73.35
110.48
135.75
146.24
141.10
123.46
101.06
83.64
78.13
85.57
99.05
108.31
104.21
82.98
46.87
1.41
-47.37
-95.30
-139.01
-175.27
-199.90
-208.96
-200.41
-175.47
-138.97
-98.11
-60.17
-29.58
-7.91
6.21
16.09
25.38
36.99
51.55
67.18
81.12
92.81
103.74
117.86
140.38
175.65
225.25
285.92
349.07
403.84
441.17
454.90
444.37
415.25
378.19
345.54
327.34
327.23
329.05
316.36
275.96
205.44
114.00
16.39
-74.80
-147.75
-205.76
-253.31
-291.11
-317.69
-331.06
-330.85
-319.06
-300.36
-280.16
-262.94
-248.06
-229.35
-199.60
-154.26
-94.78
-28.87
32.75
80.99
111.22
125.23
129.05
128.50
126.90
124.43
119.91
112.58
103.18
93.31
85.14
80.57
79.99
82.87
88.11
93.92
97.23
93.79
79.60
53.78
20.15
-13.61
-38.86
-49.98
-46.81
-34.23
-19.27
-7.40
-0.35
3.42
6.26
9.56
11.99
11.77
8.03
1.65
-5.30
-10.85
-13.94
-15.19
-16.15
-18.46
-23.01
-29.51
-36.46
-41.47
-42.15
-36.99
-26.25
-11.85
2.92
14.90
22.00
24.27
23.90
24.25
28.21
37.08
50.53
67.17
85.70
105.20
125.49
146.52
167.46
186.52
201.19
209.14
208.71
201.78
190.39
176.88
163.18
149.93
136.55
121.67
103.88
82.73
59.22
35.53
14.49
-1.26
-10.35
-13.18
-11.53
-8.09
-5.42
-5.38
-9.01
-16.32
-26.21
-36.60
-44.74
-47.94
-44.84
-36.17
-25.08
-15.97
-12.58
-16.10
-24.60
-34.21
-41.29
-44.63
-45.73
-47.46
-51.44
-56.46
-58.83
-54.72
-42.94
-26.27
-10.61
-1.80
-2.55
-10.92
-21.58
-28.93
-30.31
-27.11
-23.34
-22.91
-27.02
-33.67
-39.00
-40.01
-36.45
-30.81
-26.90
-27.21
-31.39
-36.42
-38.56
-35.75
-28.60
-20.08
-13.38
-10.39
-10.99
-14.11
-19.21
-26.83
-37.58
-50.55
-62.39
-68.29
-64.66
-51.37
-32.48
-14.38
-2.73
0.04
-4.93
-14.41
-25.29
-36.10
-46.81
-57.73
-68.74
-79.29
-89.26
-99.67
-112.51
-129.47
-150.60
-173.75
-194.71
-209.18
-214.68
-212.06
-205.57
-201.25
-204.44
-217.32
-237.76
-259.81
-275.98
-279.86
-268.33
-242.31
-205.96
-165.09
-125.40
-91.25
-65.11
-47.62
-37.91
-33.91
-32.92
-32.25
-29.95
-25.21
-18.23
-9.73
-0.52
8.47
15.61
18.32
13.58
-0.62
-23.69
-51.85
-79.19
-99.78
-109.64
-107.43
-93.98
-71.35
-42.54
-11.94
14.66
31.27
34.49
25.77
11.72
1.11
0.44
10.45
26.01
39.39
44.60
40.41
29.77
17.27
6.13
-2.77
-9.84
-14.85
-16.13
-11.55
-0.32
15.70
32.53
45.96
53.73
56.23
55.76
54.73
54.04
52.82
49.26
41.96
30.90
17.60
4.61
-5.57
-11.32
-12.33
-9.58
-5.11
-1.25
0.45
-0.60
-3.63
-7.54
-11.81
-16.86
-23.34
-31.11
-38.43
-42.11
-39.33
-29.00
-12.62
6.04
23.40
38.16
51.62
66.05
82.69
100.16
115.82
127.63
133.96
134.57
129.25
116.50
93.19
57.22
9.08
-45.14
-94.88
-132.22
-153.16
-158.74
-153.22
-141.91
-127.76
-113.38
-99.18
-84.43
-73.26
-70.03
-76.84
-91.92
-111.35
-129.41
-145.18
-158.29
-167.42
-176.15
-187.28
-201.62
-218.44
-238.00
-259.91
-288.84
-326.80
-335.48
-286.58
-175.86
-28.09
122.53
237.41
324.85
395.58
456.68
511.14
552.32
570.19
558.88
519.67
455.51
377.79
297.18
224.13
165.04
116.95
73.64
31.32
-8.95
-43.10
-64.78
-73.62
-72.06
-63.98
-55.99
-54.72
-63.61
-81.80
-104.21
-121.69
-126.80
-113.98
-85.23
-43.48
2.64
43.20
70.78
83.30
84.82
81.06
77.82
79.10
86.65
99.63
116.75
136.35
156.02
171.58
177.61
172.15
158.53
144.41
137.25
141.66
157.60
181.10
207.24
232.06
252.51
266.25
271.17
264.48
244.15
210.02
164.49
113.46
61.86
14.52
-25.07
-55.87
-79.14
-97.09
-112.08
-126.62
-131.84
-124.29
-102.78
-67.69
-22.39
28.06
78.02
122.48
157.32
182.30
194.94
192.91
174.74
144.80
109.42
75.14
46.63
10.47
-35.02
-90.44
-157.51
-224.79
-286.27
-337.90
-377.21
-402.29
-412.27
-404.30
-378.76
-337.85
-283.88
-221.63
-155.91
-91.53
-32.71
17.21
58.08
89.72
112.39
127.79
136.32
138.62
135.51
128.31
119.24
111.83
108.56
109.15
111.76
111.70
104.41
86.78
57.56
17.51
-31.31
-86.29
-145.33
-205.29
-263.16
-315.29
-357.94
-388.93
-407.35
-414.22
-411.18
-400.79
-385.25
-366.74
-347.28
-328.37
-311.87
-299.05
-290.93
-286.97
-285.66
-284.85
-282.27
-276.87
-268.27
-257.32
-244.81
-231.56
-217.71
-202.93
-186.85
-168.73
-148.18
-124.46
-97.66
-68.38
-38.15
-9.66
14.54
32.34
43.15
47.78
48.78
48.85
49.83
51.54
51.17
44.96
30.12
7.50
-18.14
-39.18
-48.34
-41.95
-20.99
9.25
42.08
71.53
94.35
109.17
115.40
112.28
98.73
74.59
41.05
1.67
-38.89
-75.88
-105.53
-126.09
-137.45
-140.64
-136.74
-126.57
-109.87
-86.09
-55.03
-17.26
25.36
70.19
114.17
154.34
188.27
214.60
232.85
243.04
245.77
241.85
232.51
219.22
203.61
187.15
171.10
156.37
143.14
131.33
120.16
108.78
96.27
82.07
66.16
49.03
31.75
15.39
1.25
-9.87
-17.35
-21.00
-21.04
-17.91
-11.45
-2.80
7.87
20.74
35.83
52.96
71.68
91.30
110.96
130.35
147.68
162.00
172.75
179.54
182.06
179.99
173.29
162.04
147.93
129.64
107.89
83.67
57.96
31.41
4.28
-23.21
-50.60
-72.71
-92.50
-107.18
-113.47
-108.58
-91.10
-61.76
-22.48
23.45
81.03
137.34
190.46
240.14
288.00
337.32
392.20
458.10
537.19
640.24
743.75
837.28
911.86
963.01
991.86
1003.58
1008.55
1014.11
1039.48
1059.90
1067.41
1054.40
1016.67
954.97
875.16
794.15
615.60
494.68
408.84
350.70
310.76
280.67
254.21
225.74
198.19
172.18
163.89
151.87
138.90
133.14
143.47
173.95
164.44
76.22
-98.14
-315.25
-543.87
-745.85
-902.50
-1012.47
-1083.81
-1127.48
-1144.02
-1133.85
-1091.59
-1035.04
-975.34
-921.41
-878.33
-846.64
-823.62
-797.67
-758.90
-698.40
-622.40
-536.56
-447.32
-362.12
-286.76
-224.75
-173.00
-127.83
-85.81
-48.94
-19.00
2.76
16.24
22.66
23.66
22.77
22.65
24.32
27.52
31.21
34.80
38.21
41.70
44.98
48.12
50.54
51.58
50.92
48.81
46.05
43.42
41.48
40.35
40.14
40.94
42.35
43.13
40.71
32.34
16.81
-4.08
-25.93
-43.62
-53.87
-58.24
-60.43
-64.52
-71.90
-80.31
-85.37
-83.75
-75.35
-63.40
-52.65
-46.35
-45.63
-49.46
-56.13
-63.94
-71.59
-77.51
-80.04
-78.35
-72.57
-63.99
-53.84
-42.24
-27.92
-9.87
10.54
29.23
40.16
38.56
23.70
-0.32
-26.59
-48.03
-61.88
-68.12
-68.52
-64.93
-58.07
-47.59
-33.08
-15.09
5.09
25.23
43.30
58.04
69.22
77.57
84.32
90.65
97.46
105.54
114.74
124.33
133.08
139.86
144.66
149.37
157.87
170.70
188.78
209.46
226.11
230.49
216.77
185.15
142.43
99.47
66.21
48.72
47.37
58.89
79.53
106.62
137.37
166.67
187.06
191.44
177.97
152.18
124.69
106.65
103.48
111.43
119.31
114.34
88.69
43.93
-9.90
-60.10
-94.50
-105.65
-93.41
-65.55
-34.44
-12.29
-6.65
-18.65
-47.41
-87.95
-133.50
-178.02
-218.22
-253.12
-282.22
-304.89
-321.42
-339.71
-366.40
-403.09
-446.39
-490.66
-531.10
-563.90
-586.69
-598.97
-609.51
-625.20
-646.92
-669.94
-687.58
-693.75
-682.92
-651.06
-552.83
-379.01
-161.98
44.19
200.51
298.25
349.08
370.91
378.44
378.75
367.35
341.00
304.00
265.96
236.91
222.32
223.49
238.23
262.09
282.87
289.47
277.12
246.43
203.62
157.57
117.79
91.37
79.76
74.98
67.02
51.10
27.76
4.48
-11.14
-15.81
-12.25
-7.05
-6.29
-10.50
-13.11
-6.80
15.11
51.99
97.20
141.89
179.42
208.39
218.67
221.55
211.78
187.09
148.15
102.22
61.28
37.73
41.05
71.56
119.23
167.78
206.32
229.40
239.62
243.04
232.80
206.75
183.26
165.22
141.41
107.27
56.12
-7.65
-71.20
-119.36
-141.19
-136.23
-114.41
-86.87
-58.56
-30.75
-0.57
33.70
68.86
99.83
121.51
128.46
119.43
98.39
66.77
31.23
-2.48
-31.86
-56.30
-75.97
-93.05
-108.11
-119.18
-125.69
-126.43
-122.07
-114.75
-110.76
-108.95
-108.16
-105.99
-98.67
-85.75
-66.90
-44.01
-20.36
0.68
17.05
26.37
27.22
26.95
25.06
20.57
11.49
-3.07
-22.19
-42.52
-60.70
-79.70
-96.23
-110.98
-124.69
-139.91
-158.35
-179.64
-201.38
-221.53
-238.85
-244.36
-237.73
-220.50
-197.53
-173.61
-152.25
-135.97
-126.59
-124.00
-125.88
-130.51
-125.75
-105.76
-72.83
-36.72
-9.60
-2.82
-12.60
-29.45
-45.11
-48.06
-35.73
-17.47
-1.52
6.55
5.94
-1.43
-12.39
-24.53
-35.93
-47.42
-58.99
-67.45
-68.03
-56.75
-33.37
-3.22
24.64
41.83
42.93
28.02
2.59
-27.03
-55.15
-77.70
-91.59
-93.64
-80.98
-52.82
-11.34
39.19
92.35
141.75
182.84
213.37
233.65
245.49
251.55
254.65
258.13
265.02
277.44
296.11
319.27
342.53
359.33
363.61
351.86
325.59
290.84
255.69
227.31
208.39
196.86
186.69
172.31
151.53
127.68
108.41
100.86
108.83
130.03
157.93
184.24
202.54
209.86
205.56
190.43
164.26
127.24
80.52
28.19
-23.76
-69.03
-103.11
-125.33
-137.43
-143.67
-148.60
-157.09
-173.39
-200.05
-236.42
-277.57
-315.47
-340.45
-346.40
-332.32
-302.45
-264.01
-223.68
-186.80
-156.99
-137.64
-131.37
-139.71
-160.54
-186.05
-204.90
-206.05
-184.36
-141.91
-86.77
-28.24
25.97
70.19
99.97
112.53
108.00
88.17
56.09
15.66
-28.40
-71.14
-110.31
-143.27
-167.84
-182.06
-185.23
-177.34
-158.16
-125.21
-76.45
-14.16
55.87
125.29
185.95
231.92
260.78
273.41
273.07
263.81
249.19
232.63
216.80
203.88
194.99
189.56
184.80
175.82
157.40
126.75
86.03
41.84
2.66
-25.18
-40.21
-45.58
-46.45
-46.78
-47.23
-45.48
-38.84
-26.16
-8.81
9.96
27.01
40.60
49.92
54.95
55.86
52.17
43.12
28.29
7.54
-18.14
-47.30
-77.44
-105.14
-126.85
-139.67
-142.02
-133.84
-116.87
-94.28
-70.79
-50.52
-36.00
-27.82
-25.16
-26.38
-29.80
-34.55
-40.48
-49.53
-64.01
-85.57
-114.67
-149.52
-185.75
-217.13
-237.69
-237.28
-213.51
-171.09
-120.47
-74.51
-44.26
-35.38
-46.81
-71.12
-97.04
-114.01
-114.12
-94.19
-55.95
-5.26
49.98
101.56
142.96
170.45
182.08
178.12
160.70
134.27
105.65
83.35
75.18
86.97
120.41
171.51
231.17
287.44
329.51
351.09
351.91
335.36
307.00
272.12
233.66
192.29
147.44
99.21
49.26
0.46
-46.04
-89.25
-127.52
-158.84
-181.43
-194.80
-199.82
-198.57
-194.11
-192.68
-200.16
-219.61
-249.98
-286.32
-320.99
-345.08
-350.85
-321.50
-253.63
-161.39
-69.63
1.24
44.43
64.18
68.83
65.58
58.42
46.67
29.54
8.93
-10.99
-26.13
-35.16
-39.52
-42.19
-45.93
-53.82
-66.74
-82.34
-97.27
-107.48
-111.37
-109.53
-103.81
-95.75
-87.14
-78.54
-69.01
-57.00
-41.96
-25.22
-9.45
2.46
9.17
11.07
10.23
10.09
13.98
23.67
38.84
58.18
76.03
89.63
99.41
107.23
116.09
127.87
141.97
155.31
163.60
163.19
153.18
136.96
119.06
104.96
98.34
100.39
110.65
128.24
151.97
169.37
168.04
137.02
75.64
-4.25
-82.65
-139.89
-164.68
-158.22
-132.21
-96.69
-62.68
-33.58
-7.09
19.69
46.85
70.80
86.88
93.36
94.97
91.31
88.29
92.74
106.98
128.01
149.27
164.37
170.40
169.40
165.56
165.07
174.52
196.77
230.27
269.68
307.71
337.07
351.48
345.93
303.71
220.60
108.18
-9.62
-109.80
-180.90
-223.40
-244.56
-252.13
-250.22
-238.47
-216.94
-188.29
-157.90
-130.86
-108.86
-91.41
-76.55
-61.58
-44.50
-26.56
-11.57
-4.32
-7.78
-20.60
-40.19
-63.20
-86.52
-107.82
-126.78
-144.43
-162.38
-181.99
-202.86
-226.92
-257.31
-292.01
-321.89
-337.26
-331.35
-304.65
-273.63
-244.16
-219.14
-199.04
-180.12
-161.80
-147.15
-142.77
-156.08
-190.42
-239.77
-292.03
-332.15
-348.03
-336.47
-303.65
-261.48
-221.50
-189.92
-165.20
-143.00
-119.20
-91.92
-62.52
-33.44
-6.34
18.77
43.10
68.62
95.34
121.61
145.18
164.04
177.57
186.54
192.53
197.20
201.96
207.05
212.03
216.66
221.10
226.05
232.41
241.09
253.11
269.59
290.66
314.67
337.78
354.76
361.18
355.68
341.05
323.05
307.30
296.09
287.47
277.17
262.08
243.21
225.77
216.20
218.42
231.64
251.13
271.35
289.05
304.48
320.04
338.02
358.45
378.65
394.52
402.12
398.96
384.60
360.06
327.27
288.76
246.94
203.55
159.39
114.76
70.51
28.73
-7.72
-37.33
-61.28
-84.34
-113.09
-153.03
-205.33
-265.39
-324.34
-372.64
-404.49
-418.85
-419.33
-411.56
-400.49
-388.96
-377.42
-364.54
-348.79
-330.47
-311.16
-294.26
-283.10
-279.99
-285.88
-300.49
-323.05
-345.94
-362.75
-368.57
-361.72
-342.21
-311.16
-271.88
-230.32
-193.82
-168.37
-158.30
-159.84
-167.91
-178.09
-189.23
-204.22
-227.62
-261.94
-304.94
-349.71
-382.54
-390.48
-364.20
-301.93
-210.24
-101.59
10.00
113.03
200.23
269.14
319.63
352.96
370.80
375.21
369.16
356.62
341.79
328.00
316.95
308.60
302.54
298.81
298.02
300.52
306.03
313.43
321.29
328.16
332.08
330.17
318.60
294.06
255.59
206.05
151.51
98.32
50.17
6.94
-33.51
-71.61
-103.68
-122.67
-121.37
-96.88
-53.04
0.75
53.23
94.91
120.41
128.72
121.80
103.83
80.08
56.24
37.48
27.58
28.36
39.87
60.76
88.37
118.81
146.89
166.95
174.55
168.22
150.25
125.81
100.76
79.10
61.40
44.41
23.35
-5.06
-39.90
-75.43
-102.94
-114.70
-108.09
-87.85
-65.67
-55.58
-68.06
-105.38
-160.91
-221.93
-275.16
-311.33
-327.16
-325.32
-311.08
-289.05
-262.12
-232.53
-203.37
-178.88
-162.90
-150.81
-135.63
-110.09
-70.88
-21.46
29.39
71.95
99.61
111.19
110.66
103.24
91.40
73.61
46.19
6.34
-45.36
-104.17
-162.06
-209.95
-234.62
-231.46
-203.98
-160.89
-111.86
-63.72
-19.64
20.00
55.68
86.71
110.38
124.88
130.87
131.51
131.63
135.54
145.74
162.41
183.49
203.76
217.91
222.31
215.76
199.35
174.95
144.81
110.97
74.22
33.87
-11.11
-60.56
-112.46
-162.74
-206.76
-239.59
-257.30
-258.55
-245.18
-221.82
-193.95
-167.24
-140.60
-116.65
-98.88
-89.75
-89.75
-91.80
-88.09
-72.69
-45.95
-14.92
9.93
21.99
22.35
18.04
17.04
22.80
32.15
37.81
33.17
15.98
-10.92
-39.75
-62.67
-74.43
-73.23
-59.46
-35.26
-4.19
29.62
58.08
74.14
75.19
64.95
51.16
42.39
43.82
55.45
72.85
90.80
105.25
113.71
114.87
108.10
94.08
75.31
56.30
40.95
33.50
34.12
38.77
41.38
37.08
24.43
5.13
-17.68
-41.13
-63.57
-84.40
-102.76
-116.99
-125.53
-126.82
-120.86
-109.30
-94.49
-78.57
-62.89
-47.64
-32.28
-16.33
-0.27
14.02
23.78
26.37
20.83
8.21
-8.10
-23.20
-31.93
-30.40
-16.89
8.28
40.84
76.38
110.73
141.10
166.22
185.97
200.59
210.07
214.59
214.66
211.31
204.58
192.87
173.35
144.05
106.19
64.83
27.20
-1.06
-18.51
-28.62
-37.28
-48.88
-63.66
-77.99
-87.26
-89.10
-84.88
-78.35
-73.23
-70.97
-70.43
-69.25
-65.53
-59.10
-51.38
-44.43
-39.67
-37.22
-35.93
-33.97
-29.69
-22.24
-12.08
-0.70
9.98
18.29
23.25
24.57
22.57
17.67
10.14
0.30
-11.46
-24.43
-37.38
-48.52
-55.45
-56.70
-51.33
-39.33
-21.44
0.85
25.65
50.80
74.35
94.62
109.91
118.96
121.09
116.15
104.64
87.71
66.68
43.82
21.03
-0.32
-19.15
-34.69
-46.64
-55.01
-59.97
-61.86
-61.24
-59.00
-56.12
-53.42
-51.38
-50.19
-49.60
-49.10
-48.04
-46.15
-43.71
-41.38
-40.27
-40.54
-42.09
-44.33
-46.30
-47.35
-47.04
-45.87
-44.61
-44.11
-44.85
-47.07
-50.59
-54.80
-58.87
-61.70
-61.61
-56.77
-45.98
-28.94
-7.36
15.40
35.52
50.13
58.25
61.29
61.24
58.31
51.11
36.72
13.27
-17.66
-50.10
-75.95
-88.04
-83.36
-64.49
-37.91
-10.62
12.16
28.39
37.95
40.88
36.83
25.83
9.77
-6.58
-16.82
-16.43
-4.72
13.83
31.60
41.21
38.83
25.18
5.02
-16.17
-34.46
-47.99
-57.10
-62.60
-65.29
-64.37
-59.46
-50.56
-38.63
-25.48
-12.81
-1.89
6.76
13.42
18.85
23.68
28.03
31.69
34.43
37.08
41.73
51.27
67.27
87.98
108.66
122.37
123.69
111.23
88.66
62.86
41.45
28.04
23.67
27.21
36.46
49.12
62.22
71.79
72.72
62.36
40.96
12.50
-16.73
-42.21
-61.29
-73.39
-79.15
-78.80
-71.78
-57.40
-35.73
-8.04
23.28
55.52
85.45
109.51
123.88
125.25
112.44
88.36
60.30
37.58
27.75
32.62
47.46
63.72
73.96
75.54
71.26
66.46
64.68
65.31
63.95
55.98
40.16
20.33
3.31
-4.58
-1.33
9.90
22.66
30.72
31.17
24.94
17.43
12.80
12.76
15.37
15.84
9.38
-5.49
-25.12
-41.56
-45.64
-31.55
0.83
45.40
92.19
130.55
153.10
157.29
145.64
123.57
96.77
69.62
44.24
21.44
2.07
-12.44
-20.38
-20.97
-15.31
-6.98
-0.24
1.80
-2.20
-11.91
-27.03
-47.69
-73.90
-104.56
-138.24
-171.07
-197.58
-212.52
-212.74
-198.68
-173.63
-142.87
-112.46
-91.72
-87.77
-103.39
-135.93
-179.26
-226.40
-271.35
-310.55
-342.95
-373.57
-407.75
-448.58
-495.98
-547.43
-598.91
-644.53
-677.19
-663.90
-586.90
-450.93
-283.70
-121.41
8.91
96.28
144.48
164.51
167.71
158.47
137.33
108.73
79.75
57.81
46.13
45.53
53.98
67.75
80.21
88.44
94.45
103.22
119.05
141.01
167.43
195.79
223.43
246.96
266.33
284.14
304.39
330.38
360.85
396.85
440.02
490.81
533.23
549.39
525.12
458.21
378.67
301.10
235.31
187.04
151.40
124.01
101.07
80.60
64.02
54.32
49.68
48.40
46.00
37.10
19.94
-0.79
-15.06
-11.83
14.62
54.39
93.19
114.81
108.89
76.22
26.36
-29.03
-81.63
-127.27
-170.40
-211.99
-249.50
-277.89
-291.83
-289.02
-271.68
-243.95
-211.66
-184.16
-166.42
-157.33
-150.46
-137.42
-113.36
-78.90
-39.79
-3.66
23.51
41.26
52.85
61.96
71.58
82.33
93.84
104.87
114.21
120.93
125.26
128.92
130.44
128.56
121.84
109.65
91.01
65.54
33.43
-4.00
-44.70
-87.36
-129.42
-168.19
-200.35
-224.50
-239.91
-246.95
-246.21
-229.50
-196.21
-149.18
-98.29
-45.63
6.65
56.16
100.11
135.97
159.86
167.50
157.76
132.94
99.90
64.51
36.20
22.66
24.69
35.17
42.93
40.28
25.73
4.23
-18.47
-38.51
-55.69
-72.49
-91.60
-114.21
-138.22
-160.12
-176.98
-186.03
-185.99
-176.90
-159.47
-134.29
-101.99
-63.30
-19.86
26.05
70.47
108.16
133.80
143.21
134.73
109.41
70.94
22.01
-30.88
-80.28
-119.43
-142.98
-147.75
-131.75
-95.63
-44.06
14.98
73.58
125.52
167.01
196.64
214.03
219.70
215.03
202.09
183.86
164.31
146.95
133.93
125.63
120.74
116.90
111.94
104.47
94.67
84.27
75.26
69.10
66.51
67.53
71.62
76.96
80.10
76.48
62.12
35.58
-0.62
-40.15
-75.23
-99.50
-110.60
-110.64
-104.18
-95.44
-86.50
-77.23
-66.46
-54.03
-40.96
-29.10
-20.13
-14.65
-12.00
-10.89
-10.20
-9.49
-9.10
-9.99
-12.56
-16.44
-20.61
-23.53
-23.84
-21.06
-15.78
-9.62
-4.63
-2.44
-4.01
-9.13
-16.92
-25.83
-34.25
-40.82
-44.72
-45.58
-43.08
-37.33
-28.24
-16.28
-2.12
13.33
29.17
44.40
58.17
69.98
79.21
85.37
87.73
85.33
77.28
63.28
44.03
21.30
-2.53
-25.12
-44.68
-60.33
-72.37
-81.71
-89.30
-95.62
-100.56
-103.52
-104.08
-102.16
-98.40
-94.01
-90.25
-88.12
-88.17
-90.89
-96.24
-103.01
-108.19
-107.40
-96.40
-73.24
-39.98
-2.65
30.91
54.33
65.06
64.83
57.94
48.63
39.31
30.11
19.91
8.11
-4.40
-15.52
-22.93
-25.20
-22.50
-15.32
-5.24
6.01
16.99
26.78
34.78
40.59
43.69
43.68
40.71
35.89
31.59
30.78
35.16
44.12
54.26
60.52
58.89
48.54
31.98
13.48
-3.10
-15.90
-24.42
-28.02
-24.97
-12.97
9.18
39.72
73.62
103.92
124.25
131.38
126.01
112.02
95.01
80.57
72.91
74.43
85.36
103.70
125.14
143.78
153.44
149.60
130.76
99.83
63.67
31.03
9.61
3.46
12.10
31.23
55.15
78.65
98.27
112.15
119.00
118.48
110.13
94.30
72.71
48.17
24.00
3.14
-12.75
-23.72
-31.12
-36.93
-42.73
-49.05
-55.38
-60.53
-63.41
-63.85
-62.98
-63.04
-66.78
-76.48
-93.08
-116.02
-143.51
-173.25
-203.22
-232.09
-259.30
-284.84
-309.21
-333.38
-358.82
-386.76
-417.01
-446.63
-469.72
-478.78
-467.54
-433.86
-381.19
-317.63
-252.79
-194.43
-145.91
-106.10
-71.04
-36.25
1.42
42.91
87.24
132.43
176.01
215.52
248.95
274.97
293.21
304.78
312.43
319.89
330.42
344.82
360.22
370.50
368.54
349.48
313.19
264.71
212.16
163.53
123.69
93.56
70.86
51.82
33.37
14.25
-4.67
-20.78
-31.01
-32.73
-24.84
-8.03
15.31
42.57
71.98
103.06
136.48
172.77
211.15
248.49
279.90
299.84
304.33
292.43
266.30
230.04
188.04
143.39
97.47
50.69
3.30
-42.67
-83.69
-116.22
-138.80
-152.89
-162.27
-171.19
-182.73
-199.03
-219.83
-242.75
-264.78
-283.43
-297.47
-306.55
-310.79
-310.53
-308.12
-305.34
-303.38
-303.73
-308.75
-321.07
-341.42
-366.97
-391.02
-407.41
-410.00
-394.95
-362.39
-316.43
-263.11
-207.66
-152.86
-84.23
0.33
90.77
170.37
226.08
254.10
258.45
246.44
225.23
199.76
170.49
137.00
100.11
62.14
25.87
-6.13
-32.26
-51.90
-67.40
-81.03
-94.27
-107.08
-118.04
-125.55
-128.50
-126.91
-121.79
-115.06
-109.46
-107.23
-109.10
-114.19
-120.81
-126.50
-129.01
-126.42
-119.82
-110.44
-99.41
-87.25
-73.75
-58.21
-38.76
-14.26
15.03
47.24
79.64
109.37
134.19
153.09
166.49
178.37
192.42
210.58
232.24
255.37
277.63
297.20
313.33
326.44
341.83
364.04
395.42
436.05
484.98
540.88
600.90
659.48
708.27
743.15
760.60
758.91
738.57
703.06
657.98
608.75
558.86
478.83
356.54
199.85
34.41
-112.57
-225.83
-304.25
-355.59
-389.95
-415.46
-431.52
-435.27
-424.53
-401.15
-369.58
-334.41
-299.64
-268.90
-244.57
-223.33
-200.97
-174.01
-143.39
-112.32
-84.57
-63.72
-53.31
-55.64
-70.62
-96.04
-129.06
-169.70
-217.88
-267.59
-306.66
-323.15
-312.42
-278.79
-240.50
-205.44
-178.51
-161.80
-155.22
-155.54
-161.02
-170.12
-180.25
-187.87
-188.00
-177.83
-155.91
-121.79
-77.00
-26.15
23.32
62.85
84.94
86.38
67.54
33.04
-9.95
-55.25
-100.00
-144.14
-187.41
-226.58
-254.18
-262.19
-245.33
-204.12
-145.70
-81.34
-22.12
25.01
58.53
81.47
97.74
110.11
119.69
126.44
130.74
134.68
141.99
156.69
181.43
215.67
255.42
294.69
327.72
351.42
366.73
378.19
391.98
413.32
444.65
485.24
532.13
581.17
627.74
666.42
690.99
695.05
673.80
626.08
555.57
470.32
380.43
295.09
220.15
157.49
106.12
63.79
28.33
-1.89
-28.13
-51.63
-73.66
-95.21
-116.57
-137.04
-155.34
-169.89
-179.59
-184.06
-183.84
-180.11
-174.49
-168.63
-163.79
-160.91
-160.59
-163.16
-168.69
-176.81
-186.56
-196.21
-203.39
-205.29
-199.06
-182.41
-154.06
-114.10
-63.91
-6.02
56.29
119.27
179.12
232.27
275.59
306.52
323.18
324.54
310.46
281.76
240.06
187.69
127.39
62.10
-5.27
-72.19
-136.34
-195.87
-249.28
-295.25
-332.64
-360.27
-377.09
-382.16
-374.84
-354.99
-323.13
-280.54
-229.22
-171.81
-111.36
-51.14
5.59
55.67
96.43
125.78
142.57
146.78
139.62
123.42
101.26
76.40
51.55
28.49
7.96
-10.28
-26.97
-42.87
-58.36
-73.35
-87.80
-102.07
-117.28
-135.14
-157.62
-186.08
-220.80
-260.48
-302.94
-345.60
-386.49
-424.75
-460.51
-494.70
-528.46
-563.29
-600.39
-639.88
-679.70
-715.02
-738.81
-744.02
-726.37
-686.25
-629.21
-563.68
-497.95
-437.53
-384.35
-337.92
-297.29
-262.39
-233.92
-212.59
-197.79
-187.52
-179.30
-171.39
-163.67
-157.66
-155.57
-158.83
-166.86
-176.44
-181.64
-174.96
-149.18
-99.81
-27.56
60.82
153.91
239.04
306.10
350.33
372.57
377.83
372.70
363.20
353.46
345.75
340.31
335.69
329.04
316.77
296.20
266.96
231.85
195.97
164.56
140.65
124.20
112.84
103.65
95.41
89.21
87.71
93.60
108.06
129.87
156.11
183.46
209.17
231.40
248.87
260.22
263.87
258.62
244.44
223.09
198.03
173.39
153.09
139.72
133.98
134.26
136.96
137.39
131.27
116.53
94.37
69.26
47.57
35.51
37.22
53.46
82.00
118.72
159.21
199.81
237.72
270.69
296.56
313.52
320.49
317.64
306.46
289.40
269.34
248.97
230.65
216.35
207.67
205.78
211.09
222.93
239.98
260.60
283.23
306.14
326.65
340.47
342.18
326.70
291.33
237.46
170.63
98.96
30.72
-27.81
-73.16
-104.46
-122.63
-129.60
-127.97
-121.06
-112.97
-108.22
-110.08
-119.40
-134.00
-149.57
-161.65
-167.91
-169.31
-170.07
-176.19
-192.00
-218.05
-251.22
-286.56
-319.64
-348.18
-372.27
-393.56
-414.87
-437.31
-459.06
-476.06
-483.90
-479.89
-464.29
-440.02
-411.48
-384.54
-361.95
-342.11
-320.91
-295.01
-263.92
-229.49
-194.24
-160.08
-130.82
-108.80
-94.34
-86.39
-83.48
-83.90
-84.81
-82.42
-56.81
-1.49
72.83
144.20
194.11
215.56
211.09
187.65
152.89
113.23
70.97
26.16
-17.60
-54.77
-80.23
-91.39
-88.52
-73.91
-50.89
-25.05
-0.26
23.29
45.84
67.11
85.57
98.75
104.10
99.75
83.59
55.49
18.00
-24.70
-68.03
-108.25
-142.74
-169.96
-189.02
-200.25
-203.99
-200.04
-187.99
-167.53
-138.98
-103.35
-62.27
-17.91
26.84
69.10
106.47
137.58
162.00
180.04
192.51
200.73
205.91
208.98
210.46
210.77
211.34
213.84
219.97
231.13
248.23
271.23
298.86
329.01
359.25
389.01
418.03
446.08
472.99
499.44
527.05
557.71
592.29
629.09
665.40
694.36
707.09
696.04
659.04
600.29
528.14
451.19
375.14
305.09
241.60
182.49
124.79
67.48
11.43
-41.90
-91.94
-156.75
-239.32
-329.54
-409.10
-462.99
-484.74
-476.17
-443.84
-396.64
-342.13
-284.23
-228.00
-179.16
-143.12
-120.82
-108.17
-97.72
-82.36
-66.04
-49.78
-37.94
-31.11
-34.06
-48.11
-72.02
-99.35
-122.75
-136.14
-133.52
-112.85
-76.37
-31.07
14.36
51.24
73.95
81.16
76.38
67.82
63.25
67.14
79.22
96.78
116.29
135.07
151.03
162.26
167.24
163.87
150.28
125.55
91.37
51.32
10.19
-28.05
-61.23
-89.16
-113.26
-135.58
-157.84
-180.66
-203.81
-226.32
-247.24
-265.39
-279.26
-287.26
-288.55
-283.60
-274.38
-264.05
-255.81
-251.99
-253.21
-258.77
-267.35
-278.12
-290.43
-303.23
-314.13
-319.21
-313.66
-293.50
-257.11
-206.18
-145.86
-83.60
-27.53
14.78
37.91
39.59
21.33
-12.28
-55.37
-102.87
-150.98
-196.83
-237.36
-267.82
-281.96
-273.54
-239.62
-183.41
-115.03
-47.37
8.12
44.50
60.60
59.77
48.65
34.94
25.93
26.51
40.65
70.19
112.84
161.61
206.19
237.75
253.04
255.74
254.02
259.34
281.07
321.49
373.52
418.81
436.88
418.05
374.76
320.21
265.00
215.64
175.17
146.34
130.83
129.89
142.93
165.37
187.18
198.17
192.20
169.17
135.16
99.20
69.16
48.04
33.00
17.50
-1.94
-22.82
-38.57
-43.57
-38.12
-28.84
-24.38
-29.47
-41.50
-50.36
-45.07
-21.85
12.08
41.29
50.47
32.57
-7.87
-58.16
-103.90
-135.58
-151.69
-156.79
-157.77
-159.46
-163.03
-167.39
-171.38
-174.74
-177.66
-179.67
-178.26
-169.17
-148.17
-113.38
-67.07
-15.63
31.84
66.41
81.96
76.89
54.34
20.75
-16.73
-52.87
-85.59
-115.30
-142.75
-167.44
-187.16
-199.78
-205.93
-210.13
-219.32
-238.82
-268.45
-300.97
-325.04
-331.11
-316.84
-289.12
-260.56
-242.95
-240.81
-249.00
-255.62
-248.36
-220.63
-174.21
-117.75
-61.80
-13.96
23.54
52.77
77.38
99.87
120.86
140.18
158.34
177.74
201.68
232.39
268.97
306.47
336.86
351.84
346.03
319.34
277.43
229.64
185.49
151.04
126.98
109.29
92.16
71.70
48.63
28.06
16.31
16.82
27.18
40.10
46.98
42.75
28.77
11.75
-0.00
-0.92
9.76
28.52
50.46
71.80
90.94
107.68
121.88
132.73
138.98
139.48
133.54
120.73
100.70
73.17
38.81
-0.32
-40.84
-78.68
-110.19
-133.41
-148.36
-156.71
-161.04
-163.33
-164.42
-164.06
-162.17
-160.02
-160.31
-165.60
-175.89
-186.92
-190.30
-176.42
-138.51
-76.81
-0.12
76.11
135.24
165.85
166.39
145.64
118.80
101.20
102.10
121.73
152.41
183.34
205.46
214.57
211.27
198.30
178.39
153.58
126.35
100.71
82.44
76.69
84.92
103.38
124.20
138.87
141.90
133.24
117.07
99.41
84.96
74.41
64.19
48.12
20.47
-21.45
-75.46
-135.31
-191.73
-234.98
-258.07
-258.76
-239.86
-206.90
-166.35
-121.53
-79.11
-46.87
-30.05
-29.55
-42.59
-65.04
-92.01
-120.58
-148.03
-172.18
-190.59
-201.07
-202.95
-194.77
-177.16
-151.53
-119.11
-80.31
-35.43
16.02
74.97
142.01
216.55
295.66
373.98
443.45
494.66
519.18
513.17
479.17
425.38
362.44
299.31
241.47
189.76
141.47
92.72
41.12
-12.89
-66.34
-115.38
-157.26
-190.77
-217.53
-242.22
-270.84
-307.73
-353.38
-403.54
-450.13
-483.49
-493.52
-473.21
-421.10
-341.54
-243.11
-136.42
-31.86
61.74
130.65
164.46
160.95
125.85
69.13
1.71
-66.24
-125.92
-172.67
-206.81
-229.88
-244.64
-254.43
-261.71
-266.65
-267.49
-261.66
-246.08
-221.59
-190.66
-156.75
-123.05
-91.18
-60.27
-27.96
8.76
52.15
103.25
162.65
229.23
298.48
361.47
406.53
422.77
405.53
360.09
300.63
244.97
206.02
185.82
175.80
163.22
138.88
101.98
59.39
20.33
-9.01
-27.82
-38.51
-42.07
-35.38
-12.68
30.00
90.16
157.75
218.88
261.59
281.37
282.71
276.35
273.05
278.29
290.92
305.66
318.35
329.63
343.93
365.67
394.46
423.02
440.06
436.12
408.69
363.65
312.04
263.44
221.46
183.63
144.90
102.21
56.64
11.88
-29.21
-66.66
-103.17
-140.49
-176.08
-202.47
-209.39
-188.35
-136.64
-59.34
32.25
123.54
200.08
250.34
266.61
245.90
189.71
103.74
-3.48
-121.62
-239.89
-348.28
-438.19
-503.80
-541.96
-552.73
-538.75
-505.16
-458.88
-407.52
-358.40
-318.14
-292.80
-287.54
-305.34
-345.12
-400.99
-463.24
-520.57
-563.30
-586.14
-588.83
-575.93
-552.50
-521.17
-480.88
-429.12
-364.31
-287.59
-202.62
-114.50
-30.19
44.67
106.55
154.36
187.56
205.61
207.76
194.28
166.92
126.32
74.63
16.20
-42.20
-93.66
-132.29
-153.91
-155.82
-122.13
-46.94
62.02
185.36
301.92
396.05
458.54
484.81
474.90
434.94
374.68
307.76
248.15
206.21
185.20
181.76
189.04
200.73
213.25
223.71
231.94
236.21
235.64
229.53
217.85
201.74
183.26
164.48
144.94
122.79
96.15
65.76
34.89
8.88
-6.82
-9.21
0.83
18.16
36.44
49.66
56.94
57.74
51.63
37.05
11.55
-26.38
-75.34
-129.71
-182.85
-228.27
-262.25
-283.85
-293.92
-293.60
-282.72
-259.89
-223.92
-177.97
-127.70
-79.63
-38.53
-6.96
14.15
25.33
27.96
23.37
9.51
-15.74
-52.61
-98.31
-148.86
-201.02
-252.79
-302.63
-330.42
-320.68
-269.65
-189.01
-98.21
-15.14
48.92
90.07
111.33
120.16
122.05
120.72
118.03
115.05
112.52
111.14
111.55
113.96
117.89
119.97
116.55
105.46
87.18
64.09
38.76
13.23
-11.61
-35.45
-59.66
-85.12
-112.27
-138.29
-159.19
-171.48
-173.08
-163.42
-142.77
-112.80
-75.44
-31.80
14.77
60.91
102.92
137.02
160.38
172.26
173.92
168.29
159.52
151.20
145.57
143.07
142.61
142.22
139.09
130.27
113.15
88.17
59.49
34.46
20.77
22.69
38.86
62.21
82.90
92.88
89.43
76.12
60.67
51.08
52.18
64.08
82.39
100.38
111.50
111.60
100.53
82.02
62.54
46.08
34.70
27.75
22.66
16.53
7.68
-4.33
-19.18
-36.48
-57.00
-81.45
-109.65
-139.56
-167.46
-188.58
-198.92
-196.37
-181.51
-156.90
-126.39
-94.01
-63.07
-36.16
-14.25
2.85
15.95
26.12
34.45
41.60
47.36
50.91
50.85
46.56
37.86
25.23
9.74
-8.29
-28.53
-50.04
-70.20
-85.27
-91.53
-87.82
-76.50
-62.15
-49.88
-42.23
-38.64
-36.23
-32.85
-29.57
-28.55
-32.34
-40.48
-49.00
-51.34
-41.92
-19.31
12.54
46.01
73.81
91.43
99.46
101.83
104.02
109.11
116.90
124.71
128.72
126.21
115.75
97.77
73.90
47.30
21.30
-1.18
-18.57
-31.23
-40.76
-49.00
-56.26
-61.17
-61.35
-55.37
-44.45
-32.79
-26.37
-30.53
-47.53
-73.30
-100.30
-118.93
-120.22
-98.96
-55.85
1.73
61.71
110.41
136.46
134.17
104.78
55.60
-2.50
-58.72
-105.08
-137.90
-157.72
-168.33
-175.48
-184.92
-200.79
-224.17
-252.17
-278.43
-295.23
-296.31
-279.61
-247.87
-206.95
-163.35
-122.05
-85.89
-55.77
-31.43
-11.83
4.42
18.36
29.82
36.81
36.36
26.54
9.27
-9.13
-19.79
-14.97
8.37
47.48
95.25
143.45
185.80
219.39
244.15
261.93
275.64
288.71
304.53
324.63
347.51
367.99
378.37
370.90
340.79
288.24
219.15
144.29
76.57
27.77
4.70
6.81
26.09
50.34
68.10
73.05
66.06
53.53
43.69
42.59
52.19
71.17
96.86
126.57
157.10
183.83
200.28
199.77
177.95
134.90
75.60
8.18
-58.51
-116.73
-160.46
-185.38
-189.25
-173.58
-145.12
-114.56
-92.80
-86.10
-92.50
-102.17
-101.86
-80.66
-35.55
26.36
90.75
141.63
166.37
159.25
121.48
60.11
-14.05
-89.56
-157.48
-212.68
-253.13
-278.87
-290.35
-289.10
-277.29
-257.59
-232.90
-205.96
-177.61
-145.70
-106.56
-51.41
17.46
85.18
132.99
149.69
135.16
97.39
47.55
-5.20
-56.22
-102.59
-141.15
-167.30
-176.07
-164.75
-134.44
-84.85
-21.71
46.44
108.98
155.61
176.59
169.92
144.00
112.88
88.93
77.79
79.76
91.85
110.81
134.86
163.29
194.99
226.15
251.60
267.65
274.21
273.55
268.30
259.32
244.90
220.54
179.93
117.22
30.55
-74.03
-184.20
-284.05
-358.66
-399.29
-406.45
-390.55
-367.84
-353.70
-356.70
-375.75
-401.15
-418.82
-416.46
-388.05
-336.69
-273.72
-214.89
-174.50
-160.08
-169.21
-190.75
-210.18
-215.81
-203.51
-176.50
-141.51
-104.30
-67.13
-29.28
9.91
48.35
81.07
102.39
109.21
103.15
89.46
74.45
63.38
58.64
59.62
63.83
68.54
72.37
75.60
79.33
85.39
97.24
118.22
148.99
186.59
225.07
259.23
285.62
303.13
312.05
315.75
317.15
315.98
308.90
291.60
263.86
227.96
187.97
147.52
113.72
93.79
92.26
110.22
145.50
196.67
259.12
324.00
378.51
415.49
432.44
429.63
408.45
351.75
255.73
134.01
22.84
-70.59
-150.29
-223.69
-295.68
-368.04
-436.83
-489.95
-514.70
-504.74
-465.59
-407.38
-343.16
-285.22
-241.08
-211.50
-191.30
-175.55
-162.70
-155.06
-151.17
-147.03
-137.68
-119.88
-92.89
-57.67
-17.49
22.18
55.05
78.40
91.42
94.67
89.21
80.45
77.95
90.98
121.74
162.91
206.69
247.29
282.48
313.38
343.79
372.47
396.45
408.71
399.90
363.77
300.12
215.85
121.24
27.11
-58.67
-131.70
-191.24
-237.59
-269.75
-285.52
-282.79
-264.80
-238.19
-210.59
-187.13
-170.72
-162.71
-163.12
-170.93
-183.41
-200.42
-222.14
-248.94
-280.87
-319.26
-366.60
-423.51
-486.49
-521.90
-500.37
-411.47
-271.96
-113.41
36.55
162.87
262.51
338.91
398.23
443.26
471.91
482.16
475.81
457.65
432.91
405.93
379.47
353.70
326.69
296.32
262.18
226.42
191.64
159.25
129.21
100.76
73.71
46.98
19.56
-8.32
-35.75
-62.48
-89.08
-117.20
-148.79
-185.62
-228.87
-278.73
-331.96
-381.35
-417.59
-432.51
-423.33
-395.29
-359.96
-330.41
-315.43
-314.78
-319.28
-315.79
-294.23
-251.75
-193.80
-130.01
-69.61
-17.89
24.44
59.61
90.32
118.32
143.95
166.85
187.47
206.09
223.13
238.43
251.23
259.92
262.81
258.00
243.43
217.89
181.41
136.09
85.93
36.43
-7.11
-40.18
-59.17
-62.17
-49.08
-21.47
16.39
57.45
93.44
116.17
120.70
107.42
82.17
54.24
33.17
24.65
27.55
34.06
32.70
13.80
-25.37
-78.52
-132.74
-174.33
-194.85
-194.53
-180.30
-162.09
-147.36
-138.22
-131.31
-120.19
-98.72
-63.51
-14.89
43.54
104.22
157.86
195.80
212.78
209.93
194.25
176.11
164.52
163.24
168.33
170.30
159.14
129.23
84.01
34.93
-3.01
-18.82
-10.79
13.01
39.06
55.79
57.96
48.03
32.11
16.03
2.53
-7.23
-11.51
-7.97
4.96
24.93
46.13
61.10
64.89
56.96
41.86
26.61
16.39
13.26
16.19
22.28
27.17
25.98
13.44
-12.72
-49.90
-91.26
-128.00
-153.14
-164.41
-164.72
-159.50
-155.19
-154.12
-155.17
-157.75
-164.11
-178.03
-201.08
-229.53
-255.22
-272.56
-279.36
-279.59
-282.97
-300.07
-335.68
-385.15
-436.18
-475.39
-497.44
-500.14
-482.64
-444.56
-385.80
-307.57
-213.88
-112.95
4.69
123.37
216.52
266.16
274.24
256.53
229.80
204.93
186.55
174.79
163.94
151.46
138.01
124.49
109.93
91.49
66.30
33.51
-5.77
-51.66
-100.16
-144.57
-178.59
-198.97
-205.63
-200.66
-186.49
-166.22
-144.74
-125.24
-109.14
-97.20
-89.90
-86.89
-91.97
-104.51
-121.15
-137.22
-146.35
-142.24
-120.51
-79.73
-22.46
45.62
117.58
185.29
240.52
276.58
289.27
277.29
242.60
189.60
124.71
55.83
-9.41
-64.76
-106.38
-133.08
-145.87
-148.34
-146.14
-145.44
-151.33
-167.08
-193.39
-228.64
-269.24
-309.34
-342.93
-365.31
-373.00
-364.09
-338.54
-297.78
-244.54
-182.15
-112.53
-38.00
38.29
112.65
182.02
244.22
297.97
342.76
378.72
410.31
440.80
470.36
496.00
513.98
522.42
521.98
514.81
504.02
501.10
514.38
544.66
585.00
625.43
658.50
681.18
693.32
696.60
706.83
736.04
785.02
843.15
896.01
934.15
954.81
959.99
953.91
958.24
989.61
1049.56
1125.64
1201.93
1268.41
1321.64
1360.43
1276.34
1012.22
591.72
111.38
-324.95
-659.06
-880.63
-1006.92
-1065.15
-1081.31
-1058.50
-993.83
-896.04
-784.72
-682.11
-603.58
-555.37
-536.90
-543.09
-561.40
-573.63
-570.96
-556.73
-539.89
-527.18
-520.92
-520.42
-523.11
-518.91
-499.62
-465.53
-424.36
-385.83
-356.26
-337.50
-332.30
-336.01
-340.61
-338.55
-327.14
-307.77
-283.82
-258.36
-233.77
-212.05
-194.20
-180.53
-169.71
-160.80
-152.92
-145.35
-137.55
-130.03
-125.05
-121.73
-123.64
-134.22
-155.37
-185.49
-218.83
-246.93
-261.25
-256.07
-229.93
-187.39
-136.38
-86.63
-47.47
-25.68
-23.75
-38.88
-63.53
-87.31
-100.97
-98.41
-78.25
-43.48
0.65
48.83
97.25
143.16
184.84
220.84
250.91
276.49
300.62
327.12
358.81
395.78
434.15
466.76
485.08
482.76
458.84
418.63
371.92
328.98
296.19
272.92
252.98
228.56
195.29
155.56
117.40
90.99
83.26
94.96
119.76
146.96
165.00
165.23
144.51
106.16
58.86
14.54
-15.38
-24.35
-13.50
8.33
28.25
35.08
23.85
-2.19
-33.70
-59.52
-70.59
-62.15
-34.41
8.29
59.08
109.01
148.46
169.33
166.89
141.13
96.27
39.22
-22.42
-81.58
-133.30
-175.11
-206.87
-230.13
-248.22
-265.02
-284.58
-309.21
-338.64
-370.98
-402.91
-429.93
-446.93
-450.00
-438.27
-415.42
-387.46
-360.55
-339.56
-326.94
-321.78
-320.34
-317.87
-309.83
-293.12
-263.63
-216.08
-146.46
-54.52
55.72
177.37
301.80
420.50
514.61
562.69
554.68
499.51
417.67
328.18
242.68
165.74
97.87
37.35
-15.92
-60.02
-93.46
-117.06
-133.58
-145.60
-156.54
-166.92
-176.71
-183.67
-184.27
-176.23
-160.05
-138.58
-115.01
-92.35
-72.68
-57.49
-45.52
-33.90
-19.63
-0.67
20.77
42.93
64.16
83.21
98.90
112.51
126.21
141.94
160.49
181.08
202.32
221.92
237.28
246.04
248.96
248.24
246.70
246.76
249.96
257.85
271.95
294.07
312.23
316.54
299.40
257.85
194.36
115.66
31.72
-46.38
-109.22
-152.18
-174.59
-180.50
-176.19
-166.95
-155.86
-143.76
-131.00
-118.40
-107.65
-99.05
-91.83
-84.58
-75.66
-63.97
-49.56
-33.66
-18.06
-4.68
5.89
14.63
22.42
30.52
40.18
51.87
64.97
77.93
88.32
93.83
92.37
82.57
64.48
39.40
11.12
-16.35
-40.01
-58.42
-71.96
-82.42
-92.22
-102.81
-113.46
-122.55
-127.69
-127.58
-122.53
-115.11
-108.94
-107.06
-112.55
-122.52
-133.54
-141.81
-143.69
-135.53
-114.18
-78.11
-29.62
23.61
70.29
99.22
105.69
94.54
78.74
72.39
82.97
106.99
131.88
143.02
131.03
97.04
51.48
9.20
-16.60
-18.29
5.02
47.85
100.41
150.37
185.75
197.86
183.17
143.56
84.68
15.98
-52.77
-113.98
-163.32
-198.93
-220.29
-227.65
-222.34
-206.93
-185.12
-161.35
-139.19
-120.62
-106.36
-97.17
-94.69
-101.30
-118.66
-145.63
-177.88
-208.80
-232.24
-245.05
-248.49
-247.04
-245.98
-248.75
-255.82
-265.44
-275.14
-283.19
-288.80
-291.98
-292.54
-290.04
-283.99
-274.50
-262.70
-250.34
-239.27
-230.17
-222.47
-214.44
-203.83
-188.92
-169.17
-145.61
-120.69
-97.25
-77.54
-62.52
-51.68
-43.26
-35.04
-25.00
-11.92
4.49
23.94
46.19
71.21
99.21
130.37
164.18
199.05
232.21
260.21
280.10
290.52
292.49
289.39
286.27
288.17
298.78
319.23
347.99
381.75
416.60
449.10
477.01
499.52
517.04
530.98
543.04
554.00
562.89
566.42
559.79
538.52
500.95
449.48
390.51
332.15
281.02
240.22
208.96
183.46
158.75
130.46
96.47
58.01
19.51
-13.29
-36.28
-49.86
-60.11
-76.83
-109.27
-162.21
-234.15
-318.90
-409.11
-498.74
-583.11
-656.94
-712.47
-740.26
-732.71
-688.40
-614.06
-523.01
-430.48
-348.93
-284.84
-238.82
-207.80
-187.99
-176.63
-172.06
-172.98
-177.67
-183.70
-188.57
-190.17
-187.17
-179.35
-167.08
-150.98
-131.68
-109.78
-85.95
-61.31
-37.32
-15.61
2.46
16.40
26.89
35.64
44.88
56.77
72.73
93.07
117.08
143.45
170.87
198.91
228.73
263.19
306.13
360.14
424.02
491.33
550.83
589.92
599.27
576.92
529.18
468.06
406.33
352.55
308.87
271.86
236.05
197.12
153.48
105.87
56.23
7.01
-38.37
-74.72
-95.66
-95.86
-74.55
-38.38
-0.44
24.59
27.21
8.17
-21.79
-48.07
-60.54
-59.29
-53.90
-56.51
-73.42
-100.31
-124.33
-131.30
-113.48
-72.95
-18.75
39.17
94.79
146.40
193.16
230.90
251.10
244.13
204.61
135.47
47.89
-42.83
-123.40
-187.02
-234.53
-272.42
-308.89
-349.95
-397.15
-446.93
-491.76
-522.67
-532.06
-516.33
-477.08
-420.28
-354.01
-285.98
-221.44
-162.93
-111.39
-67.30
-31.37
-4.13
14.93
27.82
37.48
46.81
57.42
69.09
80.22
88.66
92.86
92.66
89.44
85.59
83.80
86.15
93.62
105.97
122.16
140.77
160.62
181.00
201.99
224.41
249.35
277.33
307.62
337.63
362.97
378.28
378.50
360.19
322.64
268.42
202.84
133.23
67.18
10.88
-32.31
-62.37
-82.21
-96.20
-108.24
-120.46
-132.57
-142.45
-147.40
-145.44
-136.04
-120.41
-101.23
-81.74
-65.15
-53.58
-47.55
-45.91
-46.09
-45.10
-40.69
-32.07
-20.07
-6.79
5.34
14.31
18.92
18.92
14.66
6.68
-4.20
-16.66
-28.95
-39.01
-45.24
-47.27
-45.94
-42.73
-38.66
-33.14
-23.68
-6.84
20.21
58.06
104.30
154.38
202.96
245.04
276.68
294.95
298.03
285.67
259.67
224.01
184.40
147.00
116.37
94.42
80.28
71.42
65.28
60.13
55.27
50.37
45.51
40.17
33.73
26.16
18.57
13.34
13.20
20.00
33.84
54.49
79.71
105.91
129.18
146.95
158.90
166.71
173.01
179.93
191.65
209.68
232.59
256.59
277.94
294.93
308.03
319.06
329.80
346.23
371.17
403.25
437.07
465.98
485.30
493.48
491.96
484.25
481.31
489.99
510.08
532.99
546.01
538.47
506.08
451.93
342.58
170.44
-47.10
-271.81
-465.65
-608.10
-696.89
-739.80
-747.59
-731.54
-693.39
-640.00
-580.55
-525.75
-484.30
-459.11
-447.76
-445.02
-446.13
-443.37
-435.05
-422.76
-412.28
-410.78
-423.30
-451.42
-493.02
-542.71
-589.61
-624.45
-641.81
-642.75
-633.28
-620.41
-608.94
-599.57
-588.95
-570.12
-537.56
-488.93
-425.71
-351.82
-271.38
-187.75
-103.73
-21.90
55.36
125.47
186.28
236.76
277.25
310.03
338.45
366.27
396.63
431.14
469.90
512.26
557.47
604.25
651.06
695.23
733.10
760.34
772.77
767.30
742.95
701.09
643.82
574.52
497.41
417.00
337.47
261.24
188.16
116.13
42.63
-35.44
-118.87
-205.16
-288.84
-362.94
-421.65
-461.53
-481.99
-484.82
-476.26
-464.54
-457.70
-461.43
-478.29
-508.40
-550.33
-601.27
-640.43
-647.71
-611.22
-534.42
-432.41
-321.97
-214.86
-117.28
-31.32
43.08
104.99
153.28
187.49
209.30
222.25
231.61
240.23
249.99
261.84
274.72
286.73
295.48
299.72
299.41
294.61
284.67
268.54
241.74
204.26
159.12
110.06
60.59
13.61
-29.43
-68.49
-104.32
-137.00
-171.06
-203.85
-231.38
-250.09
-257.68
-254.37
-242.01
-224.14
-203.93
-183.25
-162.31
-141.99
-124.15
-105.59
-88.41
-75.52
-69.76
-72.05
-81.12
-93.91
-107.72
-119.71
-126.23
-124.44
-104.67
-63.46
-7.45
47.73
85.68
96.24
79.20
42.18
-6.62
-61.44
-118.90
-175.63
-227.04
-266.90
-289.95
-293.09
-270.77
-218.52
-140.85
-49.36
41.84
121.28
183.39
227.58
256.67
273.74
280.08
275.84
261.85
240.49
215.80
192.55
174.13
162.63
157.85
157.41
158.08
158.10
157.25
156.61
160.72
167.92
175.57
180.16
177.82
165.37
142.44
110.89
74.63
38.44
6.39
-17.64
-31.25
-34.52
-32.13
-28.89
-31.05
-42.66
-63.19
-87.87
-109.39
-121.20
-120.56
-109.14
-90.57
-69.08
-46.53
-22.62
3.32
30.85
58.05
83.06
103.13
117.21
125.02
127.20
124.57
117.18
104.69
86.75
63.47
35.15
5.52
-22.42
-46.32
-65.01
-78.63
-87.95
-94.17
-98.30
-100.99
-101.65
-100.16
-96.61
-91.64
-86.35
-81.69
-78.36
-76.41
-75.61
-74.60
-72.52
-68.80
-63.46
-57.24
-51.73
-48.94
-50.16
-55.02
-60.14
-60.38
-50.50
-28.09
4.96
42.40
75.87
97.34
101.23
85.68
52.03
4.69
-50.46
-105.61
-152.78
-185.00
-198.34
-192.52
-170.25
-136.02
-94.28
-48.92
-3.53
38.17
72.56
96.63
109.10
110.94
104.58
92.84
78.16
61.64
43.46
23.63
2.63
-18.45
-38.16
-55.06
-67.30
-72.39
-67.53
-50.34
-20.66
18.35
60.04
95.83
117.19
120.24
106.10
79.29
45.55
9.48
-25.75
-57.95
-85.58
-106.41
-118.10
-119.81
-112.64
-98.92
-81.18
-60.93
-38.25
-12.48
16.90
49.18
81.73
110.78
132.48
144.18
145.27
137.21
122.64
104.97
87.63
73.46
63.93
58.65
55.04
47.83
34.35
15.47
-3.72
-16.25
-16.50
-3.23
19.95
46.10
69.47
86.33
95.08
95.78
88.04
71.09
44.50
9.97
-28.02
-62.94
-88.17
-99.51
-96.17
-81.42
-61.24
-42.76
-31.22
-30.90
-43.70
-68.33
-100.47
-131.50
-151.07
-151.79
-134.48
-107.64
-82.42
-66.49
-61.21
-63.22
-67.19
-70.02
-71.57
-73.73
-78.10
-84.38
-90.74
-94.97
-96.20
-95.24
-94.40
-96.84
-104.70
-118.23
-135.40
-153.01
-167.78
-177.66
-182.04
-181.79
-178.69
-174.43
-170.22
-166.44
-163.04
-159.91
-157.13
-155.08
-154.23
-154.99
-157.12
-159.98
-162.55
-163.89
-163.39
-160.90
-156.72
-151.32
-145.32
-139.08
-132.82
-126.54
-120.17
-113.70
-107.09
-100.33
-93.36
-86.44
-79.94
-74.58
-71.24
-70.56
-72.88
-77.59
-83.18
-87.38
-87.75
-82.15
-69.41
-49.37
-22.68
9.46
45.99
86.09
129.10
174.19
219.96
264.23
304.34
338.05
364.08
382.71
395.44
404.57
412.63
421.86
434.14
450.50
470.71
492.09
509.40
515.83
505.89
478.42
437.94
393.30
354.04
326.30
310.49
302.02
294.44
283.01
266.66
247.40
228.25
211.16
196.49
183.99
173.71
166.17
161.47
158.23
153.31
142.88
124.19
97.27
65.39
34.17
9.49
-4.79
-8.18
-3.38
4.91
11.60
12.99
8.10
-0.93
-9.39
-11.88
-4.49
13.64
39.80
68.52
93.62
110.33
116.34
111.81
98.15
77.07
50.68
21.92
-5.05
-25.70
-37.08
-39.64
-37.25
-35.17
-37.04
-42.94
-49.83
-53.89
-53.33
-49.75
-46.77
-47.26
-51.08
-55.47
-57.39
-56.39
-55.45
-59.73
-73.19
-96.26
-125.16
-153.71
-176.04
-188.25
-188.98
-178.77
-159.32
-132.78
-101.69
-68.76
-36.36
-5.99
22.27
49.22
75.89
102.64
128.80
152.97
173.41
188.19
195.08
192.32
179.86
160.59
140.29
125.54
120.31
123.56
129.59
130.62
121.02
100.13
72.50
44.63
21.21
3.25
-11.24
-24.57
-37.57
-49.72
-59.39
-65.11
-66.44
-64.21
-59.98
-55.61
-52.96
-54.25
-63.46
-83.45
-114.85
-155.65
-202.47
-252.24
-303.25
-354.83
-407.16
-462.54
-520.96
-579.25
-632.10
-674.33
-702.86
-717.27
-718.11
-706.12
-685.10
-657.40
-623.58
-582.78
-533.91
-476.03
-408.13
-329.05
-220.14
-81.17
69.83
204.47
300.33
350.86
363.08
349.51
321.92
287.52
246.14
197.47
143.76
90.02
41.10
-0.77
-36.71
-70.84
-106.06
-146.19
-191.45
-238.12
-279.88
-310.91
-327.58
-329.05
-315.83
-289.10
-252.16
-207.50
-156.29
-98.94
-36.51
29.04
89.75
137.98
168.12
176.69
164.45
135.99
98.78
60.91
29.34
8.92
2.87
12.72
38.23
78.75
133.02
199.21
273.69
351.35
425.83
491.30
543.23
579.18
600.02
609.07
610.84
608.11
602.13
591.97
576.16
552.84
521.26
483.49
443.25
404.93
370.35
340.54
314.99
292.23
267.79
235.45
189.67
126.21
45.40
-48.61
-144.65
-227.47
-282.09
-301.24
-296.28
-283.62
-281.58
-285.52
-289.46
-283.92
-267.24
-237.87
-199.09
-157.83
-120.06
-88.94
-63.60
-44.00
-29.98
-23.07
-24.65
-35.01
-50.59
-62.61
-60.91
-37.66
6.09
62.58
120.18
168.25
199.89
213.99
214.80
208.44
200.57
193.19
186.88
181.79
177.72
173.28
165.43
149.74
121.33
76.79
15.33
-58.88
-138.31
-214.70
-281.26
-334.18
-372.36
-396.07
-405.41
-399.86
-378.11
-340.78
-292.26
-238.73
-185.96
-136.78
-89.76
-40.36
15.89
80.52
149.41
213.11
262.21
290.86
298.32
287.98
264.62
225.97
170.98
104.05
23.03
-74.85
-186.87
-301.27
-398.68
-458.68
-468.90
-429.12
-351.62
-254.49
-152.49
-53.77
38.74
123.25
196.57
254.22
291.05
303.25
290.19
256.09
208.50
155.06
101.39
49.17
-4.24
-60.38
-118.72
-177.05
-231.57
-278.16
-314.24
-338.76
-344.08
-327.24
-289.00
-234.33
-170.31
-102.90
-35.69
25.23
81.70
133.57
176.60
205.09
214.08
200.73
164.36
108.78
41.43
-27.99
-89.87
-136.63
-162.96
-167.05
-150.83
-117.75
-72.49
-21.35
28.60
69.94
95.94
101.85
84.45
42.09
-21.53
-99.15
-181.40
-256.50
-310.89
-330.66
-305.79
-234.84
-127.52
1.67
135.51
256.89
347.31
389.46
379.13
328.01
267.20
209.48
160.34
123.20
98.02
86.30
89.25
106.80
134.68
163.74
180.68
175.86
144.29
84.26
-1.17
-103.88
-211.57
-311.79
-395.52
-458.44
-497.13
-497.79
-452.07
-362.85
-245.20
-118.81
-0.59
98.03
171.06
217.73
241.87
248.08
241.88
229.35
216.56
208.01
205.41
209.06
218.09
230.76
242.08
245.63
237.27
218.30
198.04
182.65
177.01
181.14
189.57
193.80
187.12
169.44
147.18
129.05
120.65
122.64
130.86
139.01
142.49
139.62
132.29
123.27
114.41
105.64
96.42
86.31
74.39
65.91
65.09
75.37
97.83
130.42
168.52
206.94
240.83
263.79
271.62
262.33
236.50
195.48
140.11
71.15
-9.44
-98.16
-195.30
-297.89
-398.93
-488.24
-556.73
-599.98
-618.42
-615.21
-594.38
-568.38
-546.39
-530.87
-518.60
-505.93
-492.91
-482.87
-479.16
-483.33
-506.18
-553.38
-621.44
-699.14
-774.14
-838.72
-890.31
-928.31
-889.29
-742.75
-504.94
-231.19
24.43
235.56
399.82
525.85
620.87
701.76
767.50
814.93
845.75
867.32
887.44
909.93
926.07
928.71
912.89
867.26
786.10
672.86
539.29
399.63
265.32
142.99
36.20
-54.82
-138.07
-219.47
-298.40
-367.66
-418.09
-443.73
-444.31
-423.67
-388.73
-350.70
-319.19
-300.03
-295.41
-305.33
-327.31
-355.51
-379.31
-385.61
-364.12
-310.37
-228.26
-129.69
-32.27
45.95
91.06
97.11
66.04
6.26
-69.74
-148.37
-217.85
-270.63
-304.28
-321.41
-327.40
-328.21
-327.71
-325.82
-318.68
-300.24
-265.22
-211.17
-140.25
-58.82
24.35
100.20
161.99
206.52
234.18
248.27
253.88
256.55
261.67
274.07
296.78
330.79
373.94
421.62
467.98
506.76
531.97
538.19
521.02
477.87
409.63
321.36
222.18
123.13
34.09
-38.51
-91.52
-122.91
-129.84
-108.10
-54.49
29.77
136.55
251.77
358.99
444.88
502.88
533.71
543.76
541.48
534.49
527.38
520.62
511.20
493.96
463.58
416.84
354.37
281.23
205.59
136.11
79.04
36.83
8.28
-10.05
-22.60
-33.38
-45.32
-59.91
-77.33
-97.21
-118.72
-141.22
-164.41
-188.83
-215.69
-246.38
-282.15
-323.62
-372.03
-425.80
-478.58
-518.85
-534.35
-518.13
-473.27
-413.25
-356.52
-322.06
-317.18
-333.30
-350.36
-349.15
-322.09
-275.51
-223.64
-177.92
-146.92
-129.96
-120.15
-110.36
-99.60
-93.55
-98.56
-116.85
-144.53
-183.92
-239.44
-315.09
-410.71
-522.25
-643.13
-764.64
-878.65
-926.11
-866.71
-700.61
-472.20
-237.61
-33.63
127.54
250.02
342.46
414.76
467.21
498.56
511.53
514.40
516.86
525.00
543.86
570.40
599.58
619.70
620.40
597.32
553.45
495.85
424.99
350.34
278.52
214.16
155.90
101.63
50.90
6.03
-29.79
-54.61
-67.64
-72.26
-72.63
-74.86
-83.75
-101.55
-127.36
-157.70
-191.17
-220.86
-243.27
-256.00
-258.93
-253.37
-241.13
-223.83
-202.15
-176.31
-144.77
-108.25
-67.73
-24.69
19.08
61.70
102.02
140.84
179.53
220.62
264.21
307.97
347.83
379.20
397.44
400.57
382.88
334.72
254.45
147.83
26.87
-93.02
-196.16
-270.62
-320.25
-348.11
-359.44
-361.62
-362.40
-367.50
-379.94
-392.42
-402.71
-411.40
-418.80
-423.73
-421.79
-406.84
-373.89
-322.11
-255.87
-184.71
-117.29
-58.31
-8.20
34.80
71.95
102.95
126.34
140.61
144.03
138.08
127.16
117.55
114.34
119.54
130.93
143.71
153.17
156.26
154.93
154.12
158.47
168.21
177.79
178.39
162.13
126.41
74.08
13.81
-44.86
-94.17
-128.73
-143.32
-131.36
-87.81
-12.46
86.10
194.21
295.98
379.16
438.23
474.30
491.90
493.62
479.77
449.92
409.96
368.12
330.81
298.21
263.95
220.50
164.21
100.31
41.36
6.98
11.17
55.85
131.18
221.90
315.11
403.80
486.51
529.96
509.45
419.52
278.91
117.48
-39.59
-177.91
-292.23
-382.06
-451.03
-498.42
-525.58
-535.53
-533.44
-525.96
-518.11
-512.61
-507.51
-499.82
-482.37
-449.51
-399.92
-334.06
-257.70
-176.13
-93.68
-11.56
66.73
137.50
195.82
237.69
262.71
274.35
279.88
272.73
248.84
205.69
147.94
87.11
37.54
9.77
5.60
22.27
48.06
74.25
95.07
108.27
112.86
108.25
93.66
63.33
17.67
-39.17
-97.66
-147.30
-178.43
-184.31
-162.36
-115.77
-52.45
11.30
54.13
62.22
34.73
-17.59
-80.03
-139.34
-188.48
-227.54
-257.07
-277.76
-289.00
-291.87
-289.73
-288.98
-293.72
-307.97
-332.20
-362.18
-391.30
-411.64
-417.97
-407.84
-382.59
-344.88
-297.98
-244.40
-185.60
-124.14
-63.55
-9.74
31.66
56.50
65.18
62.73
57.98
61.76
82.52
124.99
187.34
262.66
339.90
406.91
453.85
475.31
473.27
455.72
435.59
425.45
433.77
460.51
496.63
528.43
542.35
532.48
501.70
460.27
418.50
381.18
345.37
303.36
249.44
183.48
113.40
50.68
5.90
-17.14
-23.19
-22.39
-25.55
-39.05
-64.20
-96.77
-130.37
-158.82
-179.12
-193.57
-207.69
-226.20
-249.57
-273.06
-287.99
-286.14
-263.80
-223.50
-173.30
-123.30
-79.84
-43.96
-12.34
20.55
60.38
110.95
174.25
249.07
314.97
350.41
340.28
284.83
198.16
99.26
1.81
-88.04
-170.99
-249.45
-322.02
-383.95
-429.76
-458.94
-472.65
-474.54
-469.25
-461.63
-454.53
-446.68
-434.65
-415.14
-387.09
-351.74
-312.37
-272.29
-235.08
-203.45
-177.40
-155.52
-135.82
-117.19
-99.61
-83.99
-71.30
-62.11
-56.01
-51.18
-45.62
-37.24
-24.96
-8.84
10.02
29.92
48.81
64.75
76.36
82.40
82.35
76.09
64.17
47.93
29.34
10.63
-6.08
-19.08
-27.62
-31.50
-31.17
-27.21
-19.96
-9.69
3.20
18.09
33.96
49.24
62.44
72.49
79.47
84.88
91.18
101.07
116.43
137.48
162.40
187.81
209.62
224.65
231.66
232.13
230.22
231.42
240.16
257.36
279.05
297.08
301.67
285.65
247.89
194.56
137.63
90.86
65.35
66.42
92.49
135.46
182.81
220.42
236.23
224.00
185.92
132.63
80.03
43.37
31.02
41.36
64.16
85.71
94.90
87.48
66.16
37.86
9.92
-12.62
-27.29
-33.27
-30.97
-21.91
-9.57
0.58
2.63
-7.52
-29.79
-59.36
-88.18
-108.37
-115.02
-108.25
-92.90
-76.74
-67.50
-70.34
-86.27
-112.25
-142.48
-169.89
-188.01
-192.15
-180.56
-155.22
-121.58
-87.50
-60.75
-46.22
-44.05
-49.87
-56.86
-58.75
-52.16
-36.74
-14.11
14.10
47.02
84.25
124.60
165.50
203.42
234.82
257.30
269.67
271.60
263.12
244.44
216.07
178.98
135.32
88.36
42.75
3.91
-23.12
-35.16
-32.44
-18.92
-1.45
12.70
18.35
14.33
3.29
-9.87
-20.42
-25.92
-26.37
-23.51
-19.01
-13.46
-5.90
5.14
20.45
39.37
59.61
78.53
94.35
106.98
117.80
128.70
140.88
154.05
166.80
177.14
183.75
186.78
187.68
188.18
188.99
188.59
183.32
168.72
141.34
100.81
50.96
-0.42
-44.05
-72.44
-82.99
-79.53
-71.12
-68.91
-81.71
-112.71
-157.87
-207.05
-247.15
-266.38
-258.67
-225.84
-177.51
-127.95
-91.51
-77.99
-89.70
-121.97
-165.95
-211.86
-251.26
-278.05
-288.46
-281.73
-260.52
-230.16
-196.68
-163.83
-131.24
-95.10
-52.40
-5.64
35.33
56.49
47.17
7.22
-50.46
-104.18
-132.61
-123.74
-79.34
-13.28
54.14
104.05
124.76
114.95
83.13
44.08
13.82
4.30
19.22
52.51
91.03
119.44
126.48
109.23
73.90
32.68
-1.49
-20.26
-23.05
-16.21
-9.93
-13.18
-29.20
-54.14
-78.57
-91.97
-88.25
-69.17
-43.89
-24.89
-21.59
-35.13
-57.62
-75.84
-77.78
-59.15
-26.05
7.73
27.15
23.01
-3.01
-39.42
-69.94
-80.90
-67.60
-36.52
-2.35
18.70
16.27
-8.73
-44.79
-74.79
-83.91
-67.01
-30.92
8.36
33.18
32.39
6.98
-30.66
-62.37
-72.84
-56.91
-21.83
16.40
40.94
42.06
21.79
-8.05
-32.13
-39.01
-26.37
-0.54
27.72
48.98
59.17
60.26
57.65
56.35
58.42
61.97
63.00
57.93
45.78
29.17
13.46
4.66
6.51
18.89
37.44
55.47
66.82
68.27
60.60
47.46
33.12
20.17
8.72
-3.39
-18.97
-39.78
-65.55
-93.38
-118.25
-134.12
-135.88
-121.51
-93.68
-59.31
-27.10
-4.18
6.72
7.76
3.89
-0.45
-3.31
-5.31
-7.59
-9.48
-8.34
-1.05
13.68
33.93
55.23
73.22
85.88
94.35
101.95
111.42
123.47
136.45
147.48
154.22
156.01
153.93
149.92
146.05
143.53
142.80
143.53
144.70
144.96
142.94
137.81
129.59
119.30
108.32
97.87
88.49
79.83
71.25
62.12
52.20
41.68
31.26
21.79
14.14
8.98
6.35
6.00
7.19
8.94
10.15
9.83
7.10
1.57
-6.39
-15.71
-24.85
-32.99
-40.89
-51.43
-68.75
-96.32
-134.93
-181.34
-229.36
-271.61
-302.53
-319.89
-325.00
-321.40
-312.72
-301.34
-287.80
-271.62
-252.15
-229.78
-205.61
-180.86
-155.90
-129.44
-99.25
-63.34
-21.79
22.54
64.39
98.09
119.87
129.10
128.43
121.77
112.81
103.65
95.19
87.91
82.74
80.87
82.78
87.50
92.40
94.78
93.05
87.75
81.00
75.04
70.61
66.60
61.17
52.87
42.11
30.88
21.97
17.98
20.43
29.68
44.46
61.71
76.17
81.37
71.27
42.61
-3.00
-59.37
-117.32
-167.78
-203.94
-222.56
-223.33
-208.01
-179.44
-140.90
-96.11
-48.70
-2.22
40.29
76.29
104.03
122.61
132.02
133.33
128.26
118.80
106.62
92.82
78.23
63.72
50.64
40.25
33.44
30.10
29.25
29.59
29.97
29.88
29.28
28.74
29.08
31.47
37.06
46.47
59.31
73.88
87.73
98.39
104.51
106.26
105.02
102.59
100.23
98.51
97.37
96.81
96.97
98.06
99.90
101.77
102.41
100.51
95.52
87.61
77.74
66.91
55.74
44.34
32.56
20.34
7.75
-4.89
-17.50
-30.02
-42.50
-54.80
-66.27
-76.10
-83.39
-87.78
-89.41
-89.00
-87.42
-85.56
-84.32
-84.30
-86.27
-90.47
-96.71
-103.84
-110.11
-113.53
-112.76
-107.82
-100.02
-91.72
-85.08
-81.40
-80.41
-80.60
-79.73
-75.97
-68.69
-58.76
-48.55
-40.82
-37.49
-38.68
-42.45
-45.57
-44.87
-38.73
-27.39
-12.86
2.37
16.30
28.03
37.61
45.54
52.23
57.32
59.74
57.91
50.62
37.93
21.87
6.35
-3.99
-5.45
2.98
18.69
36.15
48.77
51.40
42.30
23.88
1.45
-18.87
-32.47
-37.63
-35.62
-29.81
-24.09
-21.53
-23.44
-29.00
-35.38
-38.70
-35.41
-24.11
-6.82
11.36
24.20
27.19
19.96
6.62
-6.11
-12.16
-8.86
2.22
16.38
28.33
34.25
33.18
26.64
17.72
9.62
4.77
4.30
7.78
13.42
18.34
19.80
16.14
7.79
-2.86
-12.56
-18.70
-20.62
-19.51
-17.47
-15.71
-13.84
-9.90
-2.04
9.83
23.29
33.86
37.27
31.24
17.00
-1.42
-18.61
-30.14
-34.29
-32.27
-27.73
-24.59
-25.65
-31.24
-39.34
-46.71
-50.28
-48.51
-41.85
-32.65
-23.89
-18.16
-16.49
-17.95
-20.03
-19.74
-15.00
-5.38
7.59
21.57
34.63
46.07
56.29
65.91
74.81
81.70
84.98
83.37
77.04
67.54
57.00
47.39
39.73
34.34
30.91
29.10
28.41
28.13
27.22
24.26
18.24
8.98
-2.13
-12.57
-19.34
-20.28
-15.02
-5.45
4.86
12.05
13.35
8.24
-1.18
-10.65
-14.87
-8.69
11.57
46.64
93.20
143.57
186.88
211.80
209.95
178.95
123.47
53.85
-17.65
-80.77
-130.23
-166.12
-192.05
-211.87
-227.03
-235.59
-233.42
-217.35
-188.02
-151.29
-116.95
-95.05
-91.21
-103.91
-125.30
-144.65
-153.21
-147.23
-128.18
-100.30
-67.21
-29.98
12.42
60.60
112.74
163.70
206.83
236.16
248.83
246.53
234.86
221.46
212.91
212.86
220.64
232.72
243.99
249.99
249.28
243.80
237.67
234.60
236.37
242.11
250.21
258.49
264.73
267.43
265.44
257.41
241.58
217.08
185.35
151.14
119.28
91.33
63.91
29.61
-19.84
-89.75
-179.57
-285.01
-389.87
-472.31
-514.63
-511.56
-470.29
-403.64
-323.86
-240.02
-158.73
-84.56
-20.42
28.70
56.65
58.69
33.61
-16.28
-86.32
-170.84
-263.57
-358.08
-447.76
-519.64
-559.34
-555.86
-506.97
-420.51
-311.11
-193.49
-84.83
10.72
91.18
154.88
201.54
232.44
250.69
256.51
253.51
245.29
234.49
220.89
203.19
181.02
156.49
134.03
116.20
107.06
106.04
107.39
101.92
83.04
50.34
11.32
-27.49
-59.92
-81.01
-89.31
-85.36
-71.13
-47.09
-14.78
23.36
63.63
102.11
134.89
158.16
170.05
171.29
165.34
156.26
146.85
137.56
127.83
118.42
112.69
117.03
138.25
179.96
239.12
307.12
372.77
427.21
466.45
489.78
496.40
482.08
440.10
365.06
258.84
133.29
8.77
-91.86
-150.99
-161.60
-128.46
-64.21
15.55
96.80
168.30
221.63
250.36
250.39
221.60
168.82
101.87
33.01
-26.78
-71.61
-101.95
-122.56
-140.00
-158.09
-177.29
-195.28
-209.40
-218.56
-223.33
-225.21
-224.60
-220.96
-212.45
-198.27
-179.24
-157.86
-137.85
-122.70
-115.28
-117.13
-129.23
-151.12
-182.28
-221.98
-268.85
-321.40
-376.76
-431.15
-479.73
-518.10
-542.46
-550.85
-543.71
-522.97
-492.42
-455.40
-414.74
-371.50
-325.97
-278.13
-228.25
-177.85
-128.98
-84.90
-48.56
-23.32
-12.15
-17.02
-37.93
-71.45
-111.44
-149.47
-178.63
-195.00
-199.24
-195.76
-190.03
-186.91
-188.40
-195.13
-206.28
-221.64
-240.93
-263.12
-286.01
-305.69
-318.70
-322.25
-316.42
-302.67
-283.55
-260.70
-234.10
-202.84
-165.60
-123.04
-77.32
-32.60
7.24
39.77
64.90
85.05
103.05
121.70
142.10
164.56
187.92
209.92
227.58
237.44
237.72
229.19
216.84
207.98
209.65
224.42
247.87
270.17
279.40
268.30
237.74
197.86
163.20
146.61
153.55
180.12
216.78
252.86
282.39
304.90
324.15
343.77
364.46
383.21
394.60
394.59
380.99
354.94
319.70
279.75
239.96
204.61
176.69
156.59
142.95
132.14
120.65
106.88
92.39
82.24
82.24
95.91
120.45
147.14
163.32
158.69
130.83
87.50
44.17
15.99
10.71
23.79
41.33
46.67
29.08
-11.65
-67.17
-125.11
-176.46
-218.02
-252.58
-284.59
-316.51
-346.78
-370.46
-383.06
-382.48
-371.43
-355.64
-341.36
-331.83
-325.22
-315.41
-294.33
-256.96
-203.47
-140.66
-78.43
-26.05
11.52
35.07
48.70
57.40
63.55
67.06
66.08
59.51
48.44
35.82
26.02
22.85
29.58
47.41
75.67
111.03
147.39
177.12
192.64
189.72
168.38
133.52
91.96
50.12
12.23
-19.61
-43.06
-54.45
-48.11
-19.61
31.00
96.10
161.08
208.98
226.17
208.31
161.78
101.72
45.92
9.30
0.16
19.13
60.65
114.69
169.27
211.37
229.44
215.76
169.50
98.35
16.61
-58.85
-114.73
-145.29
-154.30
-152.17
-151.56
-162.47
-188.34
-225.64
-265.32
-297.16
-313.34
-311.36
-294.01
-266.85
-235.75
-204.09
-172.83
-141.54
-110.72
-82.32
-58.49
-39.87
-24.64
-10.26
4.83
18.84
27.86
28.09
19.25
6.12
-3.40
-1.57
15.43
46.64
86.60
128.22
164.84
191.42
205.20
205.14
192.65
170.83
145.02
121.38
105.67
101.83
110.19
126.78
143.37
149.85
137.46
103.31
52.14
-4.07
-49.77
-71.99
-64.73
-31.33
17.49
67.51
105.69
123.02
115.58
84.91
36.68
-19.30
-70.40
-103.56
-109.73
-88.16
-48.47
-8.94
10.45
-4.29
-54.29
-126.76
-199.64
-250.54
-265.43
-242.81
-193.16
-133.57
-81.20
-46.33
-29.74
-23.62
-15.46
5.99
46.36
103.56
169.49
233.79
287.80
326.81
349.18
355.17
345.24
320.03
281.29
233.58
184.23
142.12
115.46
109.34
124.64
157.40
199.50
239.62
265.90
268.86
244.28
194.79
128.93
58.28
-6.70
-59.23
-97.08
-121.09
-133.26
-135.35
-129.00
-116.90
-102.45
-88.51
-75.19
-58.97
-34.46
2.20
49.77
100.96
144.27
169.10
170.19
150.06
117.81
84.69
59.59
45.29
38.60
32.40
19.66
-3.86
-38.45
-80.62
-125.91
-170.10
-210.15
-243.30
-266.15
-274.86
-266.98
-243.31
-207.83
-167.05
-126.53
-88.26
-49.82
-6.55
44.59
102.34
160.10
208.97
240.48
250.72
241.21
217.63
187.63
157.89
134.23
120.93
121.38
135.97
161.04
187.63
203.05
195.89
160.52
100.88
28.65
-41.31
-97.71
-137.03
-163.62
-186.19
-211.88
-243.34
-278.05
-310.80
-335.12
-345.09
-336.18
-306.85
-260.82
-206.92
-158.55
-128.95
-126.38
-149.81
-188.35
-225.81
-247.13
-245.77
-225.34
-197.65
-175.54
-166.42
-168.50
-171.63
-163.67
-136.80
-93.25
-44.17
-4.58
15.51
16.66
9.86
10.86
30.81
71.03
122.34
171.70
209.33
233.91
251.27
268.78
290.08
311.13
323.19
316.82
287.35
237.34
175.24
112.47
59.38
23.49
7.66
10.65
26.89
47.67
63.69
67.74
58.51
41.03
25.29
21.09
33.62
59.80
88.72
106.52
102.56
75.51
33.97
-6.40
-30.23
-28.36
-1.82
38.22
75.45
93.69
83.41
43.50
-19.38
-94.67
-171.98
-243.78
-306.32
-357.99
-398.68
-428.56
-448.72
-460.72
-465.74
-463.81
-452.67
-429.14
-390.72
-338.17
-276.10
-212.22
-155.09
-111.02
-82.65
-68.38
-63.83
-62.70
-58.72
-47.10
-26.32
0.50
26.29
42.51
43.17
27.61
1.54
-25.27
-43.45
-47.68
-38.41
-20.23
0.95
21.05
38.60
54.06
68.29
81.38
93.34
104.69
117.59
134.91
159.12
190.94
228.49
268.02
305.03
335.67
356.49
364.55
357.25
333.21
294.12
245.37
195.09
151.36
119.26
98.79
86.30
77.26
69.25
63.14
61.55
66.46
77.04
90.17
102.25
111.46
118.02
122.89
126.60
128.52
128.33
126.70
125.54
126.30
128.46
128.94
123.17
107.79
81.81
47.47
8.42
-31.73
-70.08
-103.51
-127.60
-137.31
-128.62
-101.55
-60.50
-12.90
33.67
73.93
105.63
128.31
141.07
142.17
128.98
100.67
60.43
15.74
-23.63
-49.55
-58.58
-53.55
-41.32
-29.66
-23.22
-22.10
-22.63
-19.68
-9.63
8.81
34.45
65.26
98.81
132.80
164.95
192.63
213.90
227.61
234.11
234.55
230.85
224.65
217.15
209.30
200.66
190.17
175.48
154.56
126.70
93.95
60.47
30.42
6.17
-13.89
-33.89
-58.92
-91.76
-131.74
-175.04
-216.74
-253.38
-283.41
-307.85
-328.32
-346.69
-364.24
-381.98
-400.96
-421.74
-444.31
-466.82
-486.35
-498.74
-500.55
-490.47
-469.46
-440.79
-407.81
-373.09
-337.07
-299.37
-259.89
-220.01
-182.72
-150.80
-125.78
-106.03
-88.15
-67.66
-41.20
-7.52
32.25
74.62
115.30
149.17
172.51
183.28
182.73
175.01
165.78
160.54
162.25
171.23
184.92
200.00
212.83
220.25
219.98
211.02
194.58
173.72
153.08
136.99
128.39
128.01
135.12
148.27
165.10
182.43
194.86
195.75
179.28
143.59
92.85
37.06
-10.32
-37.21
-36.14
-7.12
43.13
103.15
159.60
200.69
218.58
211.68
184.55
146.47
107.63
75.64
52.91
36.34
19.81
-2.92
-34.61
-72.91
-109.86
-134.84
-137.96
-113.71
-63.86
2.86
72.24
128.58
158.64
155.97
122.02
65.03
-3.46
-72.87
-135.13
-185.99
-224.04
-249.85
-265.51
-273.94
-278.22
-279.93
-277.97
-267.92
-244.87
-207.09
-159.02
-111.34
-76.02
-60.33
-62.30
-71.57
-74.00
-58.62
-22.32
29.83
87.36
139.73
180.06
207.57
225.95
241.52
259.37
280.64
301.59
314.40
312.06
292.43
260.64
226.47
198.99
180.87
166.37
145.25
108.43
54.26
-11.19
-77.43
-134.78
-178.53
-209.42
-231.72
-249.85
-267.29
-286.01
-307.35
-331.67
-357.35
-380.61
-395.84
-398.16
-384.92
-357.63
-320.63
-279.97
-240.81
-205.34
-173.23
-142.43
-112.37
-84.98
-65.04
-56.73
-60.48
-71.17
-78.81
-73.50
-48.87
-5.40
50.83
110.64
165.97
211.93
246.08
267.63
275.79
270.98
255.93
236.90
222.13
219.31
232.90
261.32
297.35
329.11
344.64
335.39
299.43
242.94
178.12
120.11
81.72
69.82
82.25
109.20
136.09
148.61
138.25
104.42
55.34
4.48
-33.31
-47.57
-35.27
-1.61
41.68
81.63
107.12
112.60
98.50
71.10
39.97
15.54
6.88
18.63
51.95
100.47
152.30
192.19
206.84
189.75
143.39
78.50
7.50
-55.24
-102.83
-133.89
-151.00
-158.05
-158.80
-157.60
-158.91
-169.24
-186.11
-204.77
-216.04
-210.85
-185.84
-147.03
-109.22
-89.71
-104.30
-150.71
-218.62
-290.55
-348.89
-382.43
-388.66
-372.66
-320.15
-263.91
-201.91
-133.01
-56.59
24.52
102.88
169.31
215.85
239.82
240.65
227.61
205.97
177.59
141.77
97.48
46.92
-4.56
-49.95
-86.76
-111.22
-125.36
-131.74
-130.04
-116.87
-87.61
-40.86
18.71
78.63
126.37
149.61
141.42
102.80
40.46
-35.71
-115.29
-188.59
-247.36
-283.79
-293.79
-279.13
-248.00
-214.12
-192.52
-193.42
-217.67
-255.60
-290.73
-306.53
-293.13
-250.18
-185.73
-111.93
-39.51
25.14
80.47
126.53
163.53
190.05
204.28
205.70
195.48
175.57
146.58
107.68
57.09
-4.67
-73.70
-143.39
-206.87
-260.28
-303.31
-337.65
-363.02
-375.79
-370.00
-341.57
-292.31
-230.41
-168.14
-116.64
-81.90
-63.00
-54.24
-49.16
-43.60
-36.71
-28.81
-20.77
-12.83
-5.91
-2.40
-5.90
-19.41
-43.08
-73.27
-102.72
-123.89
-131.34
-123.09
-100.04
-64.37
-18.50
34.80
91.21
145.04
190.26
222.67
241.88
250.66
253.29
252.66
248.87
239.30
220.60
191.34
153.85
114.43
81.53
64.05
68.25
96.71
146.85
210.59
275.21
325.98
350.87
344.51
311.63
266.13
226.55
208.57
218.21
249.01
284.86
307.13
302.95
271.01
222.15
173.74
141.87
133.82
145.48
163.63
172.18
159.51
122.85
68.53
8.50
-44.22
-79.46
-91.15
-78.50
-45.83
-1.90
41.93
75.12
91.56
92.42
85.32
81.37
90.19
116.56
159.80
214.81
273.91
328.05
368.08
385.98
377.29
343.41
291.87
234.32
181.77
140.25
108.52
79.87
46.18
2.76
-48.89
-101.43
-143.97
-166.41
-162.36
-131.48
-79.08
-15.13
48.09
98.81
128.82
136.12
125.75
108.93
98.85
105.56
131.05
167.69
201.26
216.11
201.85
157.41
92.01
21.82
-35.54
-67.19
-69.53
-48.44
-17.03
10.12
21.98
14.84
-8.20
-40.28
-74.68
-107.70
-138.64
-168.26
-195.95
-219.34
-235.01
-240.94
-238.11
-230.30
-222.65
-219.00
-221.02
-227.64
-236.78
-247.35
-260.11
-276.87
-298.26
-322.17
-343.45
-356.44
-357.39
-346.35
-326.36
-300.52
-269.73
-232.35
-186.87
-135.10
-84.41
-46.08
-31.03
-45.57
-88.59
-152.77
-227.44
-301.72
-365.53
-409.94
-427.69
-414.67
-372.56
-309.42
-238.56
-174.07
-125.88
-96.65
-81.63
-72.18
-59.71
-39.65
-11.45
22.49
58.77
93.67
123.41
144.52
154.58
153.70
144.31
130.97
117.86
106.88
96.52
82.14
58.17
20.67
-29.76
-87.98
-144.01
-185.73
-202.14
-186.81
-140.62
-71.53
7.23
82.80
144.99
190.04
219.48
237.34
248.11
254.47
257.83
258.66
258.45
255.02
245.35
224.87
189.47
139.16
78.84
17.79
-34.33
-69.21
-88.54
-97.45
-102.79
-109.37
-116.54
-119.13
-109.72
-83.16
-36.30
24.10
90.44
155.25
213.06
262.55
305.27
343.63
362.09
375.23
373.98
352.21
308.06
244.97
171.48
97.60
32.12
-19.65
-53.19
-69.80
-68.12
-46.11
-3.48
56.54
125.27
189.26
233.83
249.93
232.46
186.00
120.86
48.80
-19.46
-75.18
-112.26
-127.90
-121.55
-99.25
-71.00
-49.22
-44.45
-60.90
-94.07
-134.24
-172.04
-200.19
-215.66
-217.81
-206.16
-179.54
-137.31
-80.83
-16.18
45.77
95.07
126.48
140.35
141.74
137.32
124.94
101.14
70.47
30.06
-26.45
-97.58
-174.65
-243.43
-288.44
-298.40
-268.73
-204.13
-117.89
-24.63
64.69
143.61
209.33
260.70
295.81
312.96
310.24
285.63
240.31
178.34
104.60
23.57
-60.00
-140.39
-209.17
-257.37
-278.62
-270.11
-234.24
-177.83
-109.08
-33.94
43.91
121.80
194.69
254.55
293.43
305.49
288.19
242.24
170.30
74.78
-41.77
-175.68
-319.98
-455.37
-554.59
-593.35
-562.89
-475.11
-354.92
-226.90
-106.92
-0.12
96.20
185.64
271.96
354.14
427.03
484.68
522.12
535.72
524.30
490.24
438.05
367.91
285.61
199.19
116.22
40.18
-32.25
-107.45
-190.54
-282.56
-379.46
-471.77
-548.68
-600.66
-622.39
-614.59
-579.54
-519.76
-438.50
-341.24
-233.65
-122.52
-13.87
91.71
184.61
251.71
281.47
270.24
222.96
153.59
73.33
-6.44
-76.03
-139.00
-198.46
-255.01
-295.41
-311.44
-297.49
-252.67
-180.55
-89.43
8.83
105.27
195.25
277.44
351.20
416.71
470.45
506.49
518.30
500.48
453.83
385.27
304.97
221.43
140.59
63.88
-10.82
-85.07
-158.36
-225.54
-278.49
-310.46
-319.32
-306.35
-274.66
-226.70
-164.66
-93.05
-19.58
44.05
82.92
84.08
42.94
-34.57
-133.92
-236.91
-327.57
-394.22
-418.67
-389.70
-309.72
-197.38
-80.79
15.03
77.25
105.90
110.53
103.93
95.82
90.05
86.35
83.61
82.48
85.10
93.01
106.49
123.59
140.85
154.64
163.40
168.38
172.64
180.41
191.63
204.21
214.76
220.15
217.93
207.37
190.30
169.56
147.85
126.22
104.45
80.27
50.51
13.68
-30.17
-77.68
-123.04
-159.44
-182.43
-191.51
-194.46
-195.43
-197.28
-200.78
-204.50
-207.28
-209.24
-212.19
-212.29
-209.31
-199.53
-178.26
-143.19
-96.84
-46.15
0.47
36.43
58.99
68.94
70.27
66.58
60.21
53.87
51.44
57.19
73.38
97.28
120.78
134.10
129.98
106.93
71.27
33.90
5.14
-9.43
-10.90
-4.44
4.82
15.12
27.44
44.67
68.39
97.29
128.45
156.43
176.02
184.11
180.04
164.57
139.92
108.70
73.03
38.25
8.60
-13.32
-27.46
-36.71
-46.00
-59.76
-80.47
-107.24
-136.05
-161.79
-180.10
-188.15
-188.07
-183.98
-176.58
-165.03
-146.05
-116.97
-76.90
-28.04
23.31
69.21
102.97
121.63
126.15
120.83
112.04
104.96
102.03
102.24
101.34
94.76
79.29
53.78
19.68
-18.55
-55.20
-84.88
-102.78
-109.04
-107.56
-102.55
-98.56
-97.44
-96.78
-90.74
-72.94
-40.84
0.43
42.11
74.95
94.39
102.69
106.71
112.96
123.87
136.71
144.90
145.10
138.07
124.23
106.88
85.93
57.00
16.58
-33.94
-91.95
-149.23
-196.80
-226.00
-240.82
-246.76
-248.83
-247.22
-232.93
-203.09
-156.68
-100.06
-39.00
18.65
65.37
97.47
116.51
127.20
134.61
144.41
160.99
186.99
223.35
269.94
311.84
334.05
324.55
280.63
209.24
121.66
28.18
-61.51
-147.43
-227.37
-295.45
-346.63
-376.69
-386.83
-374.85
-344.94
-304.34
-261.41
-221.81
-186.22
-152.98
-115.06
-67.69
-10.27
54.40
121.66
186.90
248.43
309.39
374.02
448.84
533.02
597.57
611.43
558.41
447.04
302.22
164.30
43.15
-56.65
-136.62
-203.34
-259.58
-307.10
-346.55
-380.36
-410.35
-436.14
-449.16
-440.35
-404.53
-340.88
-258.14
-168.86
-88.98
-29.81
6.45
30.85
58.60
100.99
163.42
240.59
324.47
403.96
455.49
458.16
409.62
325.69
226.46
134.95
44.65
-50.13
-150.00
-249.68
-336.85
-398.50
-428.36
-431.04
-407.10
-366.12
-316.89
-266.46
-215.17
-158.08
-93.64
-18.32
63.40
144.97
218.95
285.78
340.71
380.83
402.68
401.72
375.77
324.66
253.14
166.36
71.64
-25.84
-121.08
-208.28
-280.59
-329.42
-348.51
-334.49
-289.94
-220.45
-134.93
-42.81
47.15
127.01
192.11
238.99
266.10
271.45
252.95
208.67
139.09
48.73
-53.36
-153.37
-236.41
-289.48
-305.06
-282.56
-228.39
-154.95
-78.65
-17.16
16.38
16.57
-12.34
-58.04
-105.85
-143.90
-166.99
-176.44
-178.37
-179.21
-183.78
-194.29
-210.59
-231.44
-254.14
-273.50
-283.36
-278.40
-255.65
-215.12
-159.63
-94.89
-27.38
36.07
92.92
142.18
182.90
213.52
232.48
239.50
235.17
223.27
209.40
204.79
217.47
248.47
291.02
335.23
373.73
402.32
423.51
442.40
471.23
519.25
588.96
675.09
768.28
860.12
942.40
1012.84
1022.99
942.50
772.17
546.40
309.38
91.68
-78.68
-215.51
-331.31
-432.61
-514.12
-570.32
-598.28
-601.12
-586.22
-561.68
-531.75
-500.13
-473.33
-451.61
-430.99
-404.81
-369.62
-327.21
-282.94
-245.73
-220.62
-207.93
-198.87
-183.64
-155.85
-116.43
-71.88
-28.84
6.53
31.78
48.59
62.18
76.74
95.06
117.84
142.85
167.58
187.63
198.11
190.43
164.97
125.54
78.19
31.63
-12.98
-54.70
-94.04
-132.14
-170.08
-206.43
-239.29
-266.01
-275.82
-264.25
-229.23
-174.02
-106.17
-35.30
31.01
91.49
144.97
189.88
221.90
237.64
234.20
210.96
163.72
100.29
31.08
-34.42
-88.37
-125.53
-141.81
-136.32
-111.99
-75.67
-34.90
2.17
29.64
45.90
52.08
50.96
44.42
33.48
18.45
0.94
-17.96
-37.85
-58.76
-81.41
-106.90
-134.50
-161.26
-182.72
-193.63
-190.59
-172.98
-142.78
-103.65
-58.38
-12.39
30.60
68.41
100.18
125.65
145.37
160.15
170.20
174.34
169.13
150.98
117.96
73.08
25.05
-14.29
-35.09
-34.44
-17.50
4.91
22.72
31.26
32.67
33.12
37.81
47.16
57.66
65.12
68.77
72.27
80.60
95.79
113.20
123.02
115.23
84.53
33.79
