1513825901.00
64.000000
-0.00
-0.00
-0.00
-0.00
-0.00
-0.00
-0.00
-0.00
-0.00
-0.00
0.00
0.01
0.01
-0.00
-0.03
-0.05
-0.05
0.00
0.13
0.36
0.66
1.01
1.37
1.72
2.06
2.40
2.79
3.24
3.80
4.42
5.06
5.66
6.20
6.68
7.15
7.68
8.31
9.14
10.09
11.04
11.88
12.56
13.14
13.76
14.65
15.96
17.91
20.32
22.90
25.38
27.58
29.57
31.68
34.32
37.81
42.54
48.15
54.10
59.83
64.97
69.58
74.14
79.34
85.71
93.76
103.00
112.62
121.73
129.77
136.75
143.30
150.75
157.77
166.64
177.95
191.79
206.97
220.57
228.25
225.36
208.53
176.87
132.76
80.05
23.07
-34.94
-92.44
-149.16
-205.23
-260.37
-313.74
-363.87
-409.83
-450.91
-486.50
-515.74
-537.23
-549.22
-549.96
-538.37
-514.21
-478.67
-433.88
-382.45
-327.02
-269.84
-212.63
-156.66
-102.95
-52.37
-5.90
35.58
71.43
101.35
125.50
144.38
158.69
169.15
176.37
180.75
182.57
182.07
179.51
175.23
169.65
163.18
156.15
148.81
141.30
133.69
126.02
118.33
110.69
103.16
95.80
88.68
81.83
75.25
68.95
62.95
57.25
51.86
46.78
42.03
37.59
33.45
29.61
26.07
22.81
19.83
17.11
14.67
12.48
10.54
8.83
7.35
6.07
4.97
4.05
3.27
2.62
2.09
1.65
1.30
1.01
0.79
0.61
0.47
0.37
0.28
0.22
0.18
0.15
0.14
0.13
0.12
0.13
0.15
0.20
0.27
0.35
0.39
0.36
0.22
0.01
-0.21
-0.34
-0.30
-0.10
0.20
0.44
0.51
0.35
0.01
-0.33
-0.48
-0.32
0.14
0.75
1.24
1.39
1.10
0.49
-0.14
-0.42
-0.09
0.84
2.05
2.96
3.05
2.10
0.38
-1.35
-2.18
-1.45
0.82
3.79
6.09
6.48
4.44
0.63
-3.28
-5.30
-4.10
0.25
6.06
10.69
11.79
8.49
2.02
-4.72
-8.44
-7.20
-1.37
6.20
11.53
11.42
4.65
-7.68
-22.89
-37.85
-49.47
-54.56
-49.87
-33.30
-5.56
28.14
58.49
75.26
72.37
51.97
24.31
3.01
-2.26
9.03
28.13
42.32
42.36
27.22
3.64
-18.95
-34.18
-41.73
-45.76
-50.83
-57.83
-63.37
-62.19
-50.76
-30.02
-5.23
16.62
29.89
32.40
25.95
15.24
5.48
0.53
1.60
7.24
14.33
19.55
20.87
18.26
13.48
9.00
6.79
7.47
10.19
13.33
15.35
15.56
14.30
12.54
11.38
11.43
12.78
14.93
17.24
19.09
20.12
20.43
20.44
20.84
22.50
25.95
31.12
37.38
43.73
49.32
53.98
58.21
62.86
68.36
74.31
79.43
82.16
81.21
75.96
66.46
52.96
35.75
15.06
-8.59
-34.19
-60.19
-84.84
-106.62
-124.39
-137.47
-145.26
-147.25
-143.15
-133.22
-118.65
-101.46
-84.18
-69.08
-57.74
-50.66
-47.51
-47.33
-49.02
-51.43
-53.49
-54.17
-52.48
-47.66
-39.37
-27.93
-14.45
-0.61
11.74
21.24
27.38
30.72
32.47
33.97
36.17
39.33
43.06
46.55
48.87
48.97
45.91
38.98
28.10
14.14
-1.12
-15.40
-26.67
-33.66
-36.14
-34.74
-30.53
-24.63
-18.00
-11.59
-6.34
-2.99
-1.59
-1.45
-1.54
-1.12
-0.27
0.23
-0.82
-4.27
-9.74
-15.43
-18.90
-18.35
-13.55
-5.90
2.50
9.68
14.58
17.79
21.27
27.36
37.58
51.92
68.90
86.63
103.19
117.29
126.56
129.28
126.00
120.67
118.85
124.37
137.04
153.78
166.54
167.87
153.98
126.19
89.92
51.74
15.91
-15.03
-42.54
-71.64
-107.13
-149.83
-194.56
-231.01
-247.13
-233.54
-187.01
-112.45
-21.82
69.83
148.58
205.25
236.99
246.40
239.23
221.46
196.81
166.07
128.11
81.86
28.31
-28.29
-80.49
-119.01
-134.99
-122.78
-82.03
-18.22
58.30
134.85
199.88
245.66
269.61
273.87
263.33
243.56
219.40
194.42
170.99
150.35
132.46
115.74
97.24
73.31
41.21
0.29
-47.37
-97.84
-147.03
-192.22
-233.36
-273.21
-316.41
-367.63
-429.17
-498.83
-569.42
-630.19
-670.37
-683.16
-668.51
-632.80
-585.88
-536.98
-491.58
-450.83
-413.15
-376.95
-342.41
-311.54
-286.43
-267.24
-251.35
-234.18
-211.22
-179.83
-140.20
-94.90
-47.77
-1.71
42.65
86.95
134.41
188.40
251.44
324.23
404.64
486.12
558.74
611.69
636.67
630.91
598.50
549.42
496.64
452.00
421.40
405.40
400.85
402.67
404.91
401.45
387.51
360.86
322.22
272.21
212.99
148.47
83.37
21.74
-33.89
-82.08
-122.04
-154.24
-184.09
-217.35
-256.91
-301.24
-346.20
-386.97
-419.62
-441.85
-431.48
-376.71
-284.06
-176.16
-75.35
7.33
71.44
121.03
160.42
192.43
214.98
225.48
224.76
216.83
206.15
196.03
187.99
182.20
177.92
171.17
158.05
136.17
109.40
80.91
52.82
26.08
0.99
-22.40
-45.68
-70.31
-96.63
-123.78
-151.40
-179.61
-208.79
-238.76
-268.32
-295.98
-319.14
-333.88
-335.58
-321.19
-290.17
-245.71
-194.42
-144.54
-103.43
-74.71
-57.25
-46.52
-37.82
-28.45
-18.45
-9.42
-2.79
1.25
3.56
4.97
5.63
4.68
1.52
-3.16
-7.09
-7.50
-2.80
6.04
15.25
19.99
16.87
6.26
-7.39
-17.34
-17.78
-6.91
12.45
34.14
51.65
60.85
61.16
54.93
45.27
34.24
22.38
9.56
-4.06
-17.33
-28.56
-36.24
-39.07
-37.23
-32.42
-27.24
-23.88
-23.51
-25.99
-30.51
-35.99
-40.01
-41.00
-38.75
-34.16
-28.00
-20.35
-10.98
-0.14
11.03
22.94
35.23
46.81
56.87
66.35
77.74
93.33
113.48
136.62
163.15
192.73
223.79
253.65
279.83
300.84
315.79
324.24
307.79
258.42
183.25
100.64
26.89
-31.30
-74.80
-107.86
-135.06
-158.25
-174.75
-182.02
-180.17
-171.76
-160.83
-150.59
-143.37
-140.72
-141.02
-139.42
-131.83
-116.90
-96.09
-71.91
-46.26
-19.99
3.88
26.90
53.35
87.02
129.19
178.70
233.50
292.27
354.51
404.14
428.12
419.34
378.78
313.00
230.78
141.91
56.86
-15.24
-69.35
-103.01
-118.23
-119.90
-113.71
-104.12
-93.74
-83.99
-76.20
-71.95
-70.35
-69.63
-67.80
-63.65
-57.15
-49.49
-42.60
-38.55
-38.80
-42.53
-47.74
-52.29
-54.84
-55.35
-54.88
-55.00
-56.94
-61.11
-66.25
-70.53
-72.35
-70.98
-67.07
-62.38
-59.26
-60.00
-66.17
-77.40
-91.21
-103.03
-107.35
-99.85
-79.47
-49.30
-15.78
13.40
32.08
37.90
31.19
16.52
0.92
-8.88
-8.91
1.06
17.86
36.42
51.50
59.04
57.12
45.72
26.41
1.82
-24.23
-47.18
-62.46
-66.77
-59.43
-42.80
-22.05
-3.42
7.93
10.00
4.34
-5.04
-13.82
-19.50
-21.99
-23.02
-24.39
-26.82
-29.64
-31.70
-32.22
-31.04
-28.05
-22.48
-13.17
0.41
16.82
32.69
43.90
47.79
44.62
37.31
29.89
25.09
23.53
24.01
25.26
27.15
30.69
36.92
45.41
54.01
59.46
59.10
52.20
40.56
27.87
18.26
14.95
18.87
28.55
40.49
50.64
56.00
55.98
52.60
49.61
50.87
58.44
71.36
85.41
94.31
91.55
72.80
37.65
-10.06
-62.83
-111.67
-148.48
-168.34
-170.55
-158.32
-137.24
-113.48
-92.40
-77.38
-69.61
-68.28
-71.46
-77.11
-83.49
-88.79
-91.28
-89.52
-82.36
-69.40
-51.37
-30.49
-10.04
6.78
19.19
28.09
34.86
40.51
45.22
48.42
49.29
46.97
41.49
35.63
32.78
35.00
42.21
52.78
64.39
74.77
82.02
85.56
88.85
96.39
111.22
133.58
161.34
191.26
220.28
245.60
251.29
228.78
182.72
128.45
80.13
43.37
17.04
-1.69
-15.83
-26.85
-32.57
-30.40
-19.03
0.62
26.09
55.29
87.35
119.79
148.44
169.66
180.09
177.64
162.48
135.98
98.61
55.34
10.05
-35.67
-81.42
-127.78
-175.54
-215.28
-238.17
-240.34
-224.15
-197.59
-168.22
-140.25
-114.38
-89.11
-62.37
-34.06
-11.08
8.52
26.30
43.18
58.21
70.98
82.30
93.99
106.36
118.04
127.29
135.54
141.57
140.34
128.25
104.94
73.38
37.14
-1.38
-40.57
-80.70
-123.17
-173.69
-235.96
-309.56
-389.64
-470.35
-547.50
-619.02
-685.40
-715.60
-691.00
-613.22
-504.96
-394.52
-300.41
-227.07
-168.00
-112.34
-50.87
15.54
80.15
134.30
172.04
192.69
200.10
201.14
202.74
209.30
218.20
226.74
234.54
244.38
260.25
283.22
309.74
332.23
339.48
324.18
287.22
236.99
184.81
140.98
108.36
85.17
66.86
48.77
27.06
-0.50
-35.07
-77.95
-128.78
-184.88
-240.33
-287.23
-318.11
-328.89
-321.23
-295.44
-258.91
-220.04
-184.65
-153.97
-125.67
-96.20
-63.06
-26.34
11.93
48.29
81.01
110.50
138.81
168.35
201.36
239.77
285.06
337.73
395.44
453.32
504.09
539.81
554.50
546.47
519.10
479.27
434.55
390.05
348.04
308.53
270.84
234.77
200.86
169.70
141.30
115.04
89.98
66.19
44.84
27.83
16.93
12.79
14.61
20.46
28.08
35.54
41.84
46.66
49.89
51.12
49.44
43.78
33.54
19.14
2.11
-15.45
-31.89
-46.77
-61.26
-77.50
-97.44
-121.61
-148.40
-174.74
-197.33
-214.39
-226.73
-237.62
-251.60
-272.82
-303.66
-343.98
-390.99
-439.44
-482.48
-512.83
-524.21
-512.86
-478.65
-425.35
-359.76
-289.75
-221.74
-158.88
-100.30
-42.85
15.92
74.55
126.91
164.72
182.34
181.48
172.16
168.92
183.62
218.76
265.69
308.96
334.27
335.01
314.08
280.25
242.21
204.12
165.07
122.23
75.12
27.46
-14.63
-46.75
-69.78
-90.52
-119.01
-163.33
-225.60
-298.44
-366.27
-411.00
-419.12
-387.22
-322.91
-242.14
-163.44
-104.41
-74.41
-73.47
-94.98
-130.17
-171.61
-214.51
-256.80
-298.47
-343.84
-394.66
-447.77
-495.95
-531.67
-550.40
-552.09
-540.65
-521.83
-504.84
-492.95
-481.71
-461.72
-424.29
-365.36
-286.40
-193.08
-64.91
95.87
266.51
415.58
522.94
587.91
622.10
638.20
643.93
641.70
627.17
599.67
564.41
530.95
505.01
487.18
474.05
461.27
445.89
424.04
396.11
366.34
340.14
320.56
307.19
296.79
287.39
277.48
264.70
249.17
233.24
220.09
211.55
207.47
206.00
204.60
200.71
191.31
175.02
152.15
124.40
93.76
61.93
29.94
-1.81
-33.74
-67.03
-102.50
-140.26
-179.45
-218.70
-256.64
-292.35
-325.87
-358.09
-390.58
-425.19
-463.94
-508.76
-560.63
-618.58
-678.45
-733.17
-774.08
-793.78
-788.81
-761.01
-716.78
-664.26
-610.45
-559.12
-510.95
-464.89
-419.95
-376.11
-334.03
-294.32
-256.64
-220.05
-183.46
-146.70
-110.60
-76.89
-47.38
-23.13
-4.07
11.03
23.78
35.68
47.35
58.52
68.24
75.43
79.55
80.68
79.69
77.71
75.77
74.43
73.65
73.00
71.90
70.02
67.32
64.16
60.93
58.00
55.45
53.10
50.67
47.95
45.10
42.61
41.31
42.01
45.34
51.53
60.35
71.34
83.95
97.79
112.69
128.61
145.35
162.31
178.56
192.86
204.23
212.15
216.98
219.81
222.16
225.41
230.30
236.81
244.22
251.73
258.69
265.04
271.02
277.08
283.78
292.02
303.40
319.70
341.57
366.66
389.18
401.55
398.07
378.16
346.88
312.51
282.06
258.11
238.38
218.28
194.06
164.55
130.74
94.07
55.72
17.27
-17.76
-43.22
-51.69
-37.69
-1.04
51.85
108.86
156.17
182.31
182.04
157.75
118.16
74.70
37.21
11.13
-2.83
-6.76
-3.48
4.61
14.73
22.67
23.55
14.14
-4.34
-26.23
-43.78
-51.33
-47.89
-36.93
-24.12
-14.40
-10.77
-14.40
-25.36
-42.90
-65.39
-89.97
-112.96
-131.14
-142.57
-147.04
-145.39
-138.97
-129.40
-118.97
-110.43
-105.81
-104.63
-102.94
-95.08
-76.53
-46.96
-11.22
22.32
44.92
51.00
39.79
15.46
-14.98
-44.30
-67.49
-82.89
-91.20
-93.65
-89.92
-78.09
-56.24
-25.05
10.77
43.81
67.00
77.22
76.37
70.06
64.18
62.11
63.76
66.86
69.04
68.66
65.04
57.48
45.53
29.58
11.78
-4.19
-14.65
-17.55
-13.76
-6.26
0.96
4.70
3.49
-1.96
-8.75
-12.66
-9.19
4.40
27.90
57.34
86.16
107.45
116.54
112.76
99.10
80.72
62.57
48.09
38.72
34.73
36.51
45.00
61.56
86.41
117.51
149.85
177.14
194.15
199.19
194.90
186.06
176.79
168.13
158.23
144.85
128.33
112.19
101.14
97.79
100.31
103.32
100.97
90.32
72.54
51.43
30.84
12.71
-2.71
-15.95
-27.38
-37.74
-49.27
-65.56
-89.71
-121.34
-154.70
-179.18
-182.94
-157.59
-101.96
-23.13
65.97
150.56
218.32
262.33
281.65
280.01
263.55
238.57
210.12
181.82
156.10
134.63
117.98
105.41
94.36
80.97
61.65
34.18
-1.37
-43.23
-88.74
-134.81
-178.60
-218.11
-253.30
-286.81
-323.55
-368.28
-422.60
-482.71
-539.87
-583.96
-607.97
-611.33
-599.53
-580.97
-562.42
-546.35
-531.21
-513.82
-492.27
-466.88
-439.37
-410.88
-381.11
-348.19
-310.18
-266.57
-218.85
-170.03
-123.22
-80.38
-41.27
-4.07
33.84
74.94
120.93
172.21
227.41
283.11
333.93
374.00
399.15
409.34
409.36
406.92
409.03
418.26
431.77
443.01
445.62
436.56
416.77
389.32
356.35
317.67
271.24
215.89
153.28
88.57
28.96
-18.20
-47.54
-57.10
-47.99
-24.13
8.93
45.25
80.00
110.12
134.08
151.04
159.80
159.14
148.50
129.33
105.58
82.76
65.98
57.86
58.07
64.00
72.90
83.05
94.12
106.21
118.60
129.33
135.53
134.85
126.52
111.43
91.31
67.71
41.15
11.00
-23.52
-62.40
-104.02
-145.26
-182.55
-213.34
-237.62
-258.08
-279.02
-303.50
-331.32
-357.68
-374.73
-374.77
-353.92
-314.31
-263.26
-210.57
-164.25
-128.79
-104.70
-89.75
-80.54
-73.57
-66.19
-57.15
-47.13
-37.93
-33.00
-35.84
-47.82
-66.42
-85.12
-96.09
-93.41
-75.63
-43.69
-1.58
45.46
93.11
139.36
184.52
228.83
270.66
306.12
334.16
355.02
370.44
383.62
398.42
417.78
441.09
463.22
476.55
478.77
471.20
457.53
441.85
427.56
416.55
408.52
401.55
365.44
285.97
170.86
46.24
-60.96
-137.77
-185.79
-214.25
-233.16
-247.36
-257.18
-260.16
-255.78
-247.40
-240.93
-242.09
-255.13
-282.73
-322.19
-366.30
-407.91
-443.00
-471.70
-496.50
-519.74
-542.61
-565.51
-588.19
-609.25
-627.64
-642.62
-652.33
-652.49
-636.70
-599.42
-539.36
-459.63
-367.60
-273.02
-185.25
-110.40
-50.83
-4.90
30.03
56.13
77.32
97.40
119.52
145.63
176.10
207.51
234.41
249.07
245.43
227.14
203.63
185.31
178.59
183.71
194.59
206.28
216.45
227.07
248.00
286.56
341.27
401.77
454.84
489.17
503.38
501.42
457.57
361.55
224.16
72.27
-68.71
-173.68
-250.61
-307.03
-347.39
-374.21
-386.89
-384.53
-370.04
-349.42
-328.44
-312.08
-299.48
-288.79
-278.74
-265.07
-244.94
-218.97
-190.40
-162.70
-139.32
-119.76
-103.15
-88.91
-74.49
-58.22
-40.23
-21.96
-5.11
8.40
18.96
27.27
34.24
41.95
52.13
65.46
81.82
100.76
121.83
145.93
173.82
205.44
238.65
268.14
287.55
292.63
283.15
263.38
240.69
221.85
211.73
210.78
214.31
217.81
219.11
216.69
208.65
192.30
164.79
127.72
85.20
39.26
-4.90
-39.75
-60.72
-67.22
-61.95
-49.66
-30.90
-5.90
18.68
40.02
59.91
78.52
93.91
103.53
106.13
108.75
119.49
136.22
157.49
183.88
212.05
237.06
255.35
231.53
148.57
62.62
0.90
-45.64
-79.53
-103.67
-120.54
-131.46
-136.90
-131.77
-113.52
-89.46
-65.11
-41.02
-18.87
-0.46
13.53
23.75
35.50
52.44
72.39
94.83
122.86
158.01
200.95
252.39
313.01
384.99
443.19
461.65
426.89
346.56
241.47
134.07
39.96
-34.05
-86.98
-122.33
-143.38
-152.54
-151.89
-146.80
-145.40
-154.99
-177.55
-207.04
-232.00
-239.31
-222.99
-188.30
-150.37
-126.05
-124.60
-143.34
-170.64
-193.70
-203.71
-200.27
-188.97
-176.44
-166.01
-156.65
-145.41
-130.51
-113.50
-97.35
-85.32
-78.72
-76.38
-75.41
-72.39
-65.27
-54.16
-41.34
-29.69
-21.53
-17.58
-16.74
-16.76
-15.32
-11.07
-4.15
4.03
11.54
16.93
19.73
20.69
21.18
22.50
25.25
29.17
33.35
36.61
38.18
37.66
35.31
31.57
26.80
21.07
14.23
6.17
-2.99
-12.33
-21.24
-28.90
-34.70
-38.62
-41.12
-42.95
-44.72
-46.95
-49.08
-50.56
-50.77
-49.51
-47.28
-45.06
-43.98
-44.82
-47.53
-51.20
-54.58
-56.58
-56.70
-55.36
-53.60
-52.57
-53.22
-56.14
-61.64
-69.55
-78.50
-85.54
-86.55
-77.77
-57.68
-28.47
4.34
33.87
54.69
64.91
66.35
62.91
58.25
54.20
50.66
46.77
42.15
37.48
34.01
32.60
33.03
34.11
34.40
32.76
29.16
24.46
20.00
16.91
15.65
15.83
16.49
16.56
15.38
12.95
9.87
6.96
4.88
3.84
3.56
3.48
3.05
1.99
0.44
-1.27
-2.74
-3.80
-4.51
-5.18
-6.06
-7.27
-8.66
-9.94
-10.82
-11.24
-11.44
-11.82
-12.77
-14.42
-16.51
-18.52
-19.85
-20.11
-19.33
-17.91
-16.36
-15.00
-13.71
-11.96
-9.00
-4.20
2.90
12.37
24.01
36.99
49.79
60.15
65.54
64.05
55.29
40.81
23.65
7.35
-5.39
-13.43
-17.12
-17.66
-16.23
-13.52
-9.72
-5.00
0.14
4.70
7.49
7.70
5.18
0.65
-4.60
-9.15
-12.04
-13.12
-13.18
-13.46
-14.88
-17.72
-21.33
-24.62
-26.55
-26.69
-25.54
-24.39
-24.73
-27.30
-32.05
-38.06
-44.12
-49.33
-53.44
-57.00
-61.25
-67.26
-75.21
-84.46
-93.69
-101.47
-106.81
-109.03
-108.03
-104.30
-98.35
-90.33
-80.37
-68.71
-55.76
-43.66
-34.65
-28.21
-23.50
-20.41
-17.80
-14.04
-7.35
4.11
22.07
48.06
82.51
123.34
165.80
203.39
229.19
238.28
229.63
206.26
174.17
139.79
107.66
79.89
56.84
38.05
23.09
11.70
3.22
-3.61
-10.59
-19.54
-31.26
-45.25
-60.31
-75.45
-90.06
-104.07
-117.01
-127.34
-132.42
-129.71
-118.22
-99.76
-78.89
-60.90
-49.67
-45.96
-47.28
-49.41
-48.38
-41.84
-28.99
-9.74
16.73
50.88
91.64
135.43
176.81
210.31
232.77
244.64
249.23
251.41
253.78
254.91
249.72
232.23
199.53
154.14
104.29
61.64
38.87
44.11
77.94
132.72
194.90
249.43
284.28
293.49
270.99
219.19
147.37
68.52
-5.47
-67.44
-115.19
-149.38
-171.40
-182.77
-184.50
-179.06
-170.30
-162.19
-157.22
-155.36
-154.65
-152.38
-146.88
-137.47
-125.26
-112.53
-101.70
-94.20
-89.84
-87.17
-84.35
-80.15
-73.87
-65.95
-57.60
-50.23
-44.72
-41.13
-38.76
-36.66
-34.11
-30.72
-26.63
-22.40
-18.67
-15.87
-14.00
-12.70
-11.53
-10.21
-8.64
-6.97
-5.48
-4.35
-3.61
-3.08
-2.45
-1.56
-0.44
0.60
1.17
1.01
0.14
-1.07
-2.09
-2.41
-1.83
-0.61
0.69
1.34
0.99
-0.24
-1.65
-2.30
-1.44
1.00
4.35
7.54
9.33
9.02
6.34
1.35
-5.97
-15.33
-25.45
-33.96
-37.91
-35.46
-26.82
-14.51
-1.71
9.46
19.03
28.97
41.09
55.67
70.78
83.77
92.63
96.60
95.83
90.35
79.94
64.50
45.30
24.72
5.83
-9.28
-20.72
-29.98
-39.00
-48.51
-57.85
-65.23
-69.64
-70.57
-67.62
-60.71
-49.57
-35.00
-18.73
-3.55
7.54
11.74
9.15
3.73
1.83
10.54
33.66
70.15
113.33
152.81
176.37
175.91
150.60
106.40
54.23
4.76
-34.12
-59.29
-64.29
-51.08
-25.71
5.93
36.55
65.37
89.75
105.35
107.66
96.19
72.19
39.75
6.31
-22.69
-44.78
-62.00
-79.02
-101.84
-132.75
-173.08
-220.11
-267.27
-306.25
-328.62
-329.60
-309.61
-275.39
-233.58
-192.52
-157.22
-128.12
-102.29
-74.88
-42.12
4.16
49.92
91.81
123.85
141.32
142.53
128.84
106.27
85.71
76.22
77.92
87.06
96.67
102.66
104.96
105.85
107.61
110.38
111.26
105.17
91.16
70.25
45.90
22.27
1.95
-14.91
-27.62
-33.52
-32.36
-24.07
-10.60
6.33
25.89
47.71
71.24
95.17
117.13
133.69
143.28
145.05
139.41
127.56
110.50
88.69
61.92
31.86
1.00
-28.01
-53.37
-73.82
-88.56
-97.34
-100.47
-98.69
-93.07
-85.37
-77.35
-70.24
-64.46
-59.78
-55.77
-51.91
-47.84
-43.26
-38.46
-34.05
-30.55
-28.14
-26.61
-25.60
-24.59
-23.28
-21.47
-19.38
-17.49
-16.30
-16.04
-16.57
-17.57
-18.40
-18.73
-18.41
-17.72
-17.27
-17.73
-19.56
-22.58
-26.20
-29.29
-31.22
-31.85
-31.78
-32.12
-33.96
-37.78
-42.74
-48.09
-50.30
-47.01
-37.45
-22.82
-5.86
10.35
23.34
32.54
39.17
45.71
53.73
63.25
72.07
76.69
73.65
61.00
38.98
9.70
-23.02
-54.15
-77.52
-87.16
-79.25
-54.54
-19.49
15.06
37.60
41.21
27.44
5.75
-10.84
-11.73
6.46
38.66
74.47
103.72
117.86
115.65
101.35
80.90
58.71
36.81
15.12
-6.27
-26.04
-41.57
-50.11
-50.89
-45.96
-39.41
-35.33
-36.46
-42.89
-52.44
-61.83
-68.06
-70.06
-68.86
-66.94
-66.75
-69.95
-76.38
-84.47
-91.90
-96.36
-96.56
-92.36
-85.25
-75.65
-63.96
-50.25
-34.40
-16.58
2.68
22.01
39.48
53.03
61.00
62.52
57.62
46.78
31.08
11.97
-9.01
-30.16
-49.43
-64.55
-72.95
-72.26
-61.63
-41.32
-12.93
20.60
55.44
88.05
115.11
134.91
147.02
150.82
146.39
134.34
115.55
90.95
62.31
31.76
2.84
-20.20
-34.03
-34.92
-19.95
11.66
56.80
109.04
153.70
177.53
179.25
159.40
122.46
75.37
25.74
-22.93
-66.03
-100.57
-126.65
-145.90
-163.69
-185.48
-214.63
-250.55
-289.00
-325.12
-355.16
-375.95
-385.48
-384.01
-371.32
-348.60
-318.12
-283.32
-247.63
-214.23
-184.85
-159.52
-137.94
-118.85
-101.13
-83.86
-66.91
-50.44
-34.97
-20.78
-7.84
3.54
13.31
21.05
26.36
28.67
27.54
22.90
15.06
4.93
-6.68
-18.61
-30.00
-39.95
-47.77
-53.05
-55.44
-55.01
-51.73
-45.96
-37.86
-27.63
-15.22
-0.32
17.22
37.68
60.75
86.04
112.52
139.33
165.65
190.99
215.23
238.12
259.59
279.22
297.07
313.38
328.75
343.35
356.39
366.13
370.13
366.92
356.32
339.96
320.07
298.34
275.37
250.84
225.01
198.97
175.21
156.02
142.62
134.22
128.23
121.54
111.31
95.99
74.75
47.90
16.34
-18.11
-52.81
-84.92
-111.60
-131.34
-143.48
-148.50
-147.00
-139.76
-127.79
-112.35
-95.52
-79.33
-65.83
-55.97
-49.90
-46.97
-46.20
-46.60
-46.73
-45.09
-39.73
-29.40
-13.82
5.51
25.77
44.02
58.05
67.81
74.97
82.90
94.96
112.96
135.43
156.79
168.51
161.73
131.57
79.82
16.40
-43.60
-85.35
-100.20
-89.13
-61.36
-29.16
-1.31
20.36
40.20
64.04
94.06
126.41
152.91
165.81
162.11
144.95
120.96
95.95
72.59
50.77
31.04
17.40
16.47
34.09
70.32
117.12
160.75
187.78
190.89
171.88
139.41
102.32
66.76
33.84
1.38
-33.06
-69.71
-106.55
-140.77
-169.44
-193.98
-215.78
-235.92
-254.48
-270.49
-282.42
-289.16
-290.56
-285.82
-279.66
-274.48
-270.89
-266.66
-257.22
-237.51
-205.09
-161.50
-109.83
-60.90
-21.75
3.87
16.68
21.10
23.69
30.67
28.71
38.60
52.36
62.86
63.63
52.65
33.77
15.24
5.53
9.82
30.86
61.92
97.99
134.61
167.98
193.47
205.08
196.43
163.61
110.27
42.37
-26.72
-82.15
-111.47
-107.86
-71.85
-12.14
55.75
114.09
144.29
137.04
94.24
28.20
-43.51
-105.48
-149.64
-176.54
-191.97
-204.22
-217.92
-233.84
-250.23
-265.20
-278.25
-289.84
-299.61
-305.06
-302.85
-289.50
-263.29
-225.26
-178.86
-128.52
-78.23
-29.73
16.97
62.42
106.63
148.47
185.99
217.20
241.40
259.64
275.77
293.88
316.65
344.79
377.15
411.51
445.07
474.37
495.72
508.73
514.94
518.25
523.56
534.24
549.58
564.36
570.95
563.43
544.39
522.14
506.75
504.58
514.62
529.08
538.00
534.86
499.57
424.43
311.83
172.96
23.99
-119.63
-247.46
-354.22
-438.11
-499.36
-536.69
-551.10
-546.40
-528.62
-504.40
-479.03
-455.40
-433.68
-412.68
-388.62
-359.40
-325.59
-289.79
-255.64
-225.77
-202.56
-187.02
-179.30
-177.41
-179.82
-186.02
-195.50
-207.24
-219.42
-229.79
-236.10
-236.68
-229.84
-212.36
-185.35
-151.34
-112.78
-71.55
-29.37
11.50
48.47
79.45
102.43
115.40
118.46
113.97
105.98
98.08
91.85
86.98
82.03
73.64
57.66
30.83
-8.51
-56.98
-108.41
-154.41
-189.61
-206.96
-203.99
-185.50
-162.66
-148.83
-154.18
-178.21
-214.97
-252.01
-275.10
-275.27
-251.45
-209.11
-156.62
-101.55
-45.47
6.80
50.46
82.22
100.24
104.30
96.17
79.55
59.91
42.72
31.06
26.81
29.53
35.91
41.74
43.48
40.27
34.16
28.34
25.48
28.24
38.18
55.47
78.73
104.84
129.31
146.89
152.50
140.92
112.42
73.72
35.86
9.10
-2.09
0.25
10.50
22.73
33.75
43.90
54.47
65.78
76.69
85.01
89.24
89.78
87.47
83.95
82.00
81.55
80.98
77.58
68.62
52.38
28.99
-0.98
-35.42
-71.43
-106.53
-138.80
-167.04
-190.49
-208.43
-213.40
-203.08
-177.89
-140.50
-95.27
-47.22
-0.92
40.03
73.57
99.98
119.45
133.88
146.02
157.93
170.04
181.63
192.02
198.77
200.07
193.70
179.13
157.26
129.57
96.64
59.08
17.50
-26.59
-70.21
-110.42
-143.45
-166.03
-176.37
-176.50
-170.65
-164.69
-165.09
-171.53
-186.39
-211.86
-248.85
-287.00
-315.05
-321.40
-299.26
-249.88
-181.93
-109.08
-44.09
5.01
36.65
52.97
58.48
56.82
49.84
38.38
22.95
5.19
-12.38
-27.20
-39.22
-49.37
-59.21
-69.88
-82.19
-94.10
-102.56
-104.43
-97.37
-81.38
-57.56
-28.20
4.00
36.56
67.49
95.16
118.06
134.97
144.52
146.19
140.09
126.91
107.66
83.46
55.31
24.07
-9.07
-45.10
-82.29
-117.39
-147.26
-169.99
-185.34
-194.93
-201.13
-205.72
-209.36
-210.16
-203.88
-187.03
-158.71
-121.55
-81.13
-44.07
-15.34
2.47
11.19
17.52
28.96
51.74
89.06
140.29
201.09
264.33
319.95
359.90
383.02
394.09
403.22
422.17
459.49
517.13
589.24
662.54
702.74
683.23
593.10
443.27
260.03
70.97
-104.71
-249.63
-367.71
-462.73
-532.06
-572.07
-581.93
-565.74
-532.26
-491.55
-451.89
-419.29
-394.18
-371.93
-347.82
-319.42
-287.79
-256.72
-230.26
-210.69
-198.84
-192.01
-185.29
-174.67
-158.46
-137.86
-115.94
-95.72
-78.84
-65.85
-55.18
-44.46
-31.41
-14.74
5.86
30.38
59.36
94.16
135.91
185.05
239.89
297.74
354.08
403.63
441.60
465.11
474.02
471.02
461.09
449.95
444.12
446.90
456.00
463.58
459.70
437.15
396.49
347.15
304.45
286.15
303.65
357.00
435.09
520.99
598.43
657.34
695.35
693.86
643.99
547.15
414.20
261.19
104.05
-45.37
-179.82
-295.48
-385.64
-451.22
-495.06
-520.52
-531.07
-529.56
-518.43
-500.81
-481.20
-465.35
-455.51
-448.23
-434.85
-405.28
-353.23
-280.26
-195.66
-111.92
-39.45
17.98
61.78
93.53
111.29
109.91
85.18
38.42
-21.65
-81.67
-128.32
-153.78
-158.53
-149.68
-136.50
-125.48
-118.29
-112.72
-105.67
-95.64
-83.61
-72.28
-64.28
-60.62
-60.19
-60.23
-58.06
-52.51
-44.22
-35.37
-28.41
-24.83
-24.79
-27.26
-30.67
-33.28
-33.15
-28.31
-17.49
-1.17
17.65
34.00
42.85
41.47
30.90
15.53
0.88
-9.10
-13.55
-14.27
-13.87
-13.92
-14.21
-13.52
-10.92
-6.86
-2.83
-0.51
-0.70
-3.08
-6.09
-8.09
-8.03
-5.95
-2.89
-0.28
0.75
-0.16
-2.32
-4.43
-5.32
-4.39
-1.90
1.29
4.35
7.03
9.75
13.67
20.00
29.22
40.64
52.44
62.12
67.38
66.89
60.64
49.70
35.49
19.40
2.25
-15.48
-33.54
-51.62
-69.42
-86.69
-102.96
-117.02
-126.55
-127.80
-117.60
-95.19
-63.34
-28.03
3.58
25.97
37.26
39.41
36.68
32.87
29.94
27.76
25.37
22.26
18.99
16.74
16.50
18.31
21.17
23.77
24.90
24.22
22.19
19.77
17.94
17.41
18.36
20.36
22.69
24.61
25.56
25.39
24.32
22.77
21.51
21.20
22.14
24.26
27.06
29.75
31.58
32.26
31.72
30.45
28.80
26.68
23.69
19.72
15.11
10.46
5.73
-0.87
-12.47
-32.43
-62.27
-99.53
-137.61
-167.47
-181.08
-173.37
-146.68
-107.15
-62.45
-19.14
18.68
48.81
70.35
82.26
83.96
76.33
63.13
50.15
42.84
44.29
52.96
63.37
68.87
65.29
52.62
35.31
19.00
6.81
-2.92
-15.43
-35.98
-66.22
-102.01
-135.12
-156.36
-159.81
-144.70
-115.35
-79.11
-43.16
-12.82
9.31
22.58
27.90
27.30
24.15
22.75
27.30
40.02
60.02
82.84
102.06
111.83
108.88
93.49
69.26
41.61
15.85
-4.23
-16.30
-19.90
-16.01
-6.77
4.66
14.91
21.54
23.56
21.45
17.23
13.68
13.40
18.08
27.31
38.08
45.24
43.20
28.64
2.44
-29.19
-57.46
-74.83
-78.22
-69.70
-54.77
-39.36
-26.99
-18.00
-10.79
-3.93
2.70
8.05
10.97
11.23
9.70
7.91
7.63
9.63
13.45
17.82
21.37
23.47
24.49
25.72
28.63
34.46
43.57
54.98
66.71
76.49
82.11
82.04
75.65
63.03
44.73
21.97
-4.00
-31.94
-60.22
-86.99
-110.13
-127.46
-137.06
-137.59
-128.58
-109.78
-84.18
-55.09
-26.05
0.21
22.22
39.82
54.12
66.61
78.26
88.79
96.72
99.57
95.25
83.18
64.64
42.63
20.68
1.52
-13.73
-25.52
-35.78
-46.44
-58.97
-74.11
-91.40
-109.24
-124.46
-132.63
-128.96
-110.98
-80.47
-44.39
-13.09
3.77
1.43
-17.51
-44.02
-65.91
-74.41
-67.09
-47.61
-22.55
2.33
24.17
42.69
58.51
71.58
80.99
85.72
86.18
84.56
83.70
85.69
90.79
97.29
101.30
99.04
88.27
69.21
43.78
14.85
-14.69
-42.45
-66.83
-86.92
-102.16
-112.98
-120.05
-124.06
-125.05
-121.53
-111.39
-93.27
-68.55
-40.08
-14.88
1.25
6.63
3.00
-4.66
-11.12
-13.06
-9.93
-2.95
6.02
16.40
28.37
41.95
55.78
66.50
70.49
65.70
53.65
38.63
26.85
23.66
29.55
42.03
54.51
58.06
47.67
25.44
-0.08
-16.96
-14.66
10.87
56.70
111.41
158.38
182.97
179.71
153.92
116.69
77.86
42.16
10.18
-19.25
-45.86
-67.12
-79.76
-82.39
-76.93
-67.77
-60.17
-57.58
-61.02
-68.88
-77.80
-84.56
-87.65
-87.79
-87.01
-87.34
-89.91
-93.22
-94.54
-91.00
-80.75
-63.77
-41.70
-17.09
7.42
29.92
49.64
66.61
81.69
96.26
111.32
126.68
140.01
146.70
141.21
119.84
82.30
32.69
-21.72
-73.02
-114.20
-139.40
-147.24
-140.89
-125.15
-104.41
-82.75
-62.08
-44.68
-32.99
-28.31
-29.72
-33.42
-33.47
-24.80
-4.93
22.71
49.28
64.01
59.44
34.85
-3.76
-47.12
-87.20
-119.94
-145.05
-164.47
-180.03
-191.81
-199.13
-201.73
-200.26
-196.09
-190.54
-183.79
-174.62
-161.10
-141.19
-114.04
-80.55
-43.28
-5.46
30.19
62.31
90.98
117.36
142.88
168.34
193.59
218.03
241.34
264.08
287.74
313.95
343.89
378.15
416.85
459.84
506.46
554.52
599.05
632.27
645.03
629.77
583.28
508.13
411.25
301.22
185.79
71.12
-36.96
-131.76
-205.88
-253.55
-273.79
-272.39
-260.80
-252.14
-255.92
-274.54
-303.53
-334.59
-360.17
-376.30
-382.78
-381.21
-372.26
-354.31
-324.18
-279.69
-221.86
-156.02
-91.00
-36.17
1.83
21.25
24.95
18.90
9.61
2.47
1.12
6.95
18.96
33.42
44.41
45.63
33.46
9.68
-17.94
-38.39
-42.30
-26.33
5.37
43.75
79.41
106.55
123.97
133.25
135.95
131.81
119.08
95.94
62.01
18.61
-31.76
-86.70
-143.77
-199.52
-248.76
-284.79
-300.82
-292.51
-259.50
-205.58
-137.87
-64.14
9.78
81.33
150.42
217.72
282.14
339.83
384.99
410.43
410.22
382.23
329.58
260.26
185.03
114.19
54.77
8.98
-26.91
-60.04
-97.15
-141.58
-192.56
-246.55
-299.57
-348.74
-383.36
-393.50
-372.92
-322.03
-247.90
-161.29
-73.18
7.33
73.90
121.66
151.25
165.05
166.74
160.79
151.39
141.06
130.00
116.41
98.63
74.79
43.89
6.65
-34.42
-75.96
-114.84
-148.90
-177.18
-199.70
-218.00
-234.58
-251.42
-268.29
-281.86
-286.21
-274.72
-242.99
-191.33
-125.69
-56.20
6.24
53.43
81.99
93.07
91.14
82.26
73.11
70.01
77.38
96.23
122.68
148.47
163.28
158.58
130.50
81.05
16.90
-53.20
-120.45
-177.23
-217.14
-235.72
-231.19
-205.54
-164.77
-117.02
-69.71
-26.55
12.99
52.03
91.94
129.80
158.64
171.47
166.29
148.59
129.17
118.17
119.81
129.11
135.76
131.45
115.46
94.68
77.84
68.71
63.74
56.72
43.63
27.30
16.83
22.29
48.50
92.29
145.09
198.29
248.46
294.69
335.18
365.03
377.27
366.59
332.73
281.57
212.19
131.67
50.58
-21.03
-77.63
-118.45
-145.24
-160.12
-165.12
-162.45
-153.19
-139.43
-123.78
-109.00
-96.48
-86.17
-77.03
-68.03
-58.35
-46.69
-33.22
-19.58
-8.64
-1.98
-1.01
-5.76
-15.26
-28.00
-41.21
-53.01
-62.38
-69.81
-76.05
-82.12
-89.08
-97.87
-109.02
-121.91
-134.95
-142.45
-141.55
-130.92
-111.61
-86.89
-61.40
-39.73
-24.91
-17.69
-16.51
-19.50
-24.27
-29.12
-32.96
-35.04
-34.77
-31.63
-25.73
-16.86
-6.34
3.90
12.06
16.43
16.35
12.23
5.23
-3.28
-12.09
-20.93
-29.69
-38.39
-47.15
-55.66
-63.33
-69.13
-72.29
-72.28
-69.67
-65.48
-61.27
-58.32
-57.44
-58.72
-61.15
-63.20
-63.23
-60.51
-55.45
-49.74
-45.31
-43.76
-45.53
-49.30
-52.37
-51.50
-44.29
-30.02
-12.81
2.77
12.48
13.70
6.64
-5.47
-17.06
-21.77
-14.78
5.13
34.85
66.74
90.69
97.53
82.58
48.01
2.82
-39.89
-67.31
-70.75
-49.02
-8.41
39.61
82.57
111.27
122.63
119.82
109.98
101.57
100.74
110.22
129.37
155.94
187.50
222.08
257.81
291.98
322.03
344.97
358.77
361.97
353.65
333.67
302.44
261.48
213.14
162.10
113.07
70.45
36.51
12.08
-2.01
-4.32
7.00
31.79
68.60
104.79
127.12
124.85
95.22
45.29
-12.01
-58.39
-91.02
-113.16
-129.36
-140.35
-142.47
-130.01
-97.13
-42.51
28.74
104.86
172.66
220.19
240.33
231.84
199.89
154.91
109.43
74.44
55.01
50.05
51.90
49.91
35.20
5.85
-31.13
-62.50
-74.58
-60.59
-23.32
25.10
68.74
94.16
95.76
76.07
42.57
3.34
-36.79
-76.31
-115.37
-153.33
-187.53
-212.91
-225.64
-225.03
-214.14
-198.69
-184.57
-175.89
-173.94
-178.51
-186.72
-196.89
-208.29
-220.81
-234.56
-249.45
-265.23
-281.86
-301.11
-322.70
-347.68
-375.45
-402.47
-422.23
-427.01
-410.82
-372.42
-318.15
-255.49
-194.75
-142.96
-101.29
-65.66
-29.51
11.92
69.05
122.41
164.78
186.81
182.66
152.20
102.12
44.76
-4.95
-34.28
-38.99
-20.98
6.94
27.72
27.21
0.82
-43.96
-90.65
-121.01
-124.23
-98.04
-52.29
-2.14
39.16
65.46
78.40
84.19
89.25
96.80
108.81
124.87
144.05
164.59
182.54
191.34
183.82
156.00
109.87
55.03
4.11
-31.99
-48.14
-45.71
-30.11
-7.41
17.61
41.54
62.13
77.79
88.34
95.77
104.01
116.82
135.44
156.97
175.12
183.06
176.72
156.74
127.98
97.33
70.69
51.06
38.22
29.96
23.82
18.37
13.33
8.82
4.64
0.11
-5.44
-11.77
-17.59
-21.27
-22.03
-20.68
-19.12
-18.90
-19.95
-20.43
-17.90
-11.28
-1.86
7.22
12.56
12.18
6.00
-4.95
-19.89
-38.53
-60.56
-84.01
-104.52
-116.21
-114.01
-95.83
-63.21
-19.98
29.60
81.80
133.01
178.43
211.62
225.68
216.23
184.07
136.20
84.01
38.81
8.78
-2.37
5.30
29.44
66.32
110.56
154.96
191.10
210.49
207.99
184.42
146.36
103.38
63.63
30.88
4.03
-20.79
-48.38
-81.72
-120.51
-162.06
-203.23
-241.90
-277.44
-309.74
-328.57
-323.77
-289.38
-227.08
-146.03
-58.19
26.38
101.41
164.60
214.70
254.57
286.21
310.50
327.68
337.43
339.10
331.52
313.77
285.88
248.63
203.31
152.12
98.02
44.01
-7.67
-56.47
-103.36
-150.08
-198.16
-247.05
-292.67
-327.76
-344.48
-337.22
-305.12
-251.88
-184.81
-112.93
-45.44
9.41
45.42
58.88
49.97
22.94
-14.06
-51.33
-80.23
-95.63
-96.97
-86.87
-70.17
-52.19
-38.15
-32.46
-38.61
-58.05
-88.62
-124.61
-156.68
-175.27
-174.16
-154.12
-123.21
-94.05
-78.81
-83.88
-108.84
-145.75
-183.15
-209.88
-218.31
-205.44
-172.06
-122.14
-61.73
-0.95
48.94
77.57
79.13
54.56
11.42
-37.98
-81.02
-108.04
-117.72
-114.64
-106.62
-101.53
-105.02
-120.90
-151.48
-197.92
-244.70
-275.97
-277.98
-245.68
-185.10
-109.59
-34.63
27.08
68.57
90.10
95.20
89.44
77.75
63.18
46.43
29.60
15.62
7.28
6.68
12.63
22.13
31.56
38.11
41.60
44.47
50.50
63.46
85.89
115.27
147.96
180.86
213.20
247.10
285.53
328.58
371.61
406.14
423.45
419.12
394.94
356.99
311.92
263.84
213.75
163.09
116.36
81.13
63.89
64.89
75.29
79.92
64.74
23.60
-38.69
-110.38
-179.42
-239.15
-289.00
-330.69
-363.87
-383.78
-384.04
-361.04
-317.94
-264.16
-211.05
-166.57
-131.92
-102.82
-72.89
-38.31
0.49
40.09
77.14
110.41
139.65
164.45
182.84
192.83
193.79
187.49
176.66
162.19
141.70
110.67
67.11
15.82
-30.37
-55.85
-50.17
-15.24
33.52
73.29
83.61
55.88
-3.77
-77.58
-144.12
-186.42
-196.85
-177.84
-138.13
-88.14
-35.94
14.10
60.63
103.84
144.19
182.58
220.25
258.74
298.52
337.53
370.39
389.52
388.33
364.30
320.53
264.46
205.09
149.46
100.80
58.85
20.70
-17.18
-58.13
-103.79
-152.73
-199.82
-237.55
-259.53
-263.69
-254.74
-242.51
-238.26
-249.44
-276.46
-312.72
-347.89
-372.62
-381.42
-374.17
-354.76
-329.14
-303.23
-281.58
-266.98
-260.19
-260.18
-263.35
-265.32
-261.87
-249.91
-228.18
-197.45
-160.38
-120.40
-80.75
-41.17
-0.26
43.18
88.76
134.17
175.98
211.04
237.76
256.01
271.62
291.75
322.85
368.62
428.67
498.45
569.52
630.77
669.97
684.12
677.40
660.72
647.88
650.40
673.64
715.27
766.67
789.98
758.11
659.91
505.97
322.46
137.03
-31.79
-176.53
-289.44
-377.64
-441.76
-479.96
-491.13
-477.63
-445.60
-402.81
-356.71
-312.44
-274.34
-240.28
-206.96
-171.75
-134.13
-96.10
-61.10
-32.33
-12.42
-4.20
-6.40
-17.17
-34.98
-59.10
-89.18
-126.20
-166.66
-203.82
-231.03
-242.44
-236.30
-214.97
-183.82
-149.40
-117.75
-92.83
-76.30
-67.88
-65.02
-64.57
-63.95
-61.78
-57.72
-51.88
-44.25
-35.13
-25.57
-17.19
-11.33
-8.65
-8.63
-9.79
-10.09
-7.66
-1.73
7.09
16.82
25.50
31.81
35.49
37.30
38.70
40.21
41.43
40.76
35.79
25.06
8.33
-13.38
-38.39
-64.79
-90.39
-112.17
-124.79
-124.43
-109.08
-80.36
-43.89
-7.66
20.76
36.89
40.40
34.44
23.27
11.02
0.26
-7.49
-10.86
-8.38
1.31
18.30
40.29
62.09
77.14
79.13
65.12
37.38
2.63
-28.86
-48.43
-52.33
-42.65
-24.80
-4.49
14.90
32.73
49.53
65.21
77.99
85.51
85.43
77.63
64.10
47.91
32.23
18.73
7.67
-1.63
-10.11
-18.61
-27.51
-36.86
-46.02
-52.92
-54.28
-46.26
-26.44
4.51
42.25
80.75
115.00
142.86
165.22
183.78
198.72
207.51
206.36
192.87
169.04
141.63
119.42
109.48
114.04
130.10
151.31
172.57
188.99
197.82
198.49
191.79
179.00
161.31
139.75
115.04
87.53
56.63
21.50
-18.87
-65.22
-117.52
-174.64
-234.58
-294.63
-351.74
-403.70
-449.51
-489.95
-527.10
-562.23
-593.86
-617.06
-624.31
-608.35
-566.46
-502.95
-428.79
-358.16
-302.48
-266.88
-249.70
-244.34
-241.74
-233.95
-215.83
-186.02
-147.21
-104.65
-65.78
-37.91
-24.81
-23.29
-24.43
-17.51
4.96
43.51
93.05
144.83
190.24
218.07
221.25
200.63
162.66
117.88
69.13
18.05
-32.33
-77.25
-111.95
-131.81
-134.74
-122.26
-98.81
-70.26
-40.57
-12.07
14.19
37.47
57.46
73.36
83.38
85.39
77.69
61.02
38.18
13.25
-9.31
-25.13
-31.15
-26.55
-12.80
6.78
28.59
49.37
66.57
79.02
86.95
91.73
94.99
97.85
100.53
102.77
104.20
104.54
104.25
104.67
107.64
115.13
128.84
149.81
177.75
210.09
241.37
264.29
271.80
260.10
230.86
191.16
151.10
119.80
102.05
97.02
99.67
103.51
103.20
96.18
82.46
64.25
44.90
28.49
19.22
20.53
33.93
58.40
90.97
127.59
164.63
199.56
230.84
257.11
276.54
286.92
286.34
274.41
252.61
223.96
191.99
159.69
128.95
100.77
75.96
55.56
40.92
32.95
31.33
34.25
38.64
41.19
39.33
32.16
20.62
7.11
-5.76
-16.47
-25.44
-35.09
-48.72
-68.87
-95.59
-125.89
-154.66
-176.81
-189.51
-193.35
-191.79
-189.12
-188.34
-189.92
-192.17
-193.09
-191.73
-188.65
-184.92
-181.12
-177.01
-171.82
-165.29
-157.45
-147.92
-135.01
-115.51
-85.79
-43.78
8.78
65.81
117.87
156.04
175.86
179.64
175.73
174.51
183.02
200.45
217.83
222.39
204.63
164.68
113.93
70.47
50.74
61.97
99.33
149.20
195.77
227.32
238.75
230.35
204.75
164.03
109.55
43.60
-29.19
-101.56
-165.78
-216.47
-252.69
-277.42
-295.36
-309.66
-319.76
-322.29
-314.11
-295.57
-271.58
-250.46
-240.25
-244.86
-261.82
-282.79
-296.71
-294.03
-269.56
-223.80
-161.98
-91.97
-21.90
42.08
97.11
143.85
185.38
225.11
264.95
304.47
341.27
372.10
394.01
404.75
402.99
388.48
362.36
327.22
286.66
244.49
203.33
163.87
124.96
84.16
39.56
-8.33
-55.44
-95.12
-119.86
-124.11
-106.38
-70.22
-24.51
19.06
50.33
64.50
63.61
55.06
47.84
48.17
57.19
69.67
76.87
71.10
49.14
12.90
-32.55
-81.75
-132.92
-181.03
-219.65
-243.04
-247.69
-232.56
-199.22
-152.18
-98.55
-46.36
-1.93
32.08
54.88
67.29
71.63
70.54
65.98
58.53
47.21
30.04
3.59
-34.55
-83.82
-138.87
-190.30
-227.80
-243.84
-236.26
-208.40
-168.39
-126.32
-91.34
-70.01
-66.38
-82.75
-119.33
-173.06
-230.35
-273.13
-285.33
-261.52
-208.92
-141.89
-74.00
-13.43
37.20
78.54
111.62
136.83
154.23
165.07
171.65
177.12
184.13
194.68
207.61
219.65
226.48
224.38
211.47
187.51
154.52
114.28
70.97
27.74
-13.88
-53.55
-91.14
-129.38
-167.90
-203.95
-234.32
-256.36
-269.12
-272.78
-268.32
-256.78
-229.52
-188.39
-137.77
-82.25
-25.98
26.83
72.76
109.36
135.70
152.12
159.25
160.07
156.80
150.82
142.26
130.90
116.76
100.77
84.77
70.49
59.66
53.11
50.01
47.80
42.99
32.00
11.76
-20.34
-62.61
-110.85
-157.56
-193.14
-208.72
-199.59
-167.62
-121.08
-71.67
-30.66
-4.67
5.96
5.67
0.39
-5.52
-10.67
-15.55
-20.62
-25.17
-27.33
-25.29
-19.34
-10.82
-2.85
0.97
-1.56
-10.22
-22.28
-33.60
-39.96
-38.53
-28.35
-10.03
15.23
46.45
81.33
115.13
141.19
152.87
145.95
121.07
83.86
43.13
7.80
-16.09
-27.52
-29.19
-25.12
-18.87
-12.70
-8.35
-7.78
-13.18
-25.66
-44.10
-64.91
-81.00
-84.32
-69.14
-34.84
13.29
66.09
114.83
152.86
178.11
192.65
200.10
202.87
201.10
193.34
172.51
141.31
104.32
66.48
31.84
2.72
-20.80
-40.21
-57.37
-73.33
-87.32
-98.70
-106.42
-109.37
-106.98
-99.79
-89.35
-77.99
-66.95
-56.19
-46.13
-36.73
-27.99
-20.28
-14.77
-13.13
-16.75
-25.78
-38.46
-51.99
-62.69
-67.24
-63.34
-50.03
-27.31
4.03
41.56
80.21
112.63
131.32
131.00
111.32
77.66
39.26
5.58
-17.30
-27.82
-28.31
-22.36
-12.96
-1.73
10.79
23.64
35.23
43.47
47.79
48.11
45.56
41.26
35.77
28.75
19.07
5.26
-14.05
-39.08
-68.16
-96.98
-117.57
-122.98
-109.68
-79.53
-39.87
-1.13
27.35
40.69
39.66
29.35
15.56
2.36
-8.91
-18.99
-29.38
-40.77
-52.56
-63.89
-73.00
-78.61
-79.64
-75.37
-64.77
-46.82
-20.63
13.63
52.17
88.77
115.63
126.27
118.47
95.64
65.72
38.07
19.46
11.95
13.19
18.35
23.04
25.17
24.86
23.25
21.21
18.59
14.86
10.15
5.18
0.98
-1.49
-1.82
-0.64
0.88
1.47
0.20
-2.62
-6.01
-8.72
-9.68
-8.12
-3.93
2.69
11.22
21.00
31.39
41.53
50.30
56.24
58.24
55.58
48.16
36.54
21.57
4.21
-14.65
-34.35
-54.44
-74.38
-93.95
-113.31
-132.58
-151.20
-167.27
-177.20
-176.80
-163.19
-136.28
-99.20
-56.89
-14.01
26.25
61.70
89.91
107.16
107.36
85.80
42.04
-18.40
-84.85
-145.11
-189.26
-212.17
-214.13
-198.87
-170.95
-134.44
-92.79
-49.09
-6.88
31.14
64.22
93.38
120.02
144.31
163.27
170.86
161.38
133.25
92.94
53.00
26.07
17.75
24.32
35.11
38.93
30.00
9.82
-14.01
-32.63
-40.78
-37.99
-26.07
-6.09
22.94
62.06
103.49
133.69
139.96
117.73
72.06
12.86
-50.20
-109.63
-160.71
-201.26
-231.86
-251.87
-260.74
-258.83
-247.64
-228.72
-203.30
-171.80
-134.53
-92.07
-44.84
6.11
58.52
109.22
155.39
195.86
231.60
264.80
297.81
331.05
361.39
382.56
387.46
371.95
336.82
287.17
229.89
171.20
116.10
68.67
33.16
13.22
10.25
21.22
38.42
51.77
52.54
37.10
7.68
-28.65
-62.96
-86.66
-93.23
-78.74
-42.23
13.60
83.07
158.28
230.36
291.18
334.28
355.25
352.36
327.17
283.53
228.80
172.00
120.56
78.59
45.67
18.78
-5.38
-28.61
-52.79
-77.21
-99.68
-118.36
-132.42
-143.68
-154.11
-164.84
-175.85
-189.66
-207.15
-227.89
-251.28
-276.46
-304.85
-337.29
-373.14
-410.97
-452.43
-495.52
-534.06
-559.37
-562.31
-540.07
-494.86
-433.11
-340.42
-221.76
-95.93
15.09
89.32
133.42
155.69
162.32
160.32
154.84
146.84
139.53
137.42
144.02
160.76
182.08
200.14
207.94
202.39
182.32
155.07
132.66
124.61
133.90
154.33
177.38
196.35
210.33
218.52
220.82
215.89
201.89
178.71
146.93
109.38
70.40
34.14
1.94
-26.63
-54.92
-85.91
-119.73
-153.70
-183.49
-205.15
-216.74
-219.27
-215.53
-211.43
-212.49
-221.41
-237.52
-258.19
-279.79
-297.84
-307.39
-289.83
-237.09
-157.62
-73.37
-5.33
36.11
51.98
49.77
37.53
20.61
-1.38
-29.91
-64.49
-98.11
-121.60
-128.44
-117.15
-92.03
-60.00
-30.72
-11.67
-3.62
-0.20
7.01
22.04
45.61
75.32
108.34
139.28
160.08
165.06
153.06
126.07
90.45
57.18
38.74
46.70
82.61
133.44
182.27
217.01
233.91
239.29
245.57
263.58
299.56
348.89
395.14
425.02
435.34
430.91
421.02
414.21
392.63
344.98
296.64
250.68
192.93
120.41
37.28
-48.25
-127.71
-196.16
-249.83
-287.57
-311.15
-320.78
-315.34
-295.06
-261.19
-216.37
-165.50
-112.41
-61.75
-20.08
10.09
30.49
43.64
51.56
54.56
50.97
39.68
15.76
-21.39
-68.00
-117.53
-164.48
-205.00
-236.40
-255.99
-259.91
-244.79
-210.80
-162.69
-108.66
-58.33
-19.35
5.01
16.14
18.60
17.41
15.61
13.56
10.53
6.22
1.50
-2.11
-3.49
-2.78
-1.21
-0.11
-1.02
-4.52
-10.01
-16.17
-21.66
-25.94
-29.54
-33.90
-40.34
-50.02
-63.13
-78.73
-94.94
-110.02
-121.68
-128.16
-128.46
-122.09
-109.13
-89.96
-65.31
-36.29
-4.51
27.54
57.47
83.12
103.02
116.43
123.56
125.36
123.13
118.40
112.49
106.32
100.20
94.16
88.07
81.88
75.81
70.03
64.94
60.80
57.64
55.04
52.51
49.56
45.99
42.02
38.18
35.11
33.21
32.85
33.21
33.55
33.37
32.56
31.38
30.20
29.32
29.12
30.35
34.05
41.23
51.60
62.70
70.09
68.95
56.77
34.00
4.70
-25.51
-51.17
-68.63
-75.88
-72.35
-59.06
-38.79
-16.11
3.85
16.56
20.19
15.99
7.82
0.39
-2.66
0.30
8.71
19.92
29.83
34.06
29.11
14.65
-5.32
-23.39
-31.31
-23.84
-1.19
30.87
63.23
86.52
94.15
84.08
59.03
25.33
-9.50
-39.05
-59.24
-68.90
-68.98
-61.71
-49.14
-32.66
-13.37
7.39
27.17
43.65
55.20
61.48
63.13
61.24
56.91
50.94
43.62
33.78
20.49
3.34
-17.20
-39.97
-63.85
-87.44
-109.74
-124.51
-129.90
-126.55
-117.11
-105.42
-95.75
-92.54
-97.62
-109.98
-126.76
-145.78
-165.07
-182.68
-196.32
-203.78
-204.35
-197.08
-181.26
-157.06
-126.22
-90.00
-48.08
0.81
63.68
135.61
202.49
250.12
272.59
272.77
258.70
238.72
218.08
198.02
176.75
154.03
132.57
116.34
109.30
113.44
127.66
147.20
164.52
171.53
164.04
143.37
115.32
87.43
65.76
52.13
46.70
45.55
43.71
38.58
30.43
21.05
12.13
4.46
-2.63
-12.89
-29.05
-50.14
-71.43
-87.04
-93.05
-88.75
-75.85
-58.53
-45.87
-45.14
-58.00
-80.66
-107.48
-134.21
-159.10
-182.03
-205.66
-239.09
-289.35
-356.84
-435.28
-516.04
-591.62
-656.53
-706.47
-700.11
-615.23
-462.51
-280.61
-108.02
35.11
145.84
225.09
287.58
340.69
380.11
400.32
399.97
383.24
352.66
307.47
249.71
186.75
128.14
79.85
47.21
34.41
43.06
68.88
102.98
135.48
160.57
176.01
180.96
177.12
167.39
155.88
144.81
134.73
124.13
110.40
89.64
58.44
17.28
-30.66
-77.17
-114.51
-137.64
-145.31
-139.20
-123.07
-101.31
-77.44
-54.81
-34.52
-17.54
-3.88
7.57
19.09
33.23
51.80
78.42
107.20
135.63
161.18
182.24
198.37
209.86
217.47
221.74
222.66
217.76
206.40
188.70
166.12
141.17
116.04
92.21
69.76
47.87
21.66
-12.30
-55.39
-105.99
-159.86
-211.60
-255.71
-287.77
-304.77
-309.95
-307.29
-300.57
-292.27
-283.97
-277.50
-275.15
-279.93
-273.43
-247.87
-206.09
-159.30
-118.30
-87.91
-67.88
-55.25
-45.59
-32.94
-15.46
7.44
33.83
58.12
72.79
71.52
53.24
20.27
-16.12
-48.33
-72.42
-88.46
-98.89
-105.75
-109.54
-108.65
-100.34
-81.85
-54.29
-20.27
17.45
56.95
97.74
139.39
181.60
219.99
249.65
265.58
266.24
254.60
233.98
210.94
190.43
172.46
152.99
128.75
99.21
67.38
37.73
13.61
-3.72
-15.54
-24.10
-30.94
-35.81
-38.12
-37.86
-36.03
-34.17
-33.60
-35.21
-39.04
-44.30
-49.33
-52.92
-54.67
-55.03
-55.16
-56.08
-58.56
-62.88
-68.74
-75.28
-82.03
-89.02
-96.75
-105.91
-116.89
-129.53
-142.91
-156.33
-166.84
-171.69
-168.58
-156.07
-133.60
-101.61
-61.54
-15.75
32.80
81.12
125.85
163.81
192.19
209.00
212.95
203.64
181.62
148.42
106.77
59.95
11.68
-34.57
-75.82
-110.20
-136.99
-156.51
-169.54
-176.74
-178.63
-175.52
-167.96
-156.89
-144.00
-131.45
-121.09
-113.85
-108.92
-103.89
-95.14
-82.18
-65.23
-46.10
-27.55
-12.41
-2.27
3.49
7.53
13.57
24.99
44.16
72.31
109.98
155.71
205.15
251.00
285.22
302.73
304.75
299.31
297.94
310.92
340.50
379.86
417.26
442.73
453.13
452.36
447.16
442.71
441.30
440.05
433.37
415.87
384.47
339.04
281.90
216.97
140.29
56.81
-22.85
-87.58
-130.96
-153.12
-158.56
-150.66
-135.63
-119.46
-106.00
-98.23
-98.46
-106.89
-122.73
-141.91
-159.88
-174.26
-184.46
-190.28
-191.49
-189.17
-184.17
-177.43
-169.33
-161.18
-156.41
-159.10
-172.68
-198.82
-240.21
-294.71
-357.35
-418.80
-467.29
-492.40
-487.48
-462.68
-423.33
-376.26
-328.84
-287.43
-255.25
-229.41
-208.13
-189.70
-173.32
-157.18
-141.12
-124.75
-107.33
-87.86
-66.04
-43.24
-21.27
-2.18
13.97
26.80
36.36
42.70
45.78
45.23
39.92
29.12
12.74
-7.40
-29.30
-50.61
-69.13
-83.26
-92.25
-96.57
-97.33
-95.87
-92.97
-89.44
-85.86
-82.63
-80.10
-78.41
-77.86
-78.57
-80.54
-83.20
-85.87
-87.80
-88.28
-86.84
-83.26
-77.75
-70.68
-62.60
-53.96
-45.11
-36.16
-27.05
-17.71
-8.16
1.44
10.76
19.42
27.20
34.12
40.53
47.03
54.12
62.10
70.92
80.25
89.64
98.85
108.04
117.76
128.81
141.75
156.69
173.13
190.14
206.74
222.26
236.62
250.27
264.12
279.28
296.93
318.03
342.76
369.92
396.50
418.00
429.62
427.94
412.38
385.37
351.50
315.61
281.18
249.65
220.83
194.17
169.67
148.19
130.81
117.93
108.75
101.39
93.76
84.42
73.28
61.57
51.33
44.45
41.96
43.61
47.92
52.75
55.92
56.17
53.55
49.55
46.57
46.90
51.77
60.56
70.92
79.70
84.39
84.36
81.29
78.51
79.44
86.20
98.61
114.37
129.60
139.88
140.97
129.56
104.53
68.18
27.43
-7.14
-24.34
-17.10
13.80
59.18
104.93
138.04
151.70
147.43
132.66
116.14
103.80
97.11
94.57
94.06
94.68
96.32
98.56
99.21
94.12
78.85
50.49
9.33
-41.16
-95.13
-146.45
-190.01
-222.38
-241.96
-247.91
-239.73
-216.98
-180.04
-130.76
-73.10
-13.04
42.81
88.28
119.57
135.52
137.35
127.66
109.02
83.39
51.51
13.76
-29.97
-79.16
-132.58
-187.49
-238.80
-280.08
-304.81
-309.39
-294.32
-265.03
-229.55
-195.63
-168.58
-149.45
-136.72
-127.48
-119.88
-113.37
-108.36
-104.99
-101.34
-93.94
-77.87
-49.95
-10.24
35.94
78.72
106.92
111.61
90.45
47.63
-6.84
-62.11
-109.72
-146.11
-172.57
-191.93
-206.67
-215.86
-216.23
-202.89
-172.56
-125.16
-63.99
4.41
73.10
134.78
183.19
212.40
217.75
197.50
154.88
100.21
48.35
15.17
10.53
35.39
81.84
136.91
188.71
229.14
255.53
267.24
264.53
246.86
214.37
169.77
118.09
66.28
19.56
-19.46
-51.48
-78.80
-103.95
-128.76
-153.65
-179.36
-205.78
-232.99
-259.87
-284.08
-302.55
-311.95
-309.96
-294.35
-264.72
-222.02
-169.85
-114.00
-60.99
-16.04
19.94
49.84
79.28
111.65
145.29
172.83
184.04
171.41
134.19
80.21
21.83
-28.65
-63.41
-80.44
-81.73
-71.63
-54.35
-34.78
-18.39
-12.44
-24.12
-57.16
-109.20
-170.35
-226.99
-265.77
-279.65
-269.84
-244.63
-215.19
-190.31
-173.92
-164.51
-157.88
-149.24
-135.21
-114.41
-87.19
-55.57
-23.33
3.79
19.62
19.52
2.40
-28.61
-67.82
-108.89
-147.79
-183.80
-219.23
-256.73
-296.30
-333.84
-361.58
-371.79
-359.82
-327.19
-280.90
-230.91
-186.18
-151.23
-125.97
-106.69
-89.55
-72.37
-55.65
-41.20
-29.88
-20.62
-10.04
5.59
29.26
61.35
99.35
138.61
174.30
203.79
227.29
247.53
267.75
290.33
315.84
343.67
373.30
404.51
436.92
467.71
491.31
500.72
491.51
465.51
431.32
401.30
384.85
383.65
390.03
391.24
376.00
339.85
286.63
224.89
163.19
105.73
52.37
0.91
-49.67
-97.37
-138.47
-169.66
-190.61
-204.39
-216.61
-232.81
-256.38
-287.79
-324.60
-363.07
-398.90
-428.17
-447.37
-453.51
-444.45
-419.23
-378.94
-326.47
-266.48
-204.06
-143.70
-88.37
-38.93
5.42
46.80
87.41
129.35
174.00
222.17
274.06
327.94
379.86
423.49
452.48
463.44
458.58
445.23
432.17
424.95
422.10
416.08
397.19
359.28
303.12
235.93
167.52
105.38
52.63
8.27
-29.78
-62.45
-88.96
-107.85
-119.02
-124.03
-126.34
-129.59
-136.73
-149.03
-166.20
-187.17
-210.30
-234.35
-258.46
-282.87
-308.54
-336.74
-367.57
-398.59
-424.62
-438.51
-434.05
-408.20
-362.55
-302.96
-237.80
-175.70
-123.06
-83.24
-55.38
-34.88
-14.79
11.72
47.97
92.24
137.47
174.71
196.21
198.10
180.73
147.84
105.70
62.21
26.97
8.73
12.26
34.44
63.70
84.34
83.64
59.46
21.59
-12.34
-26.93
-17.24
8.63
33.51
40.33
19.59
-25.93
-84.13
-139.32
-179.81
-202.48
-211.63
-215.17
-218.04
-219.48
-213.01
-191.33
-151.35
-97.29
-39.55
11.00
47.68
71.62
89.70
110.27
138.42
173.80
212.57
249.29
280.17
302.35
313.50
310.68
290.67
252.26
197.59
133.51
68.69
11.53
-33.90
-68.85
-98.70
-130.40
-168.04
-211.02
-253.01
-285.20
-299.13
-290.35
-259.92
-212.95
-156.91
-97.65
-38.38
19.97
75.74
124.25
158.00
169.48
157.21
128.17
97.57
82.07
91.61
124.17
166.59
202.53
221.09
222.63
215.72
210.13
209.74
210.70
206.43
193.60
175.95
161.13
155.08
156.28
155.97
143.27
111.34
61.80
2.56
-56.04
-105.92
-142.57
-163.97
-168.97
-155.93
-124.53
-76.06
-14.53
55.05
127.77
198.95
263.73
315.62
347.64
353.36
330.63
282.78
218.59
149.58
85.54
32.29
-10.20
-45.34
-77.85
-110.17
-142.16
-172.22
-198.43
-221.12
-242.30
-265.64
-294.13
-328.73
-367.67
-406.92
-442.30
-469.91
-487.78
-494.84
-491.24
-477.74
-455.25
-425.54
-390.42
-352.64
-314.45
-278.03
-244.69
-214.94
-188.81
-165.27
-143.25
-120.68
-96.02
-67.79
-35.81
-0.92
35.17
69.46
99.02
121.05
135.14
143.29
150.14
161.65
182.28
213.37
251.46
289.90
320.52
337.29
338.17
325.53
305.34
284.09
267.57
258.51
257.08
260.69
264.84
264.26
253.42
228.91
190.03
140.63
87.64
39.38
2.59
-20.09
-29.99
-31.62
-29.19
-25.80
-22.30
-18.62
-15.19
-12.90
-13.31
-16.69
-22.38
-28.40
-33.15
-36.20
-38.27
-41.02
-45.31
-51.49
-58.46
-65.22
-70.92
-75.22
-78.17
-79.26
-78.04
-73.44
-65.21
-53.52
-39.35
-24.15
-8.95
5.01
17.26
26.78
33.09
35.79
35.05
32.01
27.98
24.72
22.98
23.31
25.18
27.81
30.47
32.30
33.08
32.37
30.50
27.46
23.81
20.10
16.81
14.74
14.00
14.84
16.44
17.98
18.28
16.65
13.32
9.08
5.60
3.79
4.28
6.35
8.89
10.79
11.31
10.68
9.14
7.45
5.55
3.34
0.53
-3.01
-6.66
-9.77
-11.24
-10.82
-8.48
-5.08
-1.56
1.57
3.86
5.61
6.63
7.04
6.33
4.30
1.12
-2.59
-5.48
-6.72
-5.65
-2.96
0.30
2.70
3.25
2.04
-0.43
-2.83
-4.60
-5.38
-5.75
-6.49
-8.00
-10.41
-12.91
-15.03
-15.96
-15.64
-14.12
-11.69
-9.01
-6.62
-5.56
-6.21
-8.96
-13.01
-17.12
-19.88
-20.17
-18.20
-14.69
-11.22
-8.67
-7.53
-7.41
-7.51
-7.29
-6.08
-4.03
-1.09
2.12
4.98
6.73
6.69
5.06
2.25
-0.36
-1.88
-1.54
0.49
3.61
7.34
11.25
15.73
20.85
27.18
34.83
44.08
55.09
67.19
78.77
86.30
86.00
74.48
51.41
19.96
-13.89
-43.17
-63.11
-71.87
-71.33
-64.65
-54.96
-43.91
-31.68
-18.39
-4.29
9.08
20.31
28.14
32.53
34.33
34.66
34.76
34.87
35.01
34.35
32.32
28.61
23.47
17.76
11.95
6.43
0.48
-6.50
-15.12
-25.13
-35.08
-43.33
-48.07
-48.98
-46.45
-42.04
-37.14
-32.57
-28.57
-24.59
-20.52
-16.11
-11.94
-8.44
-5.94
-4.58
-3.86
-3.46
-2.73
-1.80
-0.76
-0.21
-0.50
-1.50
-2.78
-3.16
-2.13
0.60
4.04
6.90
8.03
6.96
4.51
1.78
0.29
0.45
2.14
4.45
6.41
7.70
8.17
8.30
8.06
7.65
6.79
5.40
3.77
2.18
1.32
1.21
1.91
2.70
2.89
1.77
-1.15
-5.55
-10.99
-16.24
-20.51
-23.01
-23.64
-22.85
-21.12
-19.20
-17.23
-15.55
-13.95
-12.50
-11.08
-9.45
-7.55
-4.93
-1.73
2.03
5.69
8.79
10.99
12.14
12.70
12.76
12.84
12.84
12.84
12.73
12.45
12.12
11.58
11.06
10.33
9.56
8.62
7.53
6.44
5.27
4.34
3.56
3.21
3.10
3.13
3.14
2.88
2.49
1.91
1.54
1.41
1.73
2.38
3.09
3.70
3.82
3.70
3.41
3.55
4.44
6.11
8.21
9.96
10.89
10.53
9.30
7.57
5.85
4.46
3.31
2.53
2.03
2.27
3.28
5.25
7.92
10.83
13.72
16.19
18.45
20.45
22.53
24.60
26.29
26.77
24.64
18.85
8.62
-5.29
-21.21
-36.52
-48.73
-56.38
-58.93
-57.25
-52.36
-45.65
-37.85
-29.61
-21.41
-13.55
-6.63
-0.83
3.42
6.24
7.64
7.98
7.77
7.30
6.97
6.54
6.00
5.09
4.06
3.29
3.11
3.80
4.93
6.19
6.83
6.73
5.93
4.81
4.01
3.67
3.92
4.13
3.90
2.59
0.16
-3.04
-6.43
-9.08
-10.64
-10.82
-10.15
-9.07
-8.16
-7.71
-7.49
-7.40
-6.90
-6.14
-5.08
-4.07
-3.25
-2.48
-1.64
-0.31
1.37
3.38
5.07
6.00
5.91
4.74
3.08
1.44
0.58
0.60
1.57
2.99
4.30
5.23
5.54
5.61
5.57
5.86
6.35
6.87
7.12
6.75
5.87
4.36
2.64
0.70
-1.28
-3.18
-4.99
-6.37
-7.35
-7.69
-7.70
-7.44
-7.21
-7.19
-7.23
-7.29
-6.91
-5.98
-4.12
-1.47
1.65
4.70
6.87
7.85
7.45
6.14
4.35
2.61
1.07
-0.38
-1.72
-2.95
-3.43
-2.93
-1.11
1.64
4.53
6.78
7.66
7.35
6.15
4.98
4.31
4.38
4.96
5.43
5.46
4.68
3.41
1.70
-0.14
-2.08
-4.15
-6.13
-7.96
-9.09
-9.38
-8.74
-7.62
-6.69
-6.32
-6.60
-6.74
-6.18
-4.21
-1.03
2.63
5.77
7.40
7.37
5.81
3.59
1.23
-0.79
-2.39
-3.72
-4.69
-5.31
-5.24
-4.63
-3.48
-2.24
-1.37
-1.02
-1.26
-1.47
-1.40
-0.63
0.52
1.56
1.93
1.25
-0.15
-1.91
-3.14
-3.60
-3.13
-2.00
-0.62
0.88
2.15
3.19
3.67
3.62
3.06
2.19
1.49
1.12
1.33
1.73
2.18
2.23
1.74
0.80
-0.51
-1.74
-2.78
-3.15
-2.90
-1.95
-0.57
0.80
2.03
2.87
3.62
4.22
4.87
5.28
5.19
4.44
2.96
1.25
-0.45
-1.61
-2.31
-2.63
-2.89
-3.36
-3.85
-4.37
-4.47
-4.27
-3.83
-3.48
-3.54
-3.89
-4.46
-4.59
-4.11
-2.68
-0.55
1.81
3.96
5.25
5.69
5.16
4.21
3.01
1.85
0.78
-0.33
-1.24
-1.92
-1.80
-0.91
0.79
2.71
4.18
4.82
4.42
3.52
2.43
1.65
1.10
0.67
0.32
-0.03
-0.02
0.23
0.88
1.43
1.54
0.94
-0.37
-1.91
-3.40
-4.30
-4.82
-4.98
-5.19
-5.64
-6.17
-6.63
-6.44
-5.49
-3.57
-1.18
1.17
3.00
3.90
4.08
3.56
2.83
1.92
1.02
0.05
-1.05
-1.96
-2.57
-2.43
-1.64
-0.18
1.56
3.23
4.66
5.56
6.18
6.48
6.79
7.02
7.16
7.12
6.70
6.16
5.45
4.96
4.67
4.74
5.12
5.69
6.53
7.33
8.20
8.75
9.03
9.09
9.37
10.62
13.26
17.66
23.10
28.76
33.39
36.41
37.91
38.54
39.50
41.37
44.52
48.27
51.87
54.55
56.03
56.69
56.99
57.81
59.20
61.04
62.63
63.34
62.76
60.59
57.25
52.94
48.58
44.97
43.07
43.39
45.63
48.57
49.70
46.35
35.84
17.27
-8.51
-39.11
-71.24
-101.66
-127.66
-147.91
-162.49
-173.22
-182.20
-190.47
-197.14
-199.27
-193.21
-176.10
-147.04
-107.03
-58.04
-1.31
63.10
133.62
204.41
264.56
301.05
304.80
274.68
217.45
144.30
66.69
-7.02
-71.94
-126.65
-171.62
-205.65
-226.59
-233.36
-227.62
-214.16
-200.05
-191.74
-189.21
-189.95
-187.41
-174.00
-145.19
-102.41
-52.51
-4.86
32.52
56.74
67.53
66.41
55.20
35.76
10.60
-16.65
-41.20
-58.28
-64.31
-58.60
-43.09
-22.51
-3.68
6.30
2.18
-17.18
-48.06
-82.78
-112.97
-132.47
-139.73
-138.36
-134.73
-134.67
-140.79
-152.16
-165.50
-177.76
-187.43
-194.51
-199.58
-202.56
-202.29
-197.03
-185.74
-168.74
-147.57
-124.49
-101.03
-77.34
-52.24
-23.88
9.32
47.69
90.06
134.05
176.89
216.38
251.55
282.77
311.39
339.19
367.39
395.85
422.69
444.62
457.92
459.85
449.61
428.89
401.49
372.39
346.24
326.09
312.47
303.58
296.24
287.13
274.32
257.81
239.44
221.75
206.67
194.43
183.60
171.86
157.08
138.10
114.98
88.76
60.92
33.20
7.14
-16.33
-36.80
-54.61
-70.83
-87.21
-105.63
-127.34
-152.25
-178.35
-202.19
-219.51
-227.36
-225.87
-218.89
-212.39
-211.37
-217.45
-227.85
-237.28
-240.74
-236.59
-227.12
-217.24
-211.80
-212.82
-218.93
-225.89
-228.22
-220.03
-196.72
-155.86
-98.01
-27.48
48.33
119.55
175.64
207.30
208.61
178.43
120.42
42.32
-46.01
-133.38
-207.13
-256.14
-274.41
-262.89
-228.10
-179.42
-125.77
-74.17
-28.56
9.08
38.49
60.31
75.14
83.98
87.89
88.12
85.86
83.00
80.97
81.25
85.03
92.60
103.96
118.52
135.09
152.00
169.03
184.15
195.49
201.29
199.81
189.56
169.36
138.71
96.90
47.61
-4.75
-55.39
-100.32
-136.90
-164.28
-183.13
-195.19
-202.42
-206.76
-210.59
-215.52
-221.70
-227.11
-227.88
-219.61
-200.07
-170.53
-136.46
-105.86
-85.55
-78.32
-81.91
-91.51
-100.72
-105.25
-103.18
-94.46
-79.77
-59.51
-34.05
-4.18
27.79
58.72
84.96
103.64
113.59
115.18
110.14
100.47
88.10
73.90
58.22
40.85
21.72
1.51
-18.69
-37.37
-53.64
-66.87
-77.42
-85.99
-93.43
-100.38
-106.75
-112.37
-116.71
-120.03
-122.56
-125.19
-128.73
-133.40
-138.71
-142.99
-144.44
-141.06
-133.63
-122.84
-109.63
-94.72
-78.03
-58.87
-35.88
-8.24
24.18
60.53
99.66
140.41
181.23
220.53
255.80
284.34
303.48
311.92
310.21
300.19
283.81
261.15
230.59
189.77
137.88
77.45
14.56
-42.81
-88.23
-119.15
-138.20
-150.80
-161.84
-173.00
-181.75
-183.13
-172.36
-147.80
-111.17
-66.79
-19.35
27.96
73.18
115.25
152.41
182.40
202.66
212.27
212.55
206.81
198.97
191.11
183.13
172.76
157.58
137.02
113.20
90.27
72.26
61.76
58.75
61.94
69.49
79.73
91.23
102.21
110.73
114.62
112.68
104.49
90.52
71.68
48.85
23.73
-1.09
-21.84
-34.90
-38.00
-32.04
-21.37
-12.55
-12.48
-25.55
-52.50
-89.48
-129.38
-163.49
-183.73
-184.67
-164.18
-123.84
-68.43
-6.16
52.19
94.62
110.54
93.92
45.54
-25.76
-105.00
-174.09
-216.57
-221.77
-187.54
-120.30
-32.51
61.06
147.60
219.02
273.06
312.22
340.99
363.32
380.67
392.41
396.48
390.89
374.39
346.97
310.07
265.83
217.03
166.63
117.76
73.11
34.29
1.55
-25.89
-48.67
-66.89
-79.40
-84.49
-81.26
-71.09
-58.90
-52.02
-58.21
-82.23
-124.48
-180.71
-243.48
-304.06
-351.90
-378.09
-377.22
-349.60
-299.60
-234.39
-161.85
-88.95
-22.09
34.54
78.41
109.50
128.35
136.77
137.12
131.80
123.79
115.28
108.77
105.58
105.97
109.64
115.54
122.38
128.03
131.08
129.86
124.01
113.34
97.84
77.89
53.42
24.55
-9.93
-50.74
-98.51
-150.92
-202.25
-244.51
-268.92
-270.54
-249.56
-212.62
-169.14
-128.61
-96.66
-73.67
-56.90
-41.41
-23.71
-1.61
24.50
52.34
77.75
94.88
98.67
85.24
55.33
12.86
-34.86
-80.33
-118.02
-144.88
-160.93
-166.58
-163.41
-152.45
-135.90
-116.88
-99.07
-86.60
-81.87
-86.83
-101.48
-125.91
-158.57
-196.00
-232.46
-259.86
-271.05
-260.97
-230.20
-183.04
-126.67
-67.85
-10.59
42.65
91.10
132.29
163.72
182.06
185.85
176.09
155.47
128.51
98.70
69.93
44.32
24.44
12.60
10.71
20.20
39.65
66.04
93.05
114.46
124.58
121.17
106.88
88.09
73.84
71.12
84.19
111.58
148.57
188.62
225.55
256.01
277.90
291.31
295.75
291.76
280.38
264.44
248.52
236.27
229.54
225.35
218.64
203.20
175.97
138.48
95.74
54.73
20.01
-6.35
-26.29
-42.35
-56.91
-71.41
-86.05
-101.48
-117.15
-132.68
-145.88
-154.91
-158.78
-158.34
-157.42
-160.23
-171.25
-192.16
-222.81
-260.68
-302.34
-344.94
-385.24
-421.74
-452.94
-479.08
-500.29
-516.97
-529.43
-537.45
-541.90
-543.14
-542.22
-538.07
-528.39
-509.75
-479.54
-438.61
-390.69
-342.60
-299.62
-265.04
-237.81
-214.35
-190.98
-164.93
-136.81
-108.36
-82.95
-62.41
-47.22
-35.34
-22.64
-5.74
18.00
47.49
80.19
111.74
139.15
161.31
178.69
193.41
206.51
219.46
232.08
244.70
257.11
268.81
279.31
287.16
291.71
291.58
287.15
279.05
269.14
259.91
253.23
250.71
251.58
254.50
256.56
255.95
252.06
245.58
238.45
231.31
224.36
215.59
203.46
186.39
164.40
139.00
112.19
87.10
65.70
50.24
40.88
36.86
35.91
34.93
31.76
24.68
14.39
1.68
-11.64
-24.71
-37.29
-49.39
-61.83
-74.53
-87.92
-100.57
-110.68
-115.00
-109.95
-93.32
-64.47
-26.50
15.93
56.07
88.20
108.30
115.08
110.39
97.51
81.51
66.11
54.45
47.24
43.60
41.77
39.54
36.02
30.21
22.78
14.20
5.84
-0.65
-3.96
-2.74
2.29
9.82
16.58
20.24
19.32
14.45
8.37
3.74
3.12
6.14
11.42
16.16
18.57
18.56
17.19
16.81
18.28
22.08
26.56
30.36
32.64
33.61
34.66
36.44
39.80
43.76
47.72
50.69
52.26
52.79
52.23
51.38
49.87
48.10
45.43
41.65
36.91
31.77
28.00
26.60
28.73
33.00
37.12
37.58
31.25
17.26
-3.53
-27.56
-51.70
-72.97
-91.44
-109.39
-130.56
-159.13
-196.65
-242.58
-292.61
-341.81
-385.33
-420.18
-445.05
-458.42
-458.47
-442.70
-411.02
-366.29
-315.38
-266.83
-227.54
-200.92
-185.66
-178.74
-176.69
-178.27
-183.42
-191.64
-200.85
-206.69
-204.90
-192.07
-168.15
-135.15
-96.82
-57.32
-19.95
12.57
38.98
57.93
68.81
71.10
64.79
50.94
31.42
9.15
-12.76
-31.16
-43.80
-49.04
-45.74
-33.60
-12.96
14.63
47.03
81.50
115.99
149.43
182.00
214.70
248.14
282.39
316.39
348.60
376.90
399.59
415.61
424.16
424.82
416.45
398.10
369.74
333.46
294.05
258.56
234.95
228.78
242.08
272.34
314.59
363.88
415.82
467.05
513.80
551.80
575.66
581.17
566.24
532.23
484.63
429.76
373.55
319.79
270.95
228.47
194.19
169.81
155.87
152.09
154.24
155.61
148.79
129.04
95.94
53.43
7.95
-43.65
-101.07
-163.15
-226.16
-284.62
-332.20
-364.11
-378.75
-377.33
-364.14
-341.59
-312.82
-279.85
-244.58
-208.54
-172.85
-139.36
-108.25
-82.08
-61.26
-46.42
-37.31
-32.81
-31.53
-31.27
-30.75
-29.13
-27.40
-25.62
-24.48
-25.33
-28.52
-34.53
-43.08
-53.12
-64.52
-79.04
-98.04
-122.53
-153.99
-191.22
-231.91
-271.91
-307.76
-337.11
-359.47
-375.55
-386.72
-397.25
-410.43
-428.26
-449.27
-468.99
-480.74
-477.30
-454.03
-399.55
-314.95
-211.52
-107.30
-18.73
45.22
83.57
101.19
103.83
97.07
83.04
62.99
40.43
20.08
6.65
2.60
9.02
24.64
47.62
74.04
100.94
127.57
155.15
185.44
218.32
251.41
280.13
299.90
307.26
302.38
288.89
270.94
251.18
229.04
199.89
161.46
116.61
73.01
39.71
23.17
23.72
37.50
58.74
82.69
106.59
128.62
147.47
162.84
174.32
181.48
185.49
188.17
191.16
195.55
200.65
204.92
205.74
200.91
188.46
167.56
137.23
97.11
47.67
-11.02
-78.57
-154.94
-239.55
-330.39
-422.79
-508.72
-578.37
-622.00
-634.35
-616.07
-574.37
-520.11
-464.20
-414.68
-375.14
-345.97
-325.54
-312.74
-306.50
-305.55
-307.59
-308.90
-305.87
-295.50
-277.09
-251.55
-221.53
-189.60
-157.38
-125.60
-93.68
-61.44
-28.95
2.48
31.11
55.21
74.07
88.90
101.97
116.65
135.33
159.37
188.10
219.50
251.22
281.17
308.99
335.05
361.19
388.89
419.15
451.55
483.48
510.93
528.06
529.72
511.69
473.37
417.19
348.35
273.89
199.93
131.57
71.21
19.99
-22.76
-57.96
-86.62
-109.34
-125.96
-137.28
-144.68
-151.06
-158.70
-167.95
-175.67
-175.66
-161.66
-130.33
-84.67
-32.14
17.56
57.24
84.92
103.42
118.84
137.07
162.34
195.44
235.37
279.11
321.37
355.68
374.61
372.91
349.41
307.46
253.31
194.41
137.01
84.28
37.33
-4.35
-45.54
-86.88
-126.19
-159.42
-182.65
-193.64
-193.25
-183.62
-167.76
-146.51
-119.05
-85.78
-48.42
-11.32
20.12
40.03
44.55
31.71
-0.57
-50.03
-115.32
-190.36
-265.39
-327.83
-367.26
-378.75
-365.42
-340.80
-313.34
-288.37
-266.93
-248.13
-230.29
-212.88
-194.73
-175.37
-153.86
-126.67
-91.52
-47.52
2.81
54.40
100.94
136.59
158.39
166.40
164.74
157.75
150.22
145.56
145.60
150.39
157.29
162.18
159.82
147.43
124.24
93.61
61.46
34.17
16.89
11.41
16.83
30.20
48.63
68.72
86.99
99.48
101.14
87.22
53.89
1.00
-67.14
-140.99
-207.90
-255.86
-276.92
-270.68
-243.16
-205.03
-166.67
-135.12
-112.75
-98.19
-89.21
-83.88
-82.32
-84.45
-89.74
-96.12
-100.75
-101.11
-95.56
-84.29
-68.73
-51.77
-35.75
-21.76
-9.95
0.36
10.03
20.37
32.20
46.12
61.72
78.72
98.10
120.48
146.47
175.95
208.66
243.96
281.22
319.71
359.90
403.82
451.15
498.41
538.58
563.77
568.49
552.24
519.45
469.54
407.15
337.79
267.13
200.05
140.73
92.69
62.44
48.94
48.59
58.36
74.50
93.88
114.51
134.39
153.52
172.13
189.47
204.65
217.65
227.72
233.99
235.66
232.18
223.59
209.81
190.15
164.09
132.18
95.26
54.55
11.58
-32.08
-74.83
-115.86
-155.83
-196.74
-240.41
-288.30
-340.92
-397.32
-455.47
-512.20
-563.96
-607.52
-641.27
-663.80
-673.86
-670.25
-652.34
-621.16
-579.72
-533.52
-489.84
-458.43
-447.00
-459.10
-492.71
-540.68
-592.54
-637.06
-664.80
-669.62
-652.24
-616.38
-567.76
-512.94
-458.58
-410.57
-373.04
-346.92
-310.99
-250.38
-158.46
-41.19
85.07
201.21
293.38
356.55
393.08
408.75
405.92
385.67
349.27
300.33
243.01
185.57
136.42
101.43
83.20
79.24
86.16
101.85
126.49
164.46
216.26
279.17
348.17
417.01
477.37
520.98
540.46
530.80
491.33
427.22
349.08
270.37
203.10
153.32
120.98
101.72
90.12
82.66
78.86
80.01
87.10
99.29
113.22
124.97
131.35
132.36
127.79
118.03
103.47
83.37
56.76
22.82
-17.99
-63.21
-108.28
-147.82
-177.02
-192.36
-193.48
-182.69
-164.35
-143.44
-123.89
-107.54
-94.15
-82.27
-69.83
-55.74
-40.16
-24.32
-9.74
1.78
8.54
9.37
4.12
-5.62
-16.64
-24.32
-23.46
-11.41
9.66
31.93
45.40
42.79
22.76
-10.44
-50.02
-89.78
-126.71
-159.91
-189.50
-214.59
-233.13
-245.18
-249.84
-247.70
-240.63
-231.66
-223.18
-216.37
-210.81
-205.21
-198.25
-189.13
-178.22
-166.67
-155.84
-146.28
-138.77
-132.98
-128.05
-123.15
-117.61
-111.51
-105.26
-99.47
-94.37
-89.80
-84.98
-78.91
-70.87
-60.34
-47.50
-32.87
-17.45
-2.07
12.45
25.76
37.88
49.04
59.68
70.12
80.53
90.71
100.37
109.07
116.60
123.16
129.28
135.80
143.50
152.93
164.07
176.53
189.64
202.82
215.79
228.51
241.25
254.43
268.68
284.78
303.45
324.76
347.24
367.83
382.10
386.03
377.47
357.14
328.38
295.53
262.37
230.80
201.39
174.11
149.41
128.20
111.05
97.45
85.67
73.72
60.23
45.44
30.68
17.67
7.56
0.42
-4.46
-8.16
-11.59
-15.51
-20.30
-26.03
-32.39
-38.66
-44.14
-48.31
-51.24
-53.17
-54.37
-54.74
-54.02
-52.25
-49.91
-48.05
-47.40
-48.10
-49.19
-49.30
-47.41
-43.67
-39.40
-36.20
-35.10
-35.66
-36.44
-35.90
-33.44
-29.74
-26.32
-24.69
-25.29
-27.53
-30.10
-31.94
-32.73
-32.86
-32.84
-32.67
-31.87
-29.76
-26.19
-21.71
-17.44
-14.43
-13.07
-13.14
-13.85
-14.55
-14.84
-14.68
-14.02
-12.52
-9.74
-5.32
0.35
6.33
11.27
14.16
14.67
13.35
11.30
9.53
8.68
8.51
8.39
7.51
5.47
2.41
-1.21
-4.78
-8.08
-11.08
-13.83
-16.02
-17.07
-16.41
-13.89
-10.37
-7.18
-5.74
-6.54
-9.06
-12.04
-14.24
-15.34
-15.65
-15.98
-16.67
-17.45
-17.60
-16.51
-14.28
-11.55
-9.26
-7.78
-7.03
-6.53
-6.09
-6.10
-7.15
-9.51
-12.53
-14.94
-15.36
-13.31
-9.38
-4.92
-1.44
0.28
0.21
-0.98
-2.70
-4.59
-6.57
-8.69
-10.62
-11.96
-12.18
-11.11
-8.87
-5.97
-3.05
-0.66
0.69
1.09
0.76
0.18
-0.31
-0.57
-0.69
-0.94
-1.53
-2.57
-3.72
-4.49
-4.29
-2.90
-0.66
1.80
3.73
4.84
5.28
5.84
7.40
10.44
14.87
20.04
25.22
29.90
34.08
37.99
42.16
47.22
53.35
60.35
67.24
72.80
75.82
75.77
73.13
69.39
66.63
65.94
66.99
67.91
66.57
61.60
52.71
40.11
24.10
5.75
-13.09
-28.78
-35.90
-28.38
-2.36
41.30
96.36
153.42
204.03
241.81
262.75
263.72
241.92
195.49
125.26
36.61
-64.53
-164.12
-245.46
-295.82
-312.36
-301.65
-274.90
-242.06
-208.89
-177.45
-147.57
-119.91
-95.79
-77.05
-63.55
-52.78
-40.55
-22.92
2.08
34.16
69.77
105.43
135.56
156.29
166.41
166.88
159.23
144.31
122.22
90.28
49.82
2.98
-46.94
-96.04
-139.91
-174.20
-194.67
-197.50
-180.50
-144.66
-95.73
-42.72
4.57
39.17
58.92
66.71
67.94
67.24
65.59
59.29
42.78
11.81
-31.76
-80.33
-122.93
-149.83
-155.81
-141.89
-114.21
-80.56
-47.76
-19.41
3.37
20.32
30.70
33.73
30.32
24.68
24.01
34.88
60.21
96.36
134.15
162.92
175.21
170.10
153.05
132.96
117.13
108.89
107.34
109.59
113.19
117.04
121.06
124.51
128.13
130.22
128.70
121.77
108.69
90.12
67.26
41.33
12.99
-17.69
-51.45
-88.17
-126.74
-164.69
-198.46
-224.27
-238.93
-240.80
-230.29
-210.23
-184.60
-158.21
-135.49
-119.85
-113.36
-116.53
-128.82
-148.61
-174.05
-202.54
-231.30
-256.76
-275.08
-282.81
-277.45
-258.41
-227.29
-188.15
-146.59
-108.78
-80.58
-66.69
-70.58
-93.02
-131.24
-178.21
-223.90
-258.02
-273.10
-267.45
-245.03
-214.03
-182.95
-157.92
-141.35
-132.61
-130.22
-132.98
-140.96
-154.12
-171.79
-191.84
-211.42
-227.95
-239.40
-245.04
-244.41
-237.53
-223.88
-202.66
-173.27
-135.58
-91.13
-42.60
5.85
50.13
86.18
111.18
123.97
124.41
113.92
93.77
65.47
30.00
-11.31
-57.01
-105.52
-154.44
-201.78
-244.95
-282.24
-312.18
-334.17
-348.18
-354.27
-353.02
-344.07
-327.58
-302.77
-269.31
-226.85
-175.87
-118.51
-57.67
2.09
56.87
102.42
136.45
157.99
167.25
166.16
156.57
141.39
123.10
105.38
91.40
85.37
91.13
110.38
143.53
187.65
239.22
293.71
348.63
402.38
453.53
500.73
540.36
570.69
591.48
606.07
618.50
632.80
648.96
662.12
666.34
655.12
629.01
593.10
554.54
518.09
486.18
458.08
431.84
408.65
388.37
375.44
372.50
377.64
384.51
387.73
383.76
371.79
355.45
333.86
310.85
291.18
277.97
274.82
288.83
326.70
391.63
482.67
585.86
689.24
782.93
858.39
875.76
807.62
643.35
393.38
130.69
-110.45
-315.41
-479.67
-616.51
-729.80
-816.07
-870.30
-889.42
-873.74
-834.25
-779.35
-714.56
-645.10
-572.72
-496.05
-413.44
-324.31
-230.48
-140.66
-61.03
5.67
57.93
97.22
126.73
148.26
161.79
164.49
150.56
117.76
69.72
13.02
-43.51
-91.45
-126.32
-146.31
-153.18
-150.75
-142.81
-131.51
-118.86
-106.55
-95.32
-86.18
-78.85
-73.78
-71.16
-72.20
-78.30
-91.28
-114.16
-149.08
-197.12
-255.19
-316.70
-371.44
-409.76
-426.10
-420.64
-400.84
-376.66
-358.41
-351.63
-356.99
-370.44
-385.45
-396.18
-397.51
-387.28
-364.45
-330.36
-286.86
-236.12
-179.43
-116.45
-47.21
28.09
106.31
183.18
253.13
311.20
353.73
377.25
379.39
357.78
313.64
252.14
184.42
124.18
82.65
64.88
66.62
78.90
91.54
100.08
105.31
111.63
122.70
137.94
154.67
169.84
184.85
204.12
233.46
274.59
322.46
367.05
396.38
403.63
388.33
357.44
319.98
283.19
249.74
216.67
179.66
134.95
84.33
34.06
-5.90
-26.51
-24.01
-1.10
32.59
65.25
85.40
87.04
69.94
39.39
4.23
-27.00
-48.36
-59.77
-65.68
-73.04
-86.13
-103.47
-118.61
-122.83
-111.62
-86.60
-56.58
-31.22
-16.14
-10.10
-6.20
1.64
15.15
28.46
32.54
18.38
-17.92
-74.14
-144.26
-220.91
-297.53
-367.60
-424.69
-461.20
-470.33
-448.11
-395.84
-321.10
-236.34
-155.74
-91.46
-51.40
-38.29
-51.12
-85.99
-136.85
-196.24
-255.22
-304.90
-337.56
-347.96
-330.78
-284.25
-211.57
-120.42
-22.12
72.16
153.72
217.82
263.40
291.85
305.46
306.92
299.27
285.42
268.27
250.16
232.86
217.25
203.49
191.01
178.87
166.43
153.87
142.54
134.15
129.33
126.25
120.48
106.19
79.06
38.94
-9.38
-57.59
-97.27
-123.07
-134.25
-134.00
-127.43
-119.18
-112.08
-107.08
-103.83
-101.50
-99.21
-96.24
-92.11
-86.91
-81.30
-75.86
-71.45
-68.93
-68.87
-71.28
-74.46
-74.77
-67.32
-48.07
-16.51
22.89
61.34
89.00
98.71
89.52
67.22
42.05
23.63
17.33
22.90
34.95
47.21
55.61
60.23
64.19
70.26
78.27
84.26
83.17
71.47
50.14
24.26
0.35
-17.04
-27.44
-32.70
-35.13
-34.30
-27.91
-14.02
6.45
27.55
41.08
39.31
20.07
-13.00
-51.39
-85.38
-108.13
-116.50
-112.46
-99.26
-81.50
-62.12
-43.53
-27.23
-13.52
-2.65
6.56
14.42
21.69
27.64
31.47
32.26
29.64
24.69
18.23
12.03
7.06
5.20
8.41
18.59
36.62
60.49
86.36
108.40
123.12
129.92
131.80
133.18
136.32
140.61
142.31
139.01
129.91
117.81
106.16
96.47
87.61
77.79
65.98
52.89
42.70
39.29
44.01
53.93
62.61
64.64
57.23
42.53
24.68
8.07
-5.77
-18.36
-32.14
-49.19
-68.25
-86.78
-101.17
-109.62
-112.55
-112.07
-110.90
-109.57
-107.48
-101.75
-91.18
-76.55
-61.29
-50.47
-47.75
-54.84
-69.34
-87.79
-105.87
-121.42
-134.20
-144.53
-152.71
-156.67
-154.41
-143.59
-124.98
-101.67
-78.56
-60.49
-49.35
-44.91
-43.71
-42.91
-40.16
-35.59
-30.70
-26.88
-25.38
-25.58
-27.34
-29.50
-31.98
-34.33
-35.73
-35.29
-31.31
-23.57
-11.83
1.92
15.93
28.13
37.28
43.85
48.56
53.41
58.81
64.80
68.91
67.99
59.14
40.82
15.17
-13.84
-39.85
-58.30
-66.36
-64.76
-56.62
-45.51
-34.97
-26.00
-19.28
-13.90
-9.95
-7.67
-7.24
-8.75
-10.89
-12.80
-12.77
-10.75
-7.03
-3.02
-0.42
0.24
-1.29
-3.30
-4.84
-4.40
-2.14
1.15
4.51
6.75
8.11
8.45
8.87
9.20
9.62
9.79
9.33
8.72
7.75
7.14
6.22
5.28
4.11
3.05
2.87
3.83
6.75
11.19
17.51
24.90
32.98
41.02
47.83
52.88
55.08
54.79
51.54
45.88
37.52
26.26
12.48
-3.10
-17.71
-28.92
-33.36
-29.96
-19.24
-3.81
12.40
26.44
35.77
40.48
40.51
36.94
30.20
20.57
9.07
-3.20
-13.53
-20.24
-21.25
-16.74
-7.82
3.50
14.62
24.06
30.13
32.99
32.25
28.79
23.13
16.01
8.70
1.85
-2.90
-5.42
-5.19
-3.39
-1.36
-0.65
-2.58
-6.78
-12.84
-18.69
-23.52
-26.47
-27.92
-28.72
-29.20
-29.92
-29.88
-28.99
-26.24
-21.89
-16.36
-10.18
-4.21
1.64
6.63
11.02
13.90
15.17
14.75
13.05
11.62
11.66
14.93
21.12
29.61
37.97
43.87
45.82
43.18
37.39
29.58
21.87
14.83
9.22
5.22
2.88
2.83
4.55
7.93
11.24
13.71
14.52
14.04
13.48
13.73
15.96
19.40
23.46
26.07
25.79
21.61
13.21
1.91
-10.76
-21.94
-30.23
-34.41
-35.08
-33.62
-31.14
-28.51
-24.92
-20.08
-13.21
-5.46
1.59
6.00
6.24
2.71
-3.83
-11.02
-17.77
-22.86
-26.34
-28.60
-29.85
-30.85
-31.41
-32.34
-33.47
-35.36
-37.83
-40.27
-42.01
-41.54
-38.52
-32.04
-22.98
-11.94
-0.30
10.47
19.46
25.51
28.90
29.36
27.81
24.36
19.10
11.95
2.64
-7.74
-18.15
-26.08
-30.35
-30.18
-26.52
-21.35
-16.48
-13.81
-13.52
-15.90
-19.68
-23.76
-26.29
-24.96
-18.08
-4.10
15.92
39.75
62.87
81.13
91.34
92.04
84.18
69.14
49.42
26.23
0.87
-26.03
-53.51
-79.97
-104.16
-124.32
-139.95
-150.06
-154.68
-153.32
-145.39
-130.81
-109.47
-82.97
-53.05
-22.95
4.90
28.20
45.80
57.94
64.97
68.39
68.68
67.05
63.69
59.14
54.01
48.76
44.45
41.22
39.66
39.15
39.52
40.10
40.27
40.06
39.23
38.44
37.44
36.60
35.45
33.78
31.60
28.81
26.19
23.70
21.91
20.16
18.20
15.63
12.38
9.39
7.11
6.83
8.29
11.42
15.01
18.04
19.89
20.09
19.43
18.09
17.14
16.26
15.33
13.77
11.16
8.06
4.71
2.39
1.02
0.68
0.15
-1.64
-5.09
-10.10
-15.10
-19.07
-20.48
-19.52
-16.76
-13.68
-12.07
-12.86
-16.96
-23.37
-31.13
-37.86
-41.67
-40.98
-34.93
-24.29
-10.05
5.08
18.82
27.91
29.95
23.47
8.60
-11.60
-33.11
-50.03
-58.07
-54.02
-37.81
-11.87
19.53
50.75
77.00
93.57
98.49
91.16
73.62
49.46
22.92
-1.24
-19.88
-30.14
-31.48
-24.05
-9.38
10.18
32.17
53.57
72.34
85.83
93.01
92.92
85.79
72.95
56.04
38.10
21.49
9.19
2.33
1.59
5.91
13.29
21.68
28.47
32.49
32.49
29.03
22.82
15.39
8.36
2.64
-0.80
-2.95
-4.73
-8.34
-15.05
-25.31
-38.54
-52.56
-65.50
-74.85
-79.94
-79.85
-74.52
-63.83
-47.84
-28.07
-6.51
13.01
27.92
35.75
36.24
30.02
17.83
1.15
-18.66
-37.71
-51.90
-55.94
-47.29
-27.15
-0.60
24.49
42.08
48.59
45.57
36.05
23.75
10.83
-2.62
-16.27
-29.97
-41.16
-47.98
-48.66
-43.99
-36.65
-29.40
-24.59
-21.51
-19.09
-15.05
-9.27
-2.98
1.59
2.33
-0.35
-5.40
-9.82
-12.51
-13.20
-13.51
-15.47
-19.64
-25.62
-30.56
-32.77
-30.36
-24.04
-15.49
-6.72
0.39
5.85
9.44
12.29
14.27
16.01
18.12
21.04
25.42
30.07
33.46
32.59
26.21
14.31
-0.46
-13.74
-22.06
-23.00
-17.68
-8.38
1.16
8.47
12.43
13.29
12.67
11.35
10.61
9.96
9.48
9.02
8.83
9.63
11.46
14.53
17.24
18.81
17.67
13.48
6.84
-1.14
-8.48
-14.06
-16.45
-16.04
-13.02
-8.39
-3.23
1.94
6.14
9.32
10.57
9.92
6.96
2.03
-4.08
-10.61
-16.07
-20.00
-21.31
-20.29
-17.20
-13.15
-9.60
-7.52
-7.91
-9.92
-12.83
-14.55
-14.10
-11.05
-5.76
0.69
8.14
15.77
23.88
31.37
37.34
40.37
39.46
35.29
28.97
23.03
18.51
16.17
14.90
13.16
9.95
4.89
-0.44
-4.73
-5.92
-3.96
0.47
5.55
9.15
10.40
9.01
6.45
3.52
1.42
-0.01
-1.42
-3.23
-5.82
-8.22
-10.14
-10.58
-9.98
-8.73
-7.40
-6.62
-6.00
-5.71
-4.85
-3.71
-2.18
-0.96
-0.86
-2.17
-5.21
-8.90
-13.05
-16.62
-19.99
-23.60
-27.95
-33.12
-37.62
-39.98
-38.14
-32.25
-23.35
-13.96
-6.58
-2.48
-2.07
-3.77
-6.50
-8.67
-9.82
-9.85
-8.76
-6.74
-3.37
0.89
6.15
11.17
15.11
17.02
16.25
13.32
8.81
4.49
1.10
-0.26
0.08
1.66
4.09
6.86
10.59
15.19
21.19
27.71
34.05
39.08
41.96
42.96
42.03
40.16
37.29
33.69
29.09
23.47
17.22
10.61
4.60
-1.09
-6.38
-12.33
-19.52
-27.72
-35.77
-40.95
-40.82
-33.03
-17.99
2.24
23.40
40.71
50.62
50.74
41.66
24.97
4.26
-17.14
-35.56
-47.83
-51.97
-46.73
-33.53
-14.75
4.70
20.11
27.13
23.53
10.27
-9.79
-31.62
-51.04
-64.27
-69.76
-67.12
-56.87
-40.47
-19.41
3.21
24.59
41.19
50.76
52.42
46.96
36.97
24.92
13.76
4.56
-1.78
-5.78
-8.12
-9.25
-9.76
-9.13
-7.89
-5.86
-4.06
-3.06
-3.16
-4.25
-5.04
-4.93
-3.00
-0.16
2.71
4.31
4.05
2.58
0.65
-0.20
-0.07
1.11
2.23
2.70
2.47
1.73
1.57
2.02
3.66
5.60
7.48
8.76
9.13
8.94
8.06
7.22
5.90
4.40
2.29
-0.49
-3.50
-6.51
-8.44
-9.28
-8.39
-6.59
-4.49
-2.80
-2.25
-2.46
-3.39
-3.92
-4.25
-4.16
-4.25
-5.03
-6.27
-7.86
-8.51
-8.23
-6.51
-4.27
-2.46
-1.87
-3.12
-5.43
-8.35
-10.25
-10.99
-10.26
-8.51
-6.55
-4.49
-2.77
-0.69
1.27
3.36
4.83
4.95
3.66
0.72
-2.81
-6.58
-9.37
-11.36
-12.41
-12.60
-12.12
-10.41
-7.74
-3.58
1.08
5.57
8.49
8.89
6.96
3.31
0.06
-1.64
-0.15
4.29
10.81
18.06
24.35
29.15
31.60
32.41
31.39
29.13
25.85
21.58
17.07
12.42
8.54
5.17
2.84
1.15
-0.18
-1.26
-2.48
-3.20
-3.58
-2.85
-1.51
0.29
1.98
2.85
3.05
2.45
2.04
1.78
2.18
2.84
3.27
3.35
2.58
1.45
-0.34
-2.30
-4.75
-7.57
-10.43
-13.14
-14.61
-14.79
-12.94
-9.90
-6.24
-2.91
-0.68
0.52
0.46
0.09
-0.68
-1.16
-1.56
-1.97
-2.31
-2.90
-3.13
-3.23
-2.52
-1.54
-0.63
-0.39
-1.57
-3.79
-6.90
-9.68
-11.93
-13.15
-13.96
-14.89
-15.73
-16.34
-15.42
-12.93
-8.64
-3.82
0.39
3.07
3.70
3.41
2.64
2.65
3.11
3.73
3.82
3.01
2.01
1.20
1.76
3.30
5.71
8.10
9.68
10.42
10.03
9.35
8.21
7.19
5.85
4.12
2.04
-0.59
-2.97
-4.98
-5.68
-5.44
-4.43
-3.41
-3.07
-3.20
-3.86
-3.87
-3.26
-1.76
-0.32
0.05
-1.16
-4.19
-7.75
-11.07
-12.34
-11.48
-8.63
-4.77
-1.31
1.41
2.79
3.68
3.99
4.14
3.68
2.13
-0.39
-3.75
-6.50
-8.12
-7.59
-5.21
-1.52
2.68
6.35
9.54
11.75
13.60
14.69
15.16
14.86
13.65
12.06
10.20
9.12
8.57
8.83
9.16
9.08
8.48
7.18
6.05
5.08
4.84
4.60
3.84
2.06
-0.79
-3.66
-5.98
-6.51
-5.56
-3.39
-1.15
0.12
0.32
-0.68
-1.82
-2.95
-3.31
-3.21
-2.63
-1.55
-0.09
2.40
5.66
10.00
14.46
18.48
21.05
21.36
19.38
14.91
8.91
1.63
-5.97
-13.27
-19.54
-23.75
-25.36
-23.80
-19.89
-14.45
-9.66
-7.15
-7.74
-11.41
-16.63
-22.35
-27.59
-33.49
-41.45
-53.28
-69.55
-88.41
-106.74
-119.93
-125.08
-120.29
-106.45
-85.75
-60.96
-35.04
-9.61
13.54
33.89
50.17
61.63
67.69
67.98
63.45
55.47
46.75
39.27
35.22
35.30
39.20
46.00
53.72
60.86
65.50
66.98
64.60
58.79
50.72
41.48
32.96
25.84
21.22
18.82
18.67
20.44
23.49
27.54
31.38
34.47
35.51
34.43
31.21
26.39
21.18
15.99
11.71
8.03
5.14
2.24
-0.90
-4.67
-9.46
-14.95
-21.37
-27.78
-33.82
-38.28
-40.32
-39.36
-35.14
-28.62
-20.43
-12.36
-5.28
-0.65
0.50
-2.05
-8.10
-15.70
-22.84
-26.46
-25.30
-18.81
-8.26
3.94
16.11
26.17
33.40
36.51
35.30
29.56
20.23
9.19
-1.83
-10.52
-16.68
-20.20
-22.20
-23.19
-22.92
-20.91
-16.22
-9.36
-0.80
7.43
13.93
17.72
18.41
16.64
12.75
7.78
1.90
-3.68
-8.54
-11.78
-12.51
-10.69
-6.06
0.29
7.72
14.43
19.34
21.48
20.71
18.02
14.32
11.34
9.46
8.89
8.85
8.26
6.85
4.57
2.51
1.07
0.95
1.75
2.68
3.23
2.99
2.93
3.74
6.50
10.59
15.14
18.52
19.35
17.68
14.14
10.64
7.82
6.14
4.42
1.56
-2.78
-8.10
-12.51
-14.77
-13.86
-10.56
-6.43
-3.24
-2.76
-5.30
-10.80
-17.89
-25.48
-32.01
-36.41
-38.21
-37.20
-34.11
-29.36
-23.84
-17.79
-11.60
-5.13
1.83
9.37
17.59
25.63
32.47
36.28
35.62
29.87
19.47
6.15
-8.52
-23.21
-38.12
-53.95
-71.59
-90.89
-109.77
-125.00
-132.32
-128.22
-110.10
-77.85
-33.71
17.06
66.80
107.58
133.25
142.14
137.58
126.67
116.46
111.34
111.03
111.66
109.12
101.31
89.71
77.87
69.00
63.72
59.70
53.17
40.71
21.22
-4.32
-33.21
-62.37
-88.75
-109.61
-122.82
-127.27
-123.72
-114.63
-103.38
-92.40
-81.43
-67.65
-47.20
-17.92
18.43
55.86
86.50
103.71
104.89
92.50
72.15
50.29
31.56
18.20
10.30
7.09
7.93
12.42
20.26
30.42
41.60
52.20
60.82
66.30
67.72
64.71
57.27
46.16
32.21
16.05
-2.30
-23.37
-46.99
-71.37
-92.58
-106.17
-109.13
-101.76
-87.82
-72.78
-61.64
-56.97
-59.15
-67.62
-82.62
-105.16
-135.68
-171.71
-206.45
-229.99
-232.05
-206.16
-152.41
-77.53
7.17
89.12
157.56
205.85
231.47
235.51
221.17
192.18
152.29
105.28
55.35
7.47
-32.41
-58.60
-67.19
-57.35
-32.33
1.44
36.17
64.12
79.06
77.23
57.85
24.01
-17.04
-55.75
-82.71
-90.95
-78.86
-49.42
-8.94
35.15
75.39
104.87
117.37
107.82
77.14
31.16
-18.30
-57.72
-76.86
-73.11
-51.09
-19.62
11.40
39.19
64.50
91.89
125.11
163.85
202.61
232.78
245.28
230.84
187.90
117.93
28.39
-70.49
-168.74
-258.48
-334.02
-378.28
-403.59
-409.16
-396.93
-366.77
-317.87
-250.14
-164.24
-61.95
53.71
174.09
286.78
366.63
394.79
371.95
315.38
246.30
179.74
122.90
74.56
34.03
-2.16
-31.71
-49.65
-53.41
-44.20
-25.75
-2.49
19.59
37.05
44.87
40.22
21.72
-11.70
-59.83
-120.08
-182.12
-231.33
-255.18
-251.30
-225.43
-186.16
-141.22
-95.92
-53.61
-16.53
12.81
32.12
40.51
40.04
35.20
30.40
28.47
30.65
36.72
45.01
53.57
61.09
68.09
76.68
88.80
105.25
125.23
147.56
168.59
184.40
191.75
189.10
176.73
156.10
129.26
97.39
64.20
32.05
2.49
-23.43
-44.87
-61.19
-72.21
-78.16
-79.75
-77.88
-74.04
-69.45
-64.96
-60.99
-57.60
-54.70
-52.01
-49.30
-46.30
-43.27
-40.32
-37.55
-34.98
-32.61
-30.47
-28.43
-26.52
-24.54
-22.68
-20.96
-19.46
-18.16
-17.05
-16.19
-15.44
-14.86
-14.23
-13.76
-13.36
-13.15
-13.17
-13.40
-14.27
-15.81
-18.90
-23.25
-29.23
-36.70
-45.48
-55.15
-64.68
-73.96
-81.44
-86.29
-87.46
-84.47
-77.19
-65.54
-50.23
-31.80
-11.58
9.06
28.44
44.98
57.27
64.14
65.47
61.32
52.92
41.16
27.35
12.70
-2.04
-16.17
-29.58
-41.49
-51.69
-59.30
-63.90
-64.95
-61.97
-54.87
-41.58
-22.90
1.31
30.26
62.99
97.96
132.27
162.94
187.11
202.76
208.87
206.11
195.90
180.19
160.89
138.35
112.83
83.57
50.82
16.05
-17.97
-48.24
-72.25
-88.81
-99.13
-103.35
-105.36
-108.58
-114.78
-124.15
-136.27
-149.57
-160.89
-166.94
-164.36
-152.13
-132.83
-111.08
-92.43
-81.39
-80.00
-83.99
-87.38
-84.42
-71.48
-51.36
-30.42
-13.74
-4.79
-2.68
-3.77
-2.74
4.66
19.25
38.33
58.43
77.02
93.31
108.58
124.11
139.73
153.76
163.76
167.71
165.38
158.92
149.00
136.39
120.94
101.56
77.29
47.81
14.17
-20.12
-49.16
-66.39
-66.22
-47.12
-13.07
27.03
61.90
81.95
82.98
67.11
40.23
9.66
-19.29
-44.17
-65.02
-82.80
-97.92
-110.71
-121.39
-131.01
-140.20
-149.45
-158.67
-167.26
-175.08
-180.42
-181.85
-178.40
-169.09
-152.41
-127.62
-94.93
-56.03
-14.09
27.66
66.40
100.39
129.23
152.58
169.78
179.59
181.85
178.18
172.49
167.61
163.06
154.49
135.73
103.99
62.95
23.05
-3.76
-9.62
4.25
28.24
49.54
58.18
51.74
34.69
14.27
-4.22
-19.07
-31.93
-44.83
-58.31
-71.25
-81.62
-88.15
-92.04
-96.43
-105.35
-121.72
-145.93
-175.49
-206.05
-232.60
-251.18
-259.14
-256.10
-243.60
-224.06
-199.63
-171.95
-142.23
-111.93
-83.25
-59.52
-44.50
-41.50
-52.31
-75.77
-108.24
-144.03
-176.87
-201.62
-215.07
-216.50
-207.01
-188.79
-163.35
-131.63
-93.72
-49.11
3.04
63.84
133.88
212.75
297.70
383.29
461.51
524.29
566.59
588.48
595.42
595.17
595.32
599.84
608.57
618.22
624.78
625.77
619.74
606.79
586.53
558.08
520.10
471.95
414.30
348.90
278.82
206.24
133.03
59.99
-12.90
-85.82
-158.30
-228.51
-293.93
-351.38
-398.17
-432.48
-453.55
-462.05
-459.76
-449.28
-433.00
-413.38
-392.33
-371.18
-350.94
-331.96
-314.09
-296.76
-279.84
-263.26
-247.28
-232.35
-218.72
-207.71
-199.97
-192.21
-181.96
-168.26
-151.84
-133.97
-115.53
-95.33
-72.66
-45.75
-13.57
23.42
63.75
105.02
144.83
180.15
212.37
238.36
255.21
261.33
257.11
245.45
231.15
218.83
204.12
187.47
165.73
135.60
96.30
50.72
4.31
-37.64
-72.40
-100.69
-124.46
-147.76
-172.68
-198.97
-224.81
-249.92
-272.01
-288.62
-297.49
-295.97
-283.04
-257.76
-219.91
-170.26
-108.78
-41.51
25.10
85.48
135.88
173.40
197.80
210.50
213.97
211.44
205.64
198.77
192.65
188.84
187.99
190.37
194.32
195.77
190.99
177.88
157.44
134.18
115.05
102.01
94.95
90.08
82.23
67.72
45.30
16.29
-16.12
-49.33
-81.59
-111.50
-138.20
-159.63
-173.41
-178.04
-173.65
-162.19
-147.51
-133.48
-122.05
-113.32
-104.94
-93.70
-77.03
-54.17
-26.40
2.38
27.36
44.78
51.80
47.15
31.36
6.88
-19.53
-38.73
-44.00
-33.89
-12.61
11.35
29.69
37.46
34.99
26.94
18.12
11.04
5.63
0.78
-4.46
-9.55
-13.13
-13.76
-10.98
-6.14
-1.74
-0.02
-1.77
-6.24
-11.48
-15.38
-16.61
-15.21
-12.49
-10.60
-11.12
-14.41
-19.62
-25.33
-30.42
-34.97
-40.44
-49.09
-63.29
-84.06
-110.31
-139.02
-167.01
-189.87
-204.28
-208.56
-202.54
-186.71
-161.66
-127.73
-85.58
-36.15
16.54
68.07
114.49
152.81
180.87
196.95
199.32
186.35
158.42
118.79
73.79
31.27
-2.29
-24.38
-36.69
-43.44
-48.35
-51.38
-48.94
-36.51
-11.99
21.60
56.76
85.12
101.02
103.66
97.05
87.73
79.80
74.75
71.30
67.35
62.46
58.22
57.04
60.99
70.05
81.91
93.34
101.62
104.67
103.18
99.86
97.64
98.70
103.12
108.97
113.53
114.30
109.58
99.81
87.00
73.30
60.26
47.81
33.36
16.32
-4.25
-28.51
-54.78
-81.24
-105.06
-123.48
-134.66
-138.39
-134.95
-126.92
-118.26
-112.68
-112.47
-117.00
-122.69
-125.05
-120.51
-107.57
-87.90
-65.65
-45.84
-32.16
-27.08
-29.32
-35.41
-41.29
-43.35
-39.26
-28.10
-9.95
14.48
44.10
77.26
110.71
140.86
163.10
174.28
174.28
165.43
151.08
134.16
115.98
95.39
70.00
38.66
1.12
-40.50
-82.07
-117.65
-141.26
-148.31
-138.90
-117.84
-94.20
-79.29
-79.99
-98.59
-130.66
-166.34
-193.37
-202.35
-188.93
-155.13
-107.72
-55.37
-6.16
35.02
67.12
92.26
113.21
131.56
145.71
153.06
150.94
138.05
115.78
87.81
58.42
30.09
3.18
-23.85
-53.04
-84.38
-116.24
-145.74
-170.98
-189.57
-200.18
-201.87
-194.17
-177.06
-150.60
-116.26
-75.83
-33.75
6.56
42.75
73.46
98.26
116.97
129.33
134.89
134.15
128.36
119.65
109.61
98.55
86.19
72.85
60.58
52.12
49.39
50.73
50.37
40.93
18.31
-14.26
-46.35
-64.78
-60.94
-34.93
4.06
42.69
69.85
81.64
80.31
71.30
59.21
45.54
29.26
9.40
-12.73
-33.39
-48.45
-53.83
-49.00
-36.35
-19.92
-3.34
11.56
25.07
38.74
54.24
71.82
89.46
104.25
112.87
113.31
105.44
91.01
73.07
54.45
37.22
22.58
11.29
3.61
0.05
1.24
7.53
18.18
30.99
42.69
49.98
50.31
42.65
27.64
7.55
-14.55
-35.32
-52.14
-63.42
-69.33
-71.79
-74.01
-79.31
-88.72
-99.83
-107.74
-107.61
-97.28
-79.14
-58.87
-42.26
-32.41
-27.86
-23.91
-15.17
0.68
22.69
47.49
72.06
94.86
115.56
133.41
146.74
153.48
151.98
142.89
128.41
110.34
89.61
64.24
31.19
-9.59
-53.21
-90.24
-111.73
-113.55
-97.94
-72.08
-44.52
-21.33
-4.47
7.48
17.31
25.90
30.73
27.73
14.06
-10.13
-40.32
-69.30
-88.76
-91.89
-77.43
-50.51
-18.94
11.22
37.11
60.02
81.27
102.63
127.17
157.79
191.08
223.72
254.01
281.84
307.73
327.76
338.52
343.77
344.68
338.17
322.31
294.83
252.15
190.52
102.48
-12.30
-135.56
-249.88
-345.22
-414.91
-458.63
-481.27
-489.33
-495.57
-506.91
-511.96
-506.56
-497.52
-491.64
-493.69
-503.79
-466.58
-352.59
-236.16
-137.81
-35.75
70.95
178.09
279.60
369.09
440.67
481.40
483.00
457.36
414.67
360.19
302.49
249.61
205.81
170.54
133.47
86.42
36.38
-11.47
-56.36
-95.51
-125.39
-142.10
-142.04
-127.35
-102.69
-70.01
-38.63
-22.81
-31.67
-66.27
-120.00
-182.52
-246.46
-308.30
-364.94
-416.29
-463.31
-504.28
-536.11
-556.29
-563.56
-558.05
-538.63
-500.41
-437.69
-347.48
-232.32
-101.70
29.77
147.43
240.87
307.12
349.85
376.53
394.07
405.94
411.63
407.95
391.99
361.87
317.88
262.56
200.93
140.03
88.53
55.18
45.94
62.96
102.42
155.93
213.42
266.19
308.15
335.42
346.99
335.80
298.46
233.23
143.72
40.50
-60.47
-143.27
-198.21
-225.43
-235.57
-243.66
-263.25
-300.07
-350.72
-406.38
-457.95
-499.65
-528.32
-542.19
-537.83
-510.38
-454.41
-367.01
-251.61
-118.95
15.21
136.58
235.28
308.60
359.96
396.24
424.24
444.79
451.28
432.79
383.04
303.65
205.32
104.79
20.28
-32.14
-44.94
-19.45
35.53
110.01
193.76
277.76
348.16
384.65
379.81
343.60
303.14
258.65
200.22
118.93
12.66
-107.08
-220.45
-304.20
-344.56
-339.43
-299.93
-246.80
-203.71
-189.51
-212.38
-269.93
-349.89
-440.33
-528.94
-581.69
-570.32
-493.34
-377.51
-254.10
-151.17
-57.73
35.00
130.71
228.59
318.75
390.29
437.83
463.91
475.24
478.93
473.69
455.91
420.39
361.19
277.74
179.34
82.82
3.66
-49.95
-82.77
-101.42
-111.33
-115.58
-114.03
-102.70
-76.78
-35.27
18.43
75.88
133.99
192.81
251.78
293.98
300.79
266.69
204.37
144.58
93.20
49.76
9.86
-33.77
-86.80
-148.55
-207.88
-247.83
-254.13
-224.40
-164.79
-89.86
-16.56
37.13
58.11
43.50
-4.20
-81.53
-186.69
-313.04
-449.50
-559.94
-606.35
-574.48
-479.52
-353.65
-225.42
-113.96
-27.03
33.24
71.21
92.17
101.32
110.66
131.99
171.71
227.15
289.81
348.75
399.02
439.31
440.80
396.51
316.54
221.02
127.33
52.33
-11.06
-68.75
-125.90
-187.42
-248.78
-302.46
-340.65
-358.00
-352.18
-326.21
-285.46
-239.41
-198.97
-167.21
-143.10
-122.93
-103.27
-82.84
-63.68
-47.33
-35.58
-29.11
-23.89
-15.75
-2.19
15.63
33.65
46.86
52.47
49.62
38.87
23.09
5.39
-11.04
-23.56
-30.70
-32.38
-29.61
-24.99
-22.16
-22.82
-26.30
-29.70
-30.86
-30.97
-34.07
-44.59
-63.88
-88.08
-108.69
-116.13
-102.66
-68.35
-21.52
25.87
63.81
88.69
103.26
113.50
125.24
144.97
174.38
210.84
250.11
288.92
325.76
359.92
389.83
413.42
434.14
453.57
470.50
482.74
490.27
496.07
504.63
519.03
539.77
570.02
605.62
635.52
647.27
634.67
600.22
552.31
499.69
402.13
247.91
59.28
-121.67
-263.56
-357.23
-408.86
-428.99
-434.00
-434.12
-428.44
-416.63
-402.13
-391.30
-388.30
-394.16
-408.02
-428.41
-446.58
-449.36
-430.81
-395.05
-351.56
-308.75
-270.89
-239.23
-213.53
-192.16
-170.78
-147.21
-122.18
-97.99
-77.06
-60.12
-46.74
-35.66
-24.44
-9.73
9.85
33.38
59.25
83.46
102.55
113.87
115.57
106.88
88.14
60.99
27.43
-4.33
-26.92
-35.60
-30.30
-15.63
1.27
13.68
18.24
15.91
10.45
5.05
1.23
-1.43
-4.15
-7.50
-10.90
-13.04
-12.68
-9.67
-5.57
-2.23
-1.13
-2.54
-5.53
-8.56
-10.13
-9.52
-6.89
-3.47
-0.68
0.51
-0.03
-1.65
-3.26
-3.86
-3.01
-0.92
1.63
3.68
4.58
4.31
3.38
2.58
2.55
3.42
4.76
5.80
5.78
4.27
1.51
-1.71
-4.33
-5.48
-4.95
-3.37
-1.86
-1.45
-2.84
-5.82
-9.43
-12.23
-13.04
-11.27
-7.28
-2.08
3.54
8.85
13.79
18.65
23.79
29.16
34.39
39.12
42.84
44.57
42.25
33.22
15.10
-12.25
-45.37
-77.10
-99.12
-105.28
-93.98
-68.50
-34.59
1.90
37.01
69.24
98.12
123.26
142.96
154.96
157.75
151.40
137.49
118.23
96.20
73.00
49.34
25.79
2.59
-19.65
-39.90
-56.98
-70.04
-78.85
-84.62
-89.21
-94.74
-102.99
-114.69
-130.45
-148.30
-165.72
-179.82
-188.34
-189.31
-181.64
-164.84
-138.84
-103.17
-60.61
-13.95
33.66
78.70
117.95
148.37
168.02
175.96
172.15
157.92
135.83
109.26
81.81
57.29
38.71
28.28
27.03
34.25
47.82
64.64
80.94
92.98
98.08
94.46
82.04
62.41
37.69
11.20
-13.45
-33.20
-45.82
-50.13
-46.28
-35.39
-18.95
0.40
20.65
40.29
58.76
76.43
94.09
112.91
133.86
157.52
182.17
205.75
224.80
236.12
237.66
228.64
210.04
184.09
154.01
120.83
85.78
47.77
5.67
-40.64
-90.20
-141.09
-191.93
-231.74
-255.66
-262.05
-255.34
-241.97
-228.49
-219.34
-216.18
-218.78
-225.67
-236.58
-250.84
-271.49
-300.68
-338.35
-381.91
-426.62
-468.91
-506.93
-541.01
-547.87
-512.65
-432.52
-319.48
-194.79
-78.00
17.45
86.23
129.17
151.10
154.05
139.98
111.49
69.81
23.02
-19.29
-47.67
-55.68
-40.56
-6.25
40.48
96.11
151.30
197.05
226.53
238.93
239.03
234.91
232.60
234.62
238.95
240.79
238.82
231.90
222.56
215.43
214.48
219.72
227.08
224.72
204.94
164.60
105.37
34.48
-38.76
-106.54
-164.81
-213.80
-255.40
-289.01
-311.45
-318.33
-306.25
-274.86
-228.03
-172.68
-116.37
-65.23
-21.99
13.18
42.17
67.12
89.23
108.01
116.22
108.65
82.97
40.34
-15.60
-79.14
-145.19
-209.04
-267.05
-315.33
-349.27
-364.70
-359.47
-335.36
-296.11
-248.48
-196.37
-141.29
-82.61
-20.00
44.06
103.69
151.19
182.48
192.56
182.73
157.02
120.75
79.65
39.26
4.87
-18.14
-21.21
-4.53
32.35
85.46
145.77
200.88
238.39
250.86
239.28
218.49
199.53
197.06
218.46
260.99
313.56
362.07
395.48
381.03
353.45
310.84
256.25
191.63
119.06
42.79
-29.95
-89.57
-127.41
-134.15
-115.46
-78.37
-33.77
7.18
36.49
51.45
54.88
53.39
58.22
70.83
90.90
113.43
131.12
138.33
133.48
119.74
103.78
96.27
101.85
124.19
163.40
215.49
273.31
326.87
365.29
379.55
368.27
334.39
286.81
236.05
190.84
156.42
134.45
124.47
125.44
139.10
165.18
199.95
235.04
259.15
262.09
238.63
190.62
113.04
14.76
-85.38
-166.26
-214.79
-230.44
-221.74
-199.36
-171.06
-137.98
-98.87
-54.40
-9.04
30.40
57.81
69.86
66.28
48.75
17.31
-24.96
-74.87
-129.90
-187.44
-243.57
-293.16
-330.61
-351.65
-354.42
-339.02
-308.45
-267.96
-223.99
-182.21
-147.04
-121.09
-105.77
-101.07
-105.03
-114.41
-124.77
-131.73
-130.87
-118.64
-93.27
-56.03
-12.17
30.07
60.91
72.05
58.42
22.47
-25.90
-72.73
-106.58
-124.63
-133.65
-146.13
-173.85
-223.85
-293.38
-371.51
-443.90
-498.24
-527.22
-527.98
-501.34
-451.92
-391.84
-335.99
-297.62
-283.01
-288.56
-302.87
-311.65
-304.43
-262.93
-186.74
-91.32
0.14
70.48
114.83
136.07
138.16
122.91
91.31
42.14
-19.11
-82.23
-134.56
-166.16
-172.99
-157.34
-125.13
-82.41
-34.51
18.75
78.46
145.43
217.84
290.29
355.04
404.85
434.43
440.82
423.80
385.97
333.07
273.31
215.84
168.96
138.11
123.49
120.42
119.86
112.26
92.57
63.53
34.72
18.65
24.91
54.99
102.90
157.15
207.11
248.67
286.20
327.90
378.68
435.89
488.57
525.04
536.69
521.30
482.19
424.72
352.76
267.63
171.13
56.76
-66.11
-176.81
-252.94
-282.42
-268.72
-226.92
-175.23
-124.45
-80.10
-41.94
-9.65
15.66
31.34
35.03
25.66
0.79
-36.58
-81.00
-124.33
-160.37
-185.74
-199.16
-199.74
-188.18
-167.11
-140.26
-112.01
-85.82
-65.45
-54.33
-55.08
-68.05
-91.20
-121.44
-154.22
-184.49
-206.58
-216.15
-211.84
-195.79
-172.82
-149.67
-128.36
-111.63
-99.07
-85.69
-65.46
-34.80
5.26
49.88
93.02
130.30
160.56
185.31
206.75
225.08
240.36
249.07
248.10
235.63
211.11
175.51
131.48
82.95
34.44
-9.80
-45.48
-68.46
-75.77
-66.51
-42.41
-7.25
34.21
79.20
123.13
162.29
194.23
216.60
225.81
216.77
184.83
128.89
52.97
-34.07
-120.37
-195.11
-252.19
-291.12
-315.83
-331.57
-342.37
-350.27
-355.85
-358.30
-355.24
-342.87
-316.19
-271.71
-210.99
-142.86
-81.26
-40.08
-26.46
-36.94
-59.34
-77.75
-80.47
-65.03
-38.41
-11.53
6.52
12.34
8.37
-0.45
-8.99
-13.76
-12.98
-5.81
8.52
31.09
61.47
99.21
137.24
165.46
175.20
163.24
131.94
87.15
35.92
-16.99
-69.03
-119.94
-168.73
-213.16
-249.94
-275.70
-288.26
-282.32
-256.54
-206.77
-135.46
-49.23
42.46
130.15
206.43
266.56
308.26
329.94
332.74
319.14
294.53
265.78
239.36
219.45
207.21
201.57
199.28
196.51
187.98
168.71
135.82
91.06
42.13
1.17
-19.58
-14.18
13.41
49.50
76.85
82.16
62.11
23.74
-20.05
-56.92
-80.17
-89.60
-88.97
-82.03
-70.77
-54.85
-33.47
-7.50
20.09
45.57
64.82
75.86
79.10
76.06
68.19
55.79
37.53
10.89
-24.15
-64.86
-105.32
-136.79
-151.56
-146.25
-123.72
-92.71
-63.36
-44.71
-40.13
-48.18
-63.49
-80.49
-95.43
-106.13
-111.17
-109.17
-101.08
-90.00
-80.47
-75.60
-74.43
-72.55
-63.63
-43.82
-14.47
18.27
46.95
66.87
78.46
85.74
91.52
95.47
93.39
81.90
62.54
43.03
34.44
44.21
72.58
109.04
139.66
151.77
140.70
111.16
73.07
36.97
8.25
-12.36
-28.00
-41.35
-53.48
-63.79
-70.67
-74.26
-76.04
-79.17
-86.43
-99.26
-116.14
-134.02
-148.26
-154.42
-150.39
-136.02
-113.57
-86.05
-56.62
-27.73
-0.79
23.03
43.01
57.47
65.11
65.08
58.16
47.14
36.08
30.07
33.03
47.16
70.94
100.48
130.35
154.92
170.10
173.32
164.48
145.36
119.26
89.77
60.42
33.55
8.76
-16.55
-46.72
-84.54
-128.80
-172.39
-205.44
-219.22
-209.56
-179.01
-134.45
-84.59
-36.37
6.61
43.55
74.56
99.66
120.08
138.32
157.62
179.39
198.20
210.07
210.11
195.19
166.12
127.42
85.65
46.13
10.98
-20.46
-49.40
-77.29
-104.40
-129.63
-152.49
-172.02
-187.71
-199.50
-206.68
-206.13
-194.50
-169.54
-130.19
-82.76
-36.18
1.48
26.22
38.86
44.52
48.52
52.29
54.57
53.37
49.43
45.85
45.96
49.32
51.11
41.99
13.03
-38.17
-104.39
-169.74
-215.58
-227.53
-200.67
-138.87
-53.76
40.47
131.71
211.69
276.56
325.95
361.96
382.22
389.10
386.66
378.89
368.31
353.56
329.29
288.24
224.31
136.14
30.20
-81.46
-183.35
-260.00
-300.78
-303.24
-273.47
-224.43
-171.72
-128.13
-102.56
-97.64
-110.36
-134.65
-165.18
-198.81
-234.67
-272.69
-303.52
-318.32
-311.37
-283.22
-239.67
-189.19
-138.32
-90.33
-45.20
-0.51
44.63
89.59
132.52
172.33
207.84
237.14
257.95
268.54
268.13
255.70
231.04
191.08
139.87
83.51
27.81
-22.85
-65.52
-98.76
-123.59
-142.40
-157.81
-170.52
-179.19
-179.88
-167.71
-139.47
-96.47
-45.83
2.01
37.35
55.25
56.23
45.47
29.39
13.02
-1.61
-15.27
-29.33
-44.08
-58.67
-70.64
-77.66
-78.59
-73.48
-63.15
-48.77
-31.44
-12.13
7.23
23.48
32.77
32.26
21.42
2.96
-18.10
-35.59
-44.98
-45.44
-39.71
-32.84
-29.08
-30.01
-33.98
-37.91
-38.51
-34.51
-27.12
-17.77
-6.90
7.03
26.75
54.50
87.44
120.66
148.31
165.43
170.95
167.45
160.00
153.99
152.85
156.44
160.43
157.29
137.95
96.10
31.43
-48.60
-129.49
-193.91
-227.38
-224.11
-189.18
-136.99
-84.77
-46.75
-29.53
-31.55
-46.94
-69.90
-98.17
-132.18
-172.34
-215.52
-254.81
-282.88
-295.19
-292.90
-280.49
-262.97
-241.70
-214.47
-178.05
-131.52
-78.82
-26.57
18.28
52.60
77.21
95.16
108.70
117.69
121.33
119.65
116.08
115.87
124.95
147.02
182.36
228.29
279.88
332.25
380.48
420.33
448.13
462.72
466.95
467.06
470.82
482.87
502.75
524.03
536.66
530.66
500.04
445.11
371.17
286.97
201.60
123.66
59.94
13.33
-18.04
-40.59
-62.43
-91.27
-131.93
-185.34
-250.96
-320.78
-382.76
-425.51
-443.38
-436.76
-409.94
-368.71
-318.72
-264.70
-210.11
-158.21
-111.22
-70.20
-34.32
-0.15
34.20
68.37
99.60
124.03
137.08
135.14
116.83
80.83
32.88
-19.79
-70.91
-116.94
-157.20
-193.18
-227.61
-262.99
-300.10
-340.96
-382.17
-416.97
-437.54
-437.13
-412.49
-364.97
-300.03
-224.74
-141.11
-56.97
21.67
91.48
150.49
196.88
228.99
246.57
251.67
248.39
241.20
234.36
230.40
229.50
229.35
225.69
213.43
188.60
150.19
101.30
49.63
4.15
-28.64
-47.08
-54.00
-54.45
-52.64
-49.99
-45.55
-37.09
-23.67
-6.91
9.63
22.74
31.04
35.87
39.39
43.81
49.83
56.18
59.92
57.82
47.80
29.47
4.22
-26.00
-57.97
-88.32
-113.14
-128.28
-130.15
-117.65
-93.36
-62.89
-33.08
-9.54
5.17
12.04
13.99
14.31
14.81
15.64
16.34
16.50
15.98
14.32
10.77
4.07
-6.77
-21.61
-39.07
-56.39
-71.05
-80.81
-84.78
-83.28
-77.55
-68.80
-57.82
-44.80
-29.40
-11.04
10.70
35.42
60.93
82.98
96.12
95.69
80.23
53.29
22.87
-1.61
-13.26
-10.11
4.73
25.21
45.81
63.72
78.61
91.08
100.75
105.64
102.73
89.90
66.91
35.28
-1.36
-39.19
-74.41
-103.01
-120.83
-124.54
-113.13
-89.08
-58.12
-27.36
-3.14
11.93
18.55
19.66
18.14
15.18
10.43
2.93
-7.05
-18.46
-28.83
-36.38
-40.39
-41.67
-41.92
-42.61
-44.64
-47.15
-48.77
-47.38
-41.47
-30.80
-16.49
-0.69
14.68
28.39
40.77
52.96
66.54
82.49
100.18
118.00
133.53
144.61
148.89
144.10
127.52
97.16
53.76
0.96
-53.94
-103.00
-139.84
-162.32
-172.01
-172.75
-168.16
-157.92
-141.98
-119.10
-89.33
-54.46
-18.38
15.75
45.06
66.92
80.87
87.71
90.80
94.10
100.47
108.95
116.21
117.30
107.53
86.55
57.16
26.00
-1.56
-22.15
-34.21
-37.60
-31.94
-17.65
3.89
27.46
44.78
47.10
28.99
-7.84
-54.36
-96.47
-121.00
-119.85
-93.18
-47.82
6.70
60.51
106.25
138.01
151.47
143.56
113.84
65.07
3.43
-62.15
-123.67
-175.26
-214.97
-243.87
-264.60
-276.64
-279.44
-272.10
-253.27
-223.33
-184.10
-138.44
-89.36
-38.05
15.50
71.68
127.87
177.54
210.65
218.42
198.02
153.43
95.13
37.59
-11.98
-50.82
-77.84
-92.81
-95.31
-84.13
-58.48
-18.88
31.68
88.29
145.74
199.56
246.80
286.23
319.18
347.34
371.84
390.53
397.71
386.64
351.89
293.26
215.65
129.10
43.37
-34.05
-99.27
-150.52
-184.73
-198.43
-188.83
-158.39
-114.47
-68.89
-32.56
-11.49
-6.36
-13.70
-30.20
-54.07
-85.98
-125.82
-171.54
-219.29
-264.40
-303.78
-334.88
-355.80
-363.20
-353.60
-324.53
-276.30
-213.14
-141.17
-67.85
1.51
62.72
113.27
151.44
175.80
186.09
183.17
171.05
155.07
142.05
136.54
139.23
146.28
150.17
143.29
120.77
83.25
34.89
-18.01
-70.05
-117.68
-157.67
-185.81
-196.42
-185.70
-154.45
-111.47
-71.73
-51.01
-59.63
-96.87
-152.03
-208.25
-250.74
-270.75
-266.78
-241.96
-199.42
-141.21
-67.98
17.13
107.04
189.84
252.40
285.21
285.43
258.65
216.36
172.78
139.79
124.06
125.62
138.15
151.46
155.40
144.24
117.70
80.99
41.58
6.53
-18.72
-30.79
-27.37
-6.86
31.63
85.17
146.20
203.04
243.69
261.49
257.47
238.92
214.94
192.34
172.29
151.58
125.83
93.48
58.24
27.19
6.39
-2.08
-0.98
3.67
6.30
4.57
1.10
2.58
14.14
33.50
49.81
47.03
10.79
-65.00
-175.15
-304.38
-428.20
-519.80
-560.13
-545.05
-485.89
-400.97
-305.54
-207.85
-110.83
-17.30
71.53
149.26
207.27
238.89
242.14
220.79
182.24
131.33
78.45
33.79
2.36
-18.18
-35.80
-57.73
-86.74
-121.19
-154.45
-178.80
-189.13
-184.58
-166.62
-133.26
-83.11
-17.53
56.59
127.02
179.48
201.94
189.40
146.64
86.92
26.57
-20.94
-49.50
-60.57
-60.02
-55.01
-50.73
-49.70
-52.50
-57.99
-63.65
-65.36
-58.33
-38.37
-4.46
40.09
87.11
125.38
144.46
139.10
112.39
74.99
41.52
24.51
29.70
55.42
93.40
134.21
170.39
197.67
213.51
216.17
203.88
176.11
135.29
87.22
39.91
0.39
-28.62
-50.35
-72.04
-100.14
-135.90
-173.16
-200.28
-204.34
-177.20
-119.73
-43.47
32.84
89.97
114.50
102.25
58.20
-6.35
-78.84
-141.93
-183.02
-198.19
-190.47
-165.96
-131.07
-90.95
-49.24
-8.74
28.17
59.65
84.57
102.63
114.66
121.59
123.55
119.07
105.39
77.61
37.43
-9.00
-51.78
-79.90
-85.67
-68.19
-34.08
4.99
38.02
58.62
66.21
65.19
61.85
60.41
61.60
63.47
63.29
60.23
55.34
49.97
44.69
39.30
32.69
23.68
11.84
-3.34
-22.47
-46.54
-76.62
-112.85
-152.51
-189.94
-218.11
-228.33
-219.10
-192.94
-155.63
-113.21
-70.60
-30.67
4.95
34.37
55.23
64.57
62.10
49.91
32.26
13.91
-1.31
-11.32
-15.90
-16.51
-15.95
-16.28
-18.93
-24.40
-31.84
-38.86
-41.15
-34.04
-14.78
15.40
51.93
88.26
118.14
138.36
148.99
150.44
146.85
141.38
134.55
125.19
112.43
96.45
79.29
63.06
49.57
39.99
33.99
30.46
27.91
24.77
19.60
11.61
0.19
-14.61
-31.93
-50.86
-70.19
-87.84
-101.00
-107.08
-105.02
-96.43
-85.49
-77.28
-75.25
-80.37
-89.43
-96.47
-96.31
-87.15
-70.87
-51.70
-33.13
-17.18
-3.49
8.97
20.67
30.80
37.35
39.04
35.49
27.86
17.42
5.90
-5.91
-17.73
-29.31
-41.04
-52.85
-64.43
-73.95
-78.95
-76.52
-64.87
-43.99
-15.33
17.53
51.07
82.27
109.57
132.22
149.58
161.16
163.85
158.86
147.82
133.24
117.08
100.68
84.48
68.14
52.16
37.11
24.53
15.04
9.03
5.53
2.56
-2.22
-11.16
-25.16
-44.03
-65.51
-87.20
-105.48
-116.92
-119.09
-111.72
-97.67
-82.35
-72.21
-70.95
-79.26
-92.57
-103.43
-105.39
-95.80
-77.01
-54.05
-31.73
-11.81
6.57
24.90
43.43
60.05
72.12
78.84
82.22
85.59
91.42
99.65
106.92
108.50
101.01
84.15
60.14
32.00
1.72
-29.80
-61.27
-89.40
-108.62
-113.11
-99.96
-71.68
-36.38
-4.62
14.76
19.62
15.05
11.37
18.88
42.65
80.28
121.78
155.11
170.75
166.49
146.61
119.39
92.52
69.30
49.22
29.47
8.34
-14.39
-36.41
-55.19
-69.35
-79.13
-86.95
-95.28
-105.32
-116.10
-125.26
-130.33
-130.34
-126.74
-122.29
-119.12
-119.71
-124.37
-130.65
-134.49
-132.42
-122.46
-105.30
-82.18
-56.72
-31.69
-9.25
8.60
21.18
28.13
31.43
34.91
45.30
66.20
98.20
137.33
175.45
203.98
216.40
211.86
189.09
161.16
135.12
114.37
99.34
88.29
79.62
71.81
64.34
54.79
42.20
24.43
1.10
-25.11
-50.29
-70.80
-86.06
-97.95
-109.24
-119.51
-125.15
-118.98
-93.09
-44.77
21.46
93.20
154.47
190.97
194.69
165.23
109.11
38.02
-35.82
-101.37
-150.98
-181.11
-191.96
-187.21
-172.87
-156.20
-142.86
-136.25
-136.03
-138.39
-138.38
-131.07
-114.07
-87.40
-53.84
-16.92
19.54
52.25
79.10
98.33
109.96
114.54
114.33
111.44
107.61
103.43
98.04
90.75
80.58
68.29
54.63
41.03
28.64
18.21
10.45
5.22
2.53
1.06
-0.09
-2.18
-5.50
-8.71
-9.77
-5.90
3.84
19.13
36.77
53.19
64.58
68.29
64.58
55.39
45.30
38.90
40.45
51.85
72.84
99.99
127.30
149.45
162.04
164.24
157.63
144.43
126.51
104.95
79.31
48.05
12.22
-25.75
-61.86
-91.25
-112.07
-124.51
-130.62
-135.07
-144.95
-164.99
-197.52
-242.13
-293.75
-347.46
-397.83
-429.16
-428.16
-390.96
-323.33
-238.74
-162.79
-99.69
-47.18
-0.34
45.51
94.49
146.50
202.24
262.48
321.57
370.65
397.09
393.77
363.04
321.13
276.20
228.09
182.98
138.26
90.97
37.62
-21.92
-83.46
-140.90
-188.49
-220.61
-234.74
-235.41
-229.38
-224.07
-223.40
-226.72
-231.05
-232.91
-228.11
-212.56
-184.49
-141.07
-79.28
2.36
102.99
209.00
298.85
354.39
370.48
353.34
316.59
273.86
233.43
197.60
163.20
126.49
86.05
44.42
5.20
-28.02
-51.67
-64.15
-66.31
-61.75
-53.86
-44.93
-35.00
-23.07
-8.44
8.93
27.24
42.51
50.26
46.88
30.47
1.92
-35.71
-78.76
-122.42
-160.95
-189.33
-204.03
-203.45
-190.20
-171.13
-154.99
-150.40
-161.49
-186.23
-219.78
-256.28
-283.87
-292.81
-278.26
-241.67
-190.92
-142.30
-98.46
-56.92
-12.43
40.76
107.77
188.51
278.48
364.36
428.44
457.52
446.43
401.37
335.13
260.93
187.71
121.05
65.64
21.82
-8.13
-24.81
-31.66
-34.90
-40.37
-51.01
-64.45
-73.33
-69.05
-43.97
2.89
66.45
136.99
203.67
256.83
289.59
298.05
280.82
241.12
184.83
121.10
60.10
11.08
-20.14
-33.02
-32.08
-26.38
-24.76
-34.67
-59.01
-96.43
-142.05
-188.24
-227.05
-251.07
-256.24
-241.69
-211.43
-173.25
-137.34
-113.67
-108.04
-121.51
-150.05
-187.97
-228.98
-267.24
-297.64
-314.97
-314.80
-294.00
-253.67
-199.85
-142.54
-90.96
-48.07
-9.64
33.64
90.17
163.09
247.43
332.22
400.91
437.12
434.98
401.55
353.08
304.69
264.27
232.00
203.58
176.45
146.34
113.07
78.32
44.36
12.70
-16.54
-43.71
-69.68
-92.83
-111.66
-122.69
-122.11
-107.74
-80.55
-45.36
-9.05
21.39
40.26
43.55
30.35
1.81
-40.22
-93.04
-153.43
-216.83
-277.66
-325.48
-351.26
-350.36
-324.81
-282.88
-232.62
-178.58
-125.68
-70.44
-12.65
41.55
82.26
100.49
91.82
58.42
8.55
-46.41
-94.88
-129.03
-144.77
-141.22
-120.50
-88.61
-53.52
-23.27
-2.26
11.89
26.42
50.19
88.66
140.93
199.29
253.81
296.91
325.97
344.57
359.08
376.33
400.73
433.00
460.73
471.23
455.47
411.90
348.45
277.47
210.65
154.41
108.44
70.38
32.33
-10.63
-59.15
-110.11
-158.42
-198.32
-225.07
-236.80
-232.46
-215.69
-193.83
-176.64
-173.13
-188.75
-223.49
-268.58
-310.97
-337.07
-339.04
-316.93
-276.94
-226.78
-172.56
-118.35
-67.12
-22.68
11.80
34.07
44.91
48.28
49.67
54.23
64.83
81.66
102.21
122.88
140.48
152.61
158.20
157.49
150.80
138.09
119.18
94.04
62.69
27.24
-9.70
-45.57
-78.01
-105.85
-129.28
-149.73
-169.38
-190.36
-213.22
-235.93
-256.16
-266.70
-261.73
-239.45
-202.93
-158.63
-113.55
-72.32
-36.10
-2.97
28.84
59.82
88.56
112.54
129.86
140.33
145.73
148.31
149.39
149.44
147.71
142.98
134.80
123.90
111.97
101.35
93.81
89.67
88.30
87.98
86.66
83.07
77.23
70.36
64.66
62.19
63.77
69.10
76.38
83.06
87.14
88.61
87.18
83.85
80.05
76.84
74.85
74.26
74.71
74.82
71.83
61.78
41.27
8.98
-32.61
-77.29
-116.89
-143.80
-154.84
-151.92
-140.06
-124.19
-107.49
-90.88
-74.04
-57.15
-41.38
-28.39
-19.60
-15.14
-13.54
-12.79
-11.12
-7.57
-2.27
3.96
10.06
15.40
19.77
23.72
27.75
31.60
34.56
35.44
33.08
26.89
17.27
5.53
-6.13
-15.74
-21.99
-24.65
-24.60
-23.57
-23.59
-26.51
-33.43
-44.24
-58.05
-73.34
-88.13
-100.34
-108.36
-110.81
-105.36
-93.38
-76.25
-55.52
-32.93
-9.97
12.37
33.23
52.56
70.40
86.51
100.91
113.61
124.01
131.33
134.71
133.44
127.14
115.84
99.75
79.73
57.67
35.25
14.06
-4.57
-19.74
-31.07
-38.70
-43.32
-45.47
-45.91
-45.41
-44.41
-43.11
-41.56
-39.78
-37.94
-36.42
-35.26
-34.67
-34.71
-35.13
-35.40
-35.08
-34.03
-32.48
-31.18
-30.83
-32.18
-35.55
-40.67
-47.08
-53.51
-59.17
-63.71
-67.74
-71.09
-73.70
-74.95
-73.62
-68.60
-59.31
-46.23
-30.95
-16.06
-3.98
3.12
3.64
-2.98
-16.17
-34.13
-53.21
-67.82
-73.08
-66.14
-48.32
-25.05
-2.82
12.41
18.87
18.55
15.87
14.49
16.11
20.37
25.43
30.59
35.62
41.85
50.03
60.12
70.98
80.64
87.66
90.88
91.24
89.69
88.15
87.67
88.28
89.35
89.16
87.20
82.69
76.83
70.15
63.06
55.22
45.09
31.90
14.58
-5.96
-29.34
-54.07
-79.11
-103.10
-123.47
-137.44
-141.03
-132.53
-111.75
-82.53
-50.53
-21.93
-1.41
10.11
13.70
13.06
10.54
7.75
4.28
-0.69
-7.32
-15.24
-22.54
-28.30
-31.07
-30.59
-26.13
-17.52
-4.51
12.54
30.67
46.27
54.91
54.73
46.52
33.86
21.57
13.17
10.67
12.96
18.58
25.52
32.70
39.36
44.28
46.06
42.28
31.93
14.95
-5.92
-26.28
-41.16
-46.53
-41.27
-26.44
-6.17
15.11
32.85
44.16
47.73
43.47
32.76
17.07
-0.86
-18.64
-33.33
-42.65
-45.25
-40.96
-31.83
-20.60
-11.41
-7.31
-10.30
-20.04
-34.10
-48.86
-59.87
-64.30
-60.43
-49.21
-32.89
-14.64
2.56
16.91
27.09
33.20
35.21
33.92
30.11
25.04
20.17
16.45
14.77
14.76
16.30
18.55
20.98
22.92
23.62
22.64
19.35
14.30
7.84
1.25
-4.59
-8.95
-11.37
-11.86
-10.12
-6.61
-1.44
4.23
9.25
12.39
12.80
10.76
6.85
2.61
-1.22
-4.00
-5.94
-7.35
-8.11
-7.96
-5.94
-2.18
2.79
7.07
8.71
6.40
0.12
-8.33
-16.94
-23.27
-26.41
-26.13
-23.11
-18.15
-11.56
-3.86
4.89
13.47
20.88
25.80
27.81
27.53
26.22
25.66
26.41
28.67
31.12
32.69
32.70
31.44
30.20
29.86
31.05
32.60
33.01
30.35
23.76
13.95
2.66
-7.34
-14.28
-16.89
-15.69
-11.62
-6.03
-0.08
5.73
10.62
14.41
16.25
16.05
13.78
10.19
6.34
2.95
0.66
-1.15
-2.87
-5.38
-8.84
-13.01
-17.58
-22.00
-26.44
-30.57
-34.61
-38.03
-40.52
-41.80
-41.68
-40.55
-38.42
-35.71
-32.00
-27.28
-21.38
-14.65
-8.01
-2.27
1.37
2.72
1.63
-0.98
-4.33
-7.61
-10.28
-12.50
-14.08
-15.22
-15.34
-14.32
-12.07
-9.26
-7.18
-6.82
-9.04
-13.00
-17.43
-20.20
-19.89
-16.08
-9.40
-1.48
6.33
12.68
17.37
20.24
21.54
21.42
19.92
17.58
14.78
12.47
10.73
9.47
7.79
4.67
-0.16
-6.35
-12.37
-17.04
-19.33
-19.74
-19.52
-20.36
-23.62
-29.10
-35.75
-41.02
-42.72
-38.99
-29.51
-15.29
1.78
18.94
34.00
44.65
49.83
49.04
43.04
33.72
23.59
15.65
11.61
12.24
16.33
21.99
27.20
30.45
31.10
28.65
23.30
15.07
5.44
-3.23
-7.60
-4.44
7.69
27.99
52.77
77.57
97.73
110.59
115.25
112.18
102.66
87.54
68.09
45.40
21.79
-0.18
-17.74
-28.96
-33.57
-32.40
-27.86
-21.89
-16.36
-12.04
-9.26
-8.14
-8.60
-10.97
-14.87
-20.18
-25.92
-31.16
-34.86
-36.10
-34.58
-30.14
-23.69
-16.06
-8.90
-3.38
-0.21
0.63
0.23
-0.27
0.54
2.82
6.30
9.72
11.83
11.95
10.02
7.22
4.60
3.53
4.25
6.41
8.93
10.59
10.83
9.40
7.10
4.31
1.52
-1.40
-4.57
-7.68
-10.20
-10.97
-9.79
-6.83
-3.58
-1.58
-1.92
-4.68
-8.59
-12.25
-14.14
-14.06
-12.48
-10.74
-10.05
-10.93
-13.33
-16.06
-18.25
-18.87
-17.90
-15.78
-13.38
-11.50
-10.16
-9.24
-7.78
-5.36
-1.65
3.06
8.26
13.56
18.49
23.30
27.82
32.23
36.01
38.47
38.82
36.51
31.99
26.16
20.84
17.13
15.44
14.77
13.38
9.83
3.39
-4.74
-12.92
-19.01
-22.15
-22.56
-21.31
-19.79
-18.46
-17.67
-16.97
-16.46
-16.25
-16.57
-17.19
-17.13
-15.48
-11.35
-5.35
1.32
6.83
9.87
10.27
8.69
6.62
4.94
4.40
4.66
5.23
5.60
5.31
4.39
2.63
0.32
-2.68
-6.04
-9.52
-12.75
-15.22
-16.86
-17.42
-17.38
-16.95
-16.57
-16.16
-15.25
-13.21
-9.29
-3.58
3.72
11.41
18.59
24.32
28.28
30.69
31.82
32.41
32.59
32.78
32.76
32.47
31.75
30.44
28.84
26.84
24.83
22.29
18.74
13.27
5.18
-5.53
-18.32
-31.45
-43.44
-52.59
-58.38
-60.99
-61.12
-59.64
-56.68
-52.39
-46.17
-38.29
-29.12
-19.80
-11.64
-5.38
-1.48
0.68
1.46
1.65
1.28
0.47
-0.64
-1.88
-2.37
-1.66
1.08
5.70
11.71
17.86
22.85
25.95
26.88
26.59
25.73
25.21
24.89
24.02
21.72
17.59
12.63
8.08
5.78
6.38
9.87
14.93
19.56
22.17
21.90
19.65
16.63
14.70
14.97
18.18
23.68
29.27
32.72
32.52
29.22
24.51
20.91
20.67
25.98
37.74
54.80
74.32
91.99
103.48
105.18
96.13
79.65
63.79
57.43
65.12
84.55
106.54
119.05
111.80
80.52
24.20
-46.44
-111.88
-154.02
-165.81
-152.98
-126.62
-96.07
-66.13
-37.60
-9.74
16.35
36.98
48.16
48.62
41.38
32.33
28.00
33.34
50.62
78.27
111.16
143.40
170.14
189.00
199.42
201.98
197.71
187.72
172.77
153.30
130.55
107.18
87.35
74.94
72.91
82.41
102.14
128.40
155.71
177.81
188.48
187.20
172.79
145.85
109.03
66.65
23.99
-13.04
-38.94
-49.70
-43.34
-20.97
14.04
56.42
99.90
137.65
163.74
174.07
166.50
140.86
98.56
42.66
-22.65
-92.37
-161.35
-224.71
-278.45
-319.92
-348.36
-364.95
-371.97
-372.38
-368.95
-363.81
-358.04
-351.95
-345.20
-337.32
-328.41
-319.12
-310.44
-302.94
-296.45
-289.75
-281.25
-269.61
-254.37
-236.28
-217.26
-200.04
-187.75
-183.99
-192.01
-213.47
-247.29
-288.57
-329.30
-360.41
-375.10
-371.37
-352.72
-326.37
-299.86
-278.28
-263.03
-252.86
-245.48
-239.13
-233.25
-227.91
-222.85
-216.68
-207.55
-193.72
-174.49
-150.39
-122.27
-91.21
-58.47
-25.57
6.32
36.33
64.10
89.45
112.34
134.15
156.38
179.77
203.99
228.32
252.41
276.72
302.11
329.42
360.86
397.45
437.51
476.52
509.03
530.76
539.95
537.19
524.66
507.80
492.10
481.30
476.97
479.11
486.63
496.96
505.86
493.23
446.00
365.93
271.01
185.15
124.53
92.56
83.15
86.78
97.03
112.45
133.59
157.85
179.44
191.16
187.85
167.99
132.87
83.77
25.50
-37.65
-106.23
-182.38
-267.32
-358.04
-447.61
-527.06
-587.97
-623.33
-630.16
-614.06
-583.95
-549.21
-516.97
-491.76
-476.56
-472.97
-479.54
-470.64
-428.78
-348.84
-241.66
-127.01
-23.66
56.51
110.02
140.58
155.76
159.71
154.88
142.24
123.02
99.44
74.45
51.19
31.91
17.86
4.93
-9.31
-25.14
-40.08
-49.84
-50.09
-37.87
-12.42
24.78
68.78
112.28
149.42
177.28
195.76
206.42
211.33
212.27
210.18
204.60
195.08
181.88
166.31
150.37
136.04
124.65
116.54
110.82
105.76
99.79
92.24
83.59
75.13
68.41
64.43
63.17
63.59
64.11
63.37
60.78
56.81
52.55
49.22
47.75
48.69
52.30
58.34
65.41
70.52
69.54
58.62
36.36
5.33
-28.43
-57.52
-76.21
-82.57
-78.60
-68.34
-55.50
-41.80
-26.97
-10.24
8.17
26.65
42.47
53.14
57.54
56.00
49.76
40.43
29.01
15.86
0.85
-15.90
-34.05
-52.49
-69.55
-83.35
-92.39
-96.20
-95.32
-91.70
-87.21
-83.80
-82.60
-83.65
-85.98
-88.08
-88.81
-87.53
-84.65
-81.16
-78.40
-77.26
-78.24
-81.56
-87.01
-93.83
-99.85
-101.77
-95.72
-79.35
-53.19
-21.21
10.13
34.88
49.24
53.53
50.53
44.21
37.13
30.05
22.54
13.58
3.75
-6.26
-14.78
-21.40
-26.08
-29.62
-32.87
-35.42
-36.82
-35.31
-30.13
-20.55
-7.43
7.75
23.13
36.47
46.95
53.71
57.45
58.43
57.48
54.99
50.97
45.97
39.71
33.21
26.62
21.11
16.91
14.19
13.21
13.01
13.82
14.61
15.74
16.60
17.46
18.08
17.94
17.54
16.32
15.26
14.14
13.81
14.32
15.54
17.48
19.13
20.86
22.03
23.69
25.76
28.89
33.41
38.65
44.56
50.02
55.51
60.44
65.91
71.94
78.85
87.63
98.44
112.18
127.85
144.78
159.89
170.65
175.01
169.45
155.34
135.61
115.35
97.46
83.91
73.98
66.30
60.26
55.37
52.82
51.76
51.13
47.96
40.33
27.87
11.95
-4.29
-18.90
-30.19
-39.97
-50.32
-63.84
-81.33
-101.43
-121.83
-139.43
-153.28
-162.49
-168.20
-171.08
-171.50
-169.39
-164.35
-157.29
-149.28
-142.98
-139.89
-140.84
-144.90
-149.62
-152.34
-150.45
-143.44
-131.73
-117.50
-102.89
-89.88
-79.78
-72.96
-69.67
-69.19
-70.85
-72.95
-73.71
-71.46
-65.39
-56.14
-45.05
-34.22
-24.83
-17.57
-12.19
-8.57
-6.85
-7.52
-11.22
-17.57
-25.57
-33.26
-39.00
-41.80
-41.81
-39.91
-36.82
-32.78
-26.99
-18.62
-7.23
6.39
20.39
32.48
40.83
44.99
45.81
45.20
45.01
46.28
48.89
51.55
52.73
51.16
46.76
40.48
34.03
29.05
26.30
25.65
25.89
25.90
24.87
22.93
20.72
18.75
17.25
15.80
14.29
12.83
12.42
14.17
18.58
25.10
31.74
36.43
37.23
33.78
26.75
17.64
7.96
-1.52
-10.11
-17.77
-23.96
-28.47
-31.10
-32.07
-32.00
-31.32
-30.84
-30.53
-30.83
-31.72
-33.40
-35.93
-38.88
-41.93
-44.05
-45.09
-44.45
-42.14
-37.89
-31.31
-22.34
-10.78
2.21
15.62
27.50
36.73
42.76
46.01
47.91
49.46
52.12
55.82
60.70
66.04
71.28
75.99
79.62
82.40
83.78
84.16
83.20
81.16
78.30
74.87
71.48
67.83
64.09
59.18
52.73
44.40
34.87
25.97
19.46
17.27
19.15
24.08
29.28
32.40
32.18
28.95
24.91
21.83
21.51
23.35
26.12
27.87
27.48
25.42
22.71
21.35
21.71
23.72
25.77
26.35
24.61
20.53
15.42
10.18
6.05
2.85
0.17
-2.78
-6.44
-10.34
-13.81
-15.44
-14.83
-11.79
-7.21
-2.24
2.10
5.03
6.68
7.07
6.84
6.15
5.35
4.49
3.49
2.47
1.24
0.21
-0.63
-1.06
-1.40
-2.08
-3.58
-6.19
-9.30
-12.22
-13.84
-13.85
-12.62
-11.15
-10.55
-11.21
-12.98
-14.79
-15.71
-14.99
-12.61
-9.17
-5.46
-2.34
-0.22
0.60
0.26
-1.19
-3.49
-6.37
-9.48
-12.32
-14.60
-15.98
-16.39
-15.80
-14.35
-12.20
-9.58
-6.95
-4.70
-3.31
-2.85
-3.23
-4.20
-5.59
-7.52
-10.15
-13.78
-18.34
-23.57
-28.92
-33.79
-37.74
-40.34
-41.25
-39.91
-36.00
-29.34
-20.42
-10.30
-0.35
8.04
14.24
18.32
21.22
24.02
27.51
31.76
36.14
40.02
43.00
45.52
48.30
51.99
56.61
61.21
64.45
65.04
62.75
58.20
52.78
47.82
43.86
40.63
37.07
32.36
26.03
18.70
11.47
5.65
2.13
1.03
1.96
4.03
6.52
8.72
10.13
10.26
8.62
5.10
-0.04
-5.63
-10.43
-13.32
-14.17
-13.88
-13.79
-15.03
-17.50
-20.29
-21.92
-21.76
-20.39
-19.55
-21.17
-26.14
-34.05
-43.04
-51.26
-57.42
-61.45
-64.23
-66.88
-70.22
-74.22
-78.45
-82.05
-84.35
-84.71
-82.55
-77.42
-68.94
-57.46
-43.95
-30.30
-18.61
-10.58
-6.72
-5.89
-5.90
-4.09
1.05
9.50
19.32
27.86
32.88
33.70
31.58
28.77
27.76
29.60
33.79
38.39
41.05
40.06
34.76
25.89
14.78
3.14
-7.77
-17.15
-24.75
-30.98
-36.37
-41.69
-47.33
-53.24
-58.64
-62.32
-62.92
-59.33
-51.48
-40.27
-27.79
-16.49
-8.68
-5.93
-8.58
-15.81
-25.62
-35.75
-43.98
-48.95
-50.30
-48.45
-44.09
-37.48
-28.44
-16.31
-1.02
16.59
34.41
49.66
59.97
64.12
62.56
56.66
48.05
37.71
26.12
13.59
0.72
-11.07
-20.41
-26.28
-28.98
-29.88
-30.72
-32.53
-34.75
-35.79
-33.47
-26.77
-16.08
-3.20
9.60
20.56
28.75
34.33
37.75
39.96
41.76
43.89
46.78
50.18
53.27
54.66
53.28
48.69
41.68
33.71
26.29
20.34
15.58
11.20
6.19
0.25
-6.28
-12.71
-18.59
-24.29
-30.56
-38.22
-47.07
-55.88
-62.65
-65.65
-64.39
-59.68
-53.31
-46.45
-39.44
-31.39
-21.48
-9.81
2.17
12.14
18.59
21.35
22.19
23.32
26.21
30.56
34.48
36.13
34.69
31.42
28.56
28.34
31.50
37.06
43.02
47.30
48.94
47.97
45.36
42.13
39.15
36.89
35.35
34.34
33.19
31.25
27.98
23.44
18.33
13.84
11.08
10.28
10.91
11.69
11.52
9.81
6.74
2.95
-1.19
-5.60
-10.71
-16.65
-23.03
-28.67
-32.08
-32.07
-28.34
-21.90
-14.50
-8.28
-4.78
-4.63
-7.13
-10.42
-11.92
-9.09
-0.69
12.69
28.18
41.64
49.14
48.62
41.01
29.80
19.73
14.66
16.29
23.59
33.71
43.40
50.08
52.76
51.44
46.94
40.10
31.92
23.58
16.54
12.46
12.06
14.75
18.14
18.99
14.63
4.54
-9.09
-22.28
-30.90
-32.71
-28.02
-19.45
-10.47
-3.96
-1.53
-3.12
-7.76
-13.90
-20.17
-25.51
-29.63
-32.89
-36.05
-39.97
-44.90
-50.63
-56.37
-61.21
-64.21
-64.50
-61.58
-55.38
-46.69
-36.82
-27.26
-19.06
-12.49
-7.29
-2.95
0.63
3.33
4.83
5.22
5.00
4.99
5.91
7.69
9.68
10.51
8.74
3.21
-6.23
-18.22
-30.03
-38.15
-40.01
-34.94
-24.99
-13.99
-6.02
-3.78
-7.64
-15.91
-25.44
-32.99
-35.66
-31.75
-21.05
-5.09
12.68
27.80
35.89
34.76
25.23
11.27
-1.88
-9.87
-10.93
-6.43
0.72
7.65
13.03
17.01
20.31
23.15
24.78
24.41
21.98
19.06
18.26
21.93
30.69
42.71
54.38
61.67
62.11
55.52
44.41
32.78
24.61
22.55
26.85
35.72
45.88
54.05
57.92
56.92
52.10
45.39
38.91
33.89
30.77
29.06
28.05
27.14
26.06
24.95
23.94
23.16
22.37
21.28
19.55
17.10
14.05
10.62
7.06
3.27
-0.87
-5.58
-10.89
-16.60
-22.35
-27.74
-32.81
-37.64
-42.52
-47.32
-51.48
-54.12
-54.47
-52.44
-48.55
-44.06
-40.05
-37.21
-35.50
-34.49
-33.75
-33.00
-32.31
-31.53
-30.53
-28.90
-26.38
-22.98
-18.94
-14.67
-10.28
-5.79
-1.03
3.91
8.74
13.01
16.32
18.69
20.30
21.68
23.08
24.59
26.01
27.09
27.63
27.45
26.60
25.01
22.75
19.89
16.67
13.49
10.66
8.40
6.48
4.49
1.88
-1.63
-5.94
-10.61
-15.07
-19.08
-22.55
-25.67
-28.42
-30.50
-31.43
-30.88
-29.09
-26.77
-24.96
-24.28
-24.79
-25.87
-26.71
-26.88
-26.47
-26.10
-26.31
-27.39
-29.10
-31.08
-32.97
-34.60
-35.88
-36.52
-36.07
-33.93
-29.88
-24.11
-17.35
-10.56
-4.46
0.49
4.39
7.56
10.49
13.52
17.01
21.13
25.87
31.08
36.15
40.40
43.05
43.67
42.30
39.62
36.63
34.22
33.05
33.05
33.75
34.35
34.11
32.56
29.46
25.09
19.86
14.59
10.03
6.82
5.24
5.15
6.16
7.54
8.80
9.47
9.52
9.06
8.27
7.43
6.56
5.74
4.70
3.26
1.34
-0.75
-2.39
-2.92
-1.74
1.17
5.62
10.90
16.37
21.59
26.54
31.65
37.15
43.36
50.02
56.85
63.11
67.99
71.34
73.57
76.00
79.62
85.21
92.47
100.74
108.83
115.42
120.14
123.19
125.55
127.91
130.33
132.01
131.26
125.16
109.94
82.62
42.07
-10.11
-70.04
-132.96
-194.28
-246.37
-281.67
-296.55
-292.45
-274.29
-247.03
-214.04
-178.14
-141.61
-106.80
-75.96
-50.81
-30.96
-14.38
1.42
19.33
39.04
58.34
73.56
80.85
76.95
60.17
30.88
-9.77
-55.35
-97.54
-127.49
-138.85
-130.08
-105.42
-73.45
-43.32
-21.72
-10.59
-8.97
-13.72
-22.23
-33.12
-45.74
-59.57
-72.41
-81.82
-84.75
-80.65
-70.41
-55.87
-39.10
-20.88
-1.56
19.26
41.36
63.80
83.69
98.18
105.66
106.51
103.30
99.37
98.04
101.43
110.14
122.80
137.33
152.30
166.81
180.69
194.25
205.77
215.58
224.32
231.58
234.26
227.37
205.16
164.83
108.60
42.89
-17.97
-58.41
-68.38
-48.68
-8.20
40.93
87.77
129.66
166.88
200.12
228.08
248.48
258.92
259.10
250.80
237.59
223.17
209.52
197.08
184.45
169.44
150.13
125.92
97.42
66.37
35.04
5.01
-22.68
-48.05
-71.81
-94.66
-116.91
-139.82
-164.42
-190.68
-217.97
-245.22
-271.51
-296.24
-318.21
-336.43
-352.38
-367.06
-379.57
-386.83
-385.20
-371.92
-346.46
-309.32
-263.81
-218.79
-182.34
-159.33
-149.59
-150.11
-157.60
-170.76
-188.95
-215.08
-258.61
-326.78
-421.40
-536.41
-660.84
-782.49
-891.38
-978.98
-1000.34
-925.36
-748.94
-499.30
-222.69
38.70
260.35
423.57
542.11
628.28
684.41
710.80
708.61
683.37
640.13
582.37
511.85
432.55
350.41
272.20
206.59
150.79
103.47
63.00
26.50
-3.58
-27.30
-49.57
-77.77
-115.90
-162.20
-206.58
-235.25
-237.16
-210.09
-152.55
-80.82
-19.48
14.10
18.71
7.63
-3.85
-8.13
-7.30
-8.53
-18.71
-40.29
-66.67
-89.44
-102.32
-103.86
-95.84
-80.30
-57.64
-27.21
14.22
66.21
124.45
182.03
231.40
266.74
285.65
289.23
280.49
264.02
244.48
225.17
207.56
191.39
175.66
159.69
143.58
127.60
112.43
98.90
87.37
77.71
69.37
61.76
54.65
48.07
42.15
36.80
32.03
27.73
23.80
20.25
17.27
15.24
14.42
14.82
15.89
17.18
18.45
19.95
22.38
26.65
33.60
43.45
56.78
71.25
84.72
95.36
101.90
103.85
101.38
95.27
86.51
76.54
66.37
56.94
48.35
39.43
28.08
12.15
-8.95
-33.72
-58.49
-79.65
-94.41
-101.37
-100.76
-93.65
-81.46
-65.24
-45.96
-24.65
-4.13
12.33
22.95
27.74
28.41
27.11
25.91
26.24
28.75
31.27
30.88
26.19
17.49
6.17
-6.64
-20.70
-36.98
-57.75
-84.65
-120.19
-164.60
-215.49
-268.83
-320.70
-368.01
-408.61
-423.79
-402.61
-346.75
-269.29
-186.41
-109.63
-44.08
9.35
51.86
85.31
109.03
122.23
126.15
123.99
119.51
115.84
114.66
116.59
121.74
127.94
132.92
136.16
138.65
141.83
146.50
152.82
159.54
165.08
166.64
161.86
149.90
131.53
108.36
82.22
55.63
30.39
7.88
-11.60
-28.01
-41.32
-51.24
-57.73
-60.90
-61.30
-59.79
-57.16
-54.27
-51.67
-49.71
-48.18
-47.01
-45.84
-44.51
-43.09
-41.66
-40.38
-39.39
-38.92
-38.80
-39.17
-39.93
-40.91
-42.06
-43.13
-44.05
-44.69
-46.20
-47.51
-48.35
-48.38
-47.29
-45.04
-41.50
-36.97
-31.71
-26.29
-20.74
-15.33
-9.95
-4.41
1.20
6.64
11.08
13.68
13.50
10.32
4.40
-3.28
-11.22
-18.20
-23.39
-27.03
-29.82
-32.80
-36.59
-41.12
-45.66
-49.09
-50.68
-50.16
-48.34
-46.57
-46.47
-49.92
-58.65
-73.97
-95.46
-120.74
-145.05
-162.73
-169.50
-164.40
-150.92
-135.37
-124.70
-123.29
-131.92
-148.76
-169.82
-190.92
-208.93
-222.44
-230.68
-233.10
-228.83
-217.54
-199.94
-177.92
-154.55
-133.00
-115.81
-103.88
-96.22
-90.12
-82.49
-70.80
-53.70
-31.55
-5.63
22.17
50.60
79.48
109.81
143.07
180.30
221.50
264.97
308.35
348.40
382.05
407.70
425.76
438.26
448.34
459.98
476.27
499.22
526.67
550.91
562.33
553.01
519.30
463.47
393.60
319.72
252.20
196.03
147.73
101.35
52.01
-3.18
-63.80
-125.32
-180.60
-218.61
-231.01
-218.90
-187.28
-143.31
-96.04
-53.35
-19.06
6.77
30.50
57.93
87.36
117.13
147.11
175.33
199.19
216.62
202.34
144.55
86.57
52.45
38.74
42.85
58.24
76.87
91.81
98.92
101.57
89.00
54.06
1.34
-57.84
-116.72
-173.24
-227.10
-277.07
-317.98
-346.40
-365.88
-381.26
-396.76
-415.21
-436.16
-454.02
-462.58
-456.18
-433.04
-396.37
-349.36
-294.58
-233.33
-163.52
-82.79
9.21
111.00
219.52
322.78
410.98
476.42
500.01
472.69
397.24
287.31
161.30
35.14
-81.06
-176.97
-255.36
-318.58
-364.93
-393.07
-403.79
-400.75
-387.54
-367.85
-344.03
-318.16
-290.52
-258.37
-218.89
-169.72
-110.15
-41.91
31.09
102.04
161.55
202.27
223.25
229.60
230.72
235.97
250.92
277.97
314.85
356.31
397.34
435.28
468.82
496.39
515.24
522.09
518.15
506.47
490.44
471.85
450.26
422.86
385.62
335.77
257.06
149.90
29.91
-78.99
-158.55
-204.31
-223.52
-227.92
-226.30
-225.19
-224.83
-225.31
-227.99
-235.74
-250.54
-270.46
-289.67
-301.34
-300.93
-285.20
-255.58
-217.04
-176.45
-139.74
-110.29
-89.02
-75.08
-67.16
-62.47
-59.11
-56.62
-55.26
-54.67
-53.42
-49.74
-41.87
-29.17
-11.38
10.49
34.04
56.53
75.80
91.59
103.58
111.62
115.28
113.93
106.47
91.93
69.88
41.15
8.01
-25.72
-56.83
-83.26
-104.37
-120.66
-133.24
-143.17
-151.47
-159.36
-167.39
-175.15
-180.38
-179.38
-168.57
-146.79
-116.55
-84.04
-57.39
-42.72
-42.22
-53.23
-70.44
-87.80
-100.98
-107.87
-107.78
-100.43
-85.36
-62.56
-32.78
1.71
36.89
68.86
94.59
112.89
124.22
130.23
132.73
133.40
133.24
132.76
131.93
130.49
128.30
125.34
122.89
119.82
115.36
109.38
102.17
94.42
86.79
79.83
73.84
68.76
63.90
58.69
52.97
47.08
41.78
37.40
33.86
30.39
25.86
19.31
10.52
0.43
-9.31
-16.80
-20.65
-19.97
-14.48
-4.35
8.89
22.22
31.08
29.26
14.45
-11.29
-41.67
-68.30
-83.81
-85.13
-73.61
-53.87
-30.76
-7.07
16.66
40.72
64.70
87.48
105.98
117.64
121.12
116.76
105.67
89.07
67.34
40.09
8.53
-26.43
-62.76
-98.92
-131.29
-156.21
-170.87
-173.77
-164.79
-145.00
-116.77
-82.73
-45.86
-9.27
23.71
49.68
65.92
70.90
65.41
50.71
29.85
6.36
-16.62
-37.21
-54.67
-69.10
-80.68
-89.17
-94.38
-96.05
-94.49
-90.65
-86.04
-82.12
-80.03
-80.50
-83.70
-89.51
-96.56
-101.83
-100.93
-89.57
-65.87
-31.81
6.72
42.09
67.88
81.47
84.42
80.86
74.99
69.13
63.55
57.56
50.94
44.60
40.06
38.38
39.25
41.15
42.13
40.60
36.35
30.48
24.84
21.07
19.97
21.07
22.98
23.98
22.90
19.56
14.73
10.00
6.70
5.39
5.63
6.12
5.23
1.38
-6.15
-17.65
-32.13
-47.76
-61.70
-70.98
-73.24
-68.04
-57.92
-47.26
-40.34
-39.10
-42.27
-46.03
-46.05
-39.63
-26.15
-6.66
17.07
42.84
67.77
87.43
96.99
92.87
73.83
42.48
4.45
-33.47
-65.65
-88.62
-100.92
-102.22
-92.69
-73.62
-47.40
-17.96
9.99
32.05
45.50
50.09
47.57
40.57
31.96
24.05
18.21
15.13
15.22
19.39
28.63
43.61
63.92
87.91
113.45
137.75
156.97
166.62
161.98
139.46
98.42
42.89
-18.86
-75.99
-117.36
-137.01
-135.83
-119.92
-97.06
-73.50
-52.25
-33.99
-18.37
-5.54
3.66
8.27
8.29
4.85
-0.22
-4.65
-7.10
-7.05
-5.17
-2.83
-1.36
-1.53
-3.53
-6.83
-10.32
-12.84
-13.13
-10.32
-4.27
4.74
16.16
28.88
41.36
51.90
57.67
56.30
47.12
31.94
14.84
0.70
-7.62
-11.15
-14.06
-21.96
-38.63
-63.17
-90.25
-112.55
-124.00
-122.34
-108.95
-86.94
-58.88
-26.84
7.08
39.21
64.24
77.50
77.98
69.83
60.39
56.40
60.92
72.16
85.58
97.30
106.38
114.29
122.08
127.76
126.04
112.00
83.70
45.23
5.22
-27.10
-46.20
-51.74
-48.16
-41.48
-36.03
-32.94
-30.55
-26.31
-18.80
-8.62
2.63
12.99
21.59
28.67
35.06
41.66
48.15
53.26
55.14
52.21
43.83
30.71
14.70
-1.88
-16.79
-28.85
-37.79
-44.15
-48.89
-53.02
-56.85
-60.38
-63.50
-65.78
-67.09
-67.45
-67.01
-65.76
-63.65
-60.16
-54.84
-47.60
-38.33
-27.05
-13.71
1.43
18.22
36.57
56.47
77.19
97.67
116.59
132.30
143.37
148.77
147.68
140.02
126.31
106.87
83.22
57.26
30.65
5.04
-18.00
-37.52
-54.83
-68.25
-77.03
-80.37
-77.40
-67.34
-49.32
-22.97
11.42
52.89
99.60
148.58
197.06
242.77
283.86
318.94
347.09
367.53
380.43
384.73
378.93
363.37
340.10
311.78
280.83
248.98
215.90
179.16
138.70
92.16
38.99
-18.61
-77.68
-135.71
-191.04
-242.78
-290.64
-340.40
-397.25
-461.81
-529.29
-592.43
-644.78
-682.52
-704.56
-711.98
-714.80
-722.53
-739.39
-764.01
-792.66
-822.77
-853.29
-882.98
-862.13
-761.67
-583.41
-360.31
-135.51
58.53
206.63
307.93
370.38
406.32
420.23
414.80
393.66
363.13
330.49
301.76
280.74
268.60
264.38
259.96
248.10
225.75
195.36
162.07
130.65
104.02
83.10
67.25
51.52
32.01
6.80
-20.46
-44.23
-59.42
-62.72
-52.90
-30.60
0.26
35.32
70.93
104.20
133.54
158.15
177.47
191.18
199.26
201.37
197.54
188.62
176.34
162.56
148.81
136.05
124.63
