1513650799.00
64.000000
-0.00
-0.00
-0.00
-0.00
-0.00
-0.00
-0.00
-0.00
-0.00
-0.00
0.00
0.01
0.01
-0.00
-0.03
-0.05
-0.05
0.00
0.13
0.36
0.66
1.01
1.37
1.72
2.06
2.40
2.79
3.24
3.80
4.42
5.06
5.66
6.20
6.68
7.15
7.68
8.31
9.14
10.09
11.04
11.88
12.56
13.14
13.76
14.65
15.96
17.91
20.32
22.90
25.38
27.58
29.57
31.68
34.32
37.81
42.54
48.15
54.10
59.83
64.97
69.58
74.14
79.34
85.71
93.76
103.00
112.62
121.73
129.77
136.75
143.30
150.75
157.77
166.64
177.95
191.79
206.97
220.57
228.25
225.36
208.53
176.87
132.76
80.05
23.07
-34.94
-92.44
-149.16
-205.23
-260.37
-313.74
-363.88
-409.84
-450.91
-486.50
-515.74
-537.22
-549.21
-549.94
-538.34
-514.16
-478.60
-433.78
-382.32
-326.85
-269.62
-212.36
-156.33
-102.57
-51.93
-5.40
36.15
72.07
102.06
126.28
145.24
159.63
170.17
177.49
181.97
183.90
183.52
181.09
176.97
171.56
165.27
158.45
151.34
144.09
136.78
129.43
122.10
114.84
107.74
100.86
94.26
87.97
82.01
76.38
71.09
66.16
61.60
57.41
53.60
50.17
47.10
44.40
42.06
40.05
38.40
37.10
36.15
35.54
35.27
35.30
35.57
36.02
36.51
36.92
37.07
36.80
35.93
34.33
31.90
28.61
24.50
19.63
14.18
8.34
2.39
-3.42
-8.85
-13.66
-17.70
-20.85
-23.07
-24.37
-24.82
-24.54
-23.64
-22.27
-20.55
-18.58
-16.45
-14.20
-11.87
-9.48
-7.06
-4.61
-2.14
0.37
2.92
5.52
8.19
10.96
13.79
16.66
19.57
22.51
25.50
28.56
31.75
35.10
38.71
42.49
46.41
50.48
54.70
59.11
63.72
68.59
73.75
79.30
85.03
90.84
96.64
102.39
108.05
113.62
119.14
124.66
130.27
135.70
140.77
145.27
148.98
151.60
152.74
151.85
148.15
143.03
136.99
130.30
123.18
115.78
108.24
100.70
93.29
86.16
79.52
73.21
67.17
61.36
55.79
50.47
45.42
40.71
36.38
32.57
29.12
25.99
23.13
20.57
18.34
16.47
14.99
13.95
13.39
13.19
13.23
13.41
13.64
13.81
13.84
13.69
13.31
12.73
11.88
10.77
9.44
7.93
6.32
4.65
3.01
1.45
0.01
-1.26
-2.39
-3.33
-4.08
-4.64
-5.00
-5.15
-5.10
-4.83
-4.40
-3.83
-3.15
-2.41
-1.64
-0.90
-0.23
0.33
0.74
0.96
0.97
0.77
0.38
-0.14
-0.73
-1.33
-1.88
-2.37
-2.81
-3.20
-3.57
-3.90
-4.18
-4.36
-4.44
-4.42
-4.37
-4.41
-4.65
-5.23
-6.18
-7.51
-9.15
-11.05
-13.24
-15.80
-18.91
-22.73
-27.33
-32.64
-38.40
-44.26
-49.91
-55.20
-60.22
-65.29
-70.79
-77.02
-83.97
-91.38
-98.78
-105.76
-112.17
-118.25
-124.58
-131.86
-140.60
-150.89
-162.35
-174.37
-186.28
-197.79
-208.95
-220.36
-232.90
-247.78
-266.12
-288.56
-314.57
-342.00
-367.23
-385.88
-394.32
-390.80
-376.25
-353.72
-327.22
-300.37
-275.42
-253.13
-233.15
-214.71
-196.94
-179.06
-160.36
-140.24
-118.56
-95.63
-72.36
-49.85
-29.24
-11.37
3.24
14.35
21.98
26.36
28.03
27.74
26.40
24.84
23.60
22.96
22.80
22.88
22.86
22.46
21.56
20.16
18.45
16.65
15.18
14.34
14.47
15.75
18.16
21.32
24.35
26.08
25.19
20.93
13.38
3.75
-5.96
-13.67
-17.84
-18.12
-15.16
-10.31
-4.82
0.49
5.40
10.05
14.54
18.84
22.64
25.72
27.90
29.36
30.47
31.74
33.72
36.65
40.60
45.23
50.00
54.29
57.62
59.75
60.63
60.43
59.22
57.07
53.96
49.95
45.03
39.29
32.87
25.99
19.11
12.73
7.46
3.69
1.52
0.81
1.17
2.27
3.76
5.53
7.46
9.49
11.55
13.51
15.22
16.44
17.00
16.77
15.86
14.42
12.75
11.08
9.44
7.75
5.81
3.57
1.05
-1.50
-3.86
-5.92
-7.79
-9.85
-12.53
-16.29
-21.27
-27.32
-33.95
-40.33
-45.56
-48.54
-48.31
-44.04
-35.41
-22.72
-7.04
10.04
26.90
42.28
55.65
67.00
76.62
84.65
90.92
95.15
97.13
96.99
95.17
92.25
88.68
84.66
80.21
75.25
69.82
64.08
58.20
52.20
45.93
39.03
31.14
22.05
11.73
0.49
-11.22
-22.99
-34.46
-45.50
-56.00
-65.82
-74.53
-81.62
-86.48
-88.72
-88.20
-85.02
-79.42
-71.57
-61.64
-49.86
-36.73
-23.12
-10.25
0.64
8.60
13.27
14.85
13.93
11.20
7.24
2.31
-3.34
-9.50
-15.62
-21.05
-24.99
-26.82
-26.26
-23.27
-17.90
-10.06
0.35
13.39
28.54
44.75
60.46
74.13
84.88
92.58
97.84
101.24
103.03
102.89
100.32
95.25
88.24
80.55
73.43
67.72
63.40
60.02
56.94
53.85
50.83
48.11
45.96
44.28
42.92
41.62
40.22
38.63
36.77
34.61
32.08
29.38
26.76
24.67
23.45
23.21
23.74
24.46
24.73
23.85
21.54
17.88
13.42
9.10
5.98
4.96
6.36
9.90
14.48
18.80
21.62
22.19
20.52
17.03
12.51
7.52
2.41
-2.91
-8.85
-15.97
-24.78
-35.29
-46.91
-58.20
-67.48
-73.16
-74.54
-71.98
-66.68
-60.29
-54.22
-49.47
-46.52
-45.57
-46.63
-49.46
-53.55
-58.01
-61.90
-64.40
-65.29
-64.81
-63.64
-62.44
-61.50
-60.60
-58.99
-55.94
-50.81
-43.61
-34.76
-25.03
-15.17
-5.71
2.91
10.52
16.79
21.56
24.83
26.82
28.00
28.83
29.69
30.61
31.56
32.40
33.13
33.85
34.61
35.35
35.77
35.53
34.28
31.92
28.47
24.25
19.66
15.09
10.84
6.90
3.06
-0.97
-5.33
-9.80
-13.72
-16.18
-16.57
-14.67
-10.97
-6.31
-1.54
2.88
6.98
11.00
15.18
19.30
22.88
25.19
25.76
24.63
22.31
19.67
17.45
16.11
15.62
15.76
16.29
17.15
18.49
20.31
22.48
24.53
25.94
26.27
25.40
23.54
20.99
18.09
14.81
11.02
6.42
0.89
-5.54
-12.56
-19.67
-26.33
-32.00
-36.33
-39.08
-40.20
-39.74
-37.76
-34.41
-29.76
-24.09
-17.76
-11.38
-5.59
-0.94
2.30
4.25
5.25
5.77
6.09
6.44
6.85
7.42
8.21
9.19
10.26
11.06
11.30
10.73
9.40
7.53
5.47
3.53
1.74
0.06
-1.77
-3.96
-6.67
-9.81
-13.05
-15.85
-17.48
-17.36
-15.20
-11.25
-6.09
-0.51
4.85
9.72
14.09
18.15
21.90
25.19
27.64
28.96
29.10
28.26
26.96
25.58
24.43
23.45
22.45
21.22
19.62
17.66
15.34
12.76
9.86
6.72
3.40
0.07
-3.08
-5.92
-8.40
-10.71
-13.04
-15.73
-18.87
-22.32
-25.59
-27.94
-28.67
-27.27
-23.75
-18.55
-12.49
-6.41
-0.94
3.65
7.39
10.33
12.50
13.75
14.01
13.29
11.91
10.51
9.68
9.92
11.16
13.00
14.67
15.48
15.03
13.29
10.64
7.49
4.30
1.23
-1.62
-4.24
-6.57
-8.46
-9.81
-10.55
-10.84
-10.83
-10.70
-10.40
-9.66
-8.10
-5.25
-0.90
4.89
11.51
18.23
24.28
29.23
33.08
36.09
38.76
41.27
43.66
45.56
46.58
46.36
44.67
41.48
36.80
30.84
23.85
16.31
8.75
1.72
-4.37
-9.42
-13.57
-17.25
-20.81
-24.60
-28.64
-32.78
-36.74
-40.17
-42.84
-44.66
-45.76
-46.34
-46.63
-46.61
-46.03
-44.50
-41.56
-37.08
-31.15
-24.25
-16.87
-9.53
-2.46
4.25
10.46
16.03
20.59
23.84
25.58
26.00
25.59
24.99
24.84
25.33
26.37
27.48
28.21
28.26
27.60
26.40
24.84
23.04
20.92
18.54
15.95
13.48
11.51
10.19
9.45
8.87
7.96
6.38
4.25
2.03
0.39
-0.11
0.67
2.51
4.84
7.18
9.30
11.33
13.61
16.38
19.62
22.76
25.05
25.62
23.98
20.21
14.96
9.25
4.06
0.12
-2.42
-3.70
-3.98
-3.31
-1.49
1.76
6.52
12.34
18.39
23.45
26.54
27.09
25.13
21.24
16.23
11.03
6.38
2.94
1.04
0.62
1.21
1.92
1.80
-0.05
-3.84
-9.22
-15.16
-20.42
-23.89
-24.96
-23.70
-20.70
-17.02
-13.60
-11.30
-10.55
-11.40
-13.70
-17.03
-21.12
-25.60
-30.30
-34.97
-39.46
-43.52
-46.93
-49.64
-51.61
-53.13
-54.42
-55.82
-57.47
-59.34
-61.21
-62.70
-63.42
-62.98
-61.16
-57.73
-52.64
-45.86
-37.45
-27.66
-16.80
-5.37
6.25
17.69
28.71
38.94
47.83
54.57
58.20
58.22
54.63
48.47
41.34
34.97
30.50
28.22
27.59
27.61
27.48
26.76
25.59
24.39
23.52
23.02
22.58
21.82
20.25
17.63
13.79
8.64
2.09
-5.96
-15.36
-25.63
-35.76
-44.54
-50.64
-53.27
-52.27
-48.22
-42.24
-35.47
-28.94
-23.15
-18.30
-14.23
-10.79
-7.91
-5.63
-4.15
-3.63
-4.21
-5.74
-7.88
-10.07
-11.63
-12.07
-11.04
-8.59
-4.87
-0.28
4.80
9.86
14.29
17.50
18.93
18.40
16.02
12.33
7.99
3.69
-0.01
-2.75
-4.33
-4.66
-3.68
-1.43
2.14
7.04
13.39
21.18
30.19
39.99
49.82
59.01
66.94
73.42
78.56
82.68
86.18
89.25
92.06
94.52
96.64
98.41
99.90
101.06
101.55
100.81
98.02
92.61
84.41
74.00
62.50
51.25
41.32
33.11
26.37
20.31
14.02
6.63
-2.53
-14.06
-28.41
-45.70
-65.47
-86.37
-106.37
-123.15
-134.93
-140.95
-141.65
-138.36
-132.52
-125.23
-116.97
-107.81
-97.85
-87.39
-76.94
-66.98
-57.77
-49.20
-41.07
-33.28
-25.96
-19.41
-13.91
-9.55
-6.14
-3.41
-1.03
1.14
3.16
4.96
6.45
7.58
8.26
8.48
8.24
7.63
6.78
5.81
4.84
3.74
2.36
0.45
-2.05
-5.02
-8.08
-10.65
-12.27
-12.65
-11.87
-10.20
-8.00
-5.43
-2.55
0.72
4.41
8.31
12.12
15.36
17.81
19.40
20.32
20.89
21.34
21.95
22.71
23.62
24.51
25.24
25.57
25.32
24.35
22.52
19.83
16.21
11.83
6.89
1.83
-2.77
-6.40
-8.77
-10.14
-11.05
-12.38
-14.72
-18.15
-22.09
-25.47
-27.21
-26.56
-23.52
-18.63
-12.81
-6.85
-1.18
4.14
9.31
14.37
19.19
23.28
26.20
27.65
27.71
26.86
25.67
24.67
23.97
23.46
22.73
21.51
19.71
17.43
14.95
12.47
10.10
7.75
5.32
2.73
-0.03
-2.80
-5.43
-7.81
-10.05
-12.35
-15.13
-18.56
-22.54
-26.59
-29.83
-31.48
-30.94
-28.32
-24.06
-19.03
-13.90
-9.09
-4.68
-0.54
3.32
6.81
9.55
11.20
11.49
10.43
8.22
5.17
1.76
-1.72
-4.98
-7.94
-10.59
-13.06
-15.50
-18.12
-21.13
-24.53
-28.27
-32.05
-35.49
-38.10
-39.41
-39.08
-36.99
-33.38
-28.57
-22.97
-16.57
-9.07
0.10
11.35
24.44
38.51
52.14
63.99
73.21
79.77
84.32
87.63
90.43
92.93
95.12
96.69
97.37
97.00
95.54
93.13
90.01
86.51
82.80
78.91
74.60
69.46
63.07
55.26
46.29
36.62
27.03
17.98
9.62
1.37
-7.91
-19.60
-34.91
-54.22
-76.90
-101.11
-124.24
-143.30
-155.59
-159.25
-153.80
-140.50
-122.00
-102.05
-84.33
-71.54
-64.70
-63.05
-64.92
-68.42
-72.38
-76.25
-79.85
-82.88
-84.93
-85.77
-85.75
-85.94
-87.39
-90.44
-93.89
-95.34
-92.12
-82.52
-66.73
-46.49
-24.33
-2.14
19.32
40.36
61.50
82.65
102.91
120.74
134.92
144.94
151.31
155.03
157.18
158.49
159.15
159.16
158.31
156.50
153.47
148.90
142.38
133.60
122.60
109.93
96.74
84.42
74.38
67.48
63.83
62.80
63.18
63.63
62.94
60.47
56.06
50.24
43.95
38.27
34.28
32.57
33.28
35.95
39.87
44.15
48.20
51.81
55.18
58.69
62.40
65.80
67.56
66.06
59.90
48.71
33.48
16.24
-0.50
-14.73
-25.43
-32.93
-38.73
-44.97
-53.86
-66.93
-84.60
-105.54
-127.08
-145.90
-159.34
-166.50
-168.36
-167.24
-165.26
-163.47
-161.16
-156.67
-148.26
-135.19
-118.07
-98.49
-78.39
-59.18
-41.42
-24.68
-8.11
9.08
27.02
44.72
60.29
71.47
76.82
76.51
72.51
67.61
64.22
63.30
64.12
65.24
65.49
64.84
64.14
64.27
65.30
66.20
65.45
61.79
55.17
46.56
37.59
29.60
23.13
17.76
12.32
5.56
-3.46
-14.67
-27.01
-38.72
-47.96
-53.63
-55.61
-54.74
-52.06
-48.40
-43.87
-38.23
-31.26
-23.17
-14.76
-7.09
-1.35
1.55
0.85
-3.81
-12.37
-24.16
-37.82
-51.67
-63.96
-73.60
-80.18
-83.99
-85.60
-85.54
-84.40
-82.79
-81.85
-82.83
-86.87
-94.18
-103.75
-113.28
-119.86
-121.08
-115.82
-104.93
-91.02
-78.00
-69.92
-69.80
-78.54
-94.37
-113.27
-130.00
-139.98
-140.61
-131.90
-116.04
-96.27
-75.80
-57.04
-41.70
-30.68
-24.34
-22.18
-22.77
-24.04
-23.73
-20.27
-13.10
-2.85
9.37
22.28
35.13
47.75
60.25
72.80
85.15
96.76
106.73
114.20
118.63
119.97
118.74
115.47
110.70
104.45
96.61
87.05
75.99
63.97
51.54
39.17
26.97
15.11
3.84
-6.31
-14.65
-20.63
-23.97
-24.89
-23.76
-21.08
-17.17
-12.33
-6.84
-1.13
4.29
9.01
12.72
15.38
17.00
17.59
17.18
15.76
13.59
11.06
8.75
7.14
6.58
7.17
8.88
11.59
15.05
18.87
22.42
25.00
26.00
25.11
22.56
18.81
14.44
9.74
4.92
0.07
-4.41
-7.82
-9.34
-8.35
-4.98
0.13
5.77
10.92
14.92
17.73
19.71
21.21
22.45
23.28
23.58
23.25
22.45
21.48
20.58
19.83
19.00
17.77
15.82
13.16
10.06
6.92
4.21
2.17
0.96
0.57
0.98
2.05
3.60
5.19
6.19
5.90
3.68
-0.59
-6.67
-13.77
-20.89
-27.02
-31.35
-33.39
-32.85
-29.86
-24.82
-18.47
-11.59
-4.89
1.21
6.67
11.66
16.51
21.36
26.35
31.49
36.88
42.69
49.04
55.86
62.61
68.62
73.03
75.35
75.50
73.94
71.36
68.35
65.17
61.42
56.41
49.34
39.89
28.30
15.35
1.97
-11.09
-23.42
-34.82
-44.95
-53.18
-58.56
-60.16
-57.63
-51.40
-42.70
-33.05
-23.87
-15.98
-9.63
-4.54
-0.28
3.39
6.55
8.91
10.27
10.50
9.75
8.29
6.35
4.05
1.21
-2.36
-6.91
-12.43
-18.76
-25.73
-33.10
-40.67
-48.08
-54.82
-60.01
-62.79
-62.41
-58.50
-51.30
-41.48
-30.18
-18.61
-7.91
1.15
8.29
13.66
17.81
21.38
25.02
29.13
33.92
39.35
45.32
51.68
58.28
65.05
71.81
78.31
83.90
87.78
89.03
87.07
81.84
73.91
64.24
53.74
43.09
32.67
22.90
14.26
7.45
3.16
1.59
2.42
4.69
7.15
8.64
8.38
6.12
1.96
-3.63
-10.23
-17.38
-24.76
-32.13
-39.23
-45.92
-52.05
-57.67
-62.96
-68.31
-73.98
-80.06
-86.18
-91.55
-95.26
-96.49
-95.01
-91.22
-86.22
-81.22
-77.22
-74.61
-73.12
-72.28
-71.72
-71.47
-71.42
-71.01
-68.91
-63.46
-53.47
-38.87
-20.94
-1.66
17.06
34.21
49.76
64.12
77.57
89.77
100.11
108.09
113.98
118.66
123.31
128.80
135.20
141.79
147.27
150.41
150.42
147.36
142.00
135.55
129.16
123.57
118.98
115.04
111.11
106.41
100.36
92.68
83.45
73.10
62.17
51.31
40.93
31.23
22.13
13.23
4.07
-5.97
-17.21
-29.76
-43.20
-56.72
-69.29
-79.99
-88.41
-94.56
-99.03
-102.45
-105.39
-108.03
-110.20
-111.52
-111.51
-109.90
-106.55
-101.70
-95.75
-89.26
-82.74
-76.56
-70.88
-65.76
-61.23
-57.17
-53.41
-49.57
-45.06
-39.34
-32.06
-23.44
-14.15
-5.20
2.57
8.73
13.35
16.92
19.90
22.61
25.02
26.95
28.20
28.78
28.88
28.79
28.82
29.10
29.69
30.39
31.12
31.72
32.16
32.41
32.37
31.88
30.55
28.10
24.30
19.35
13.73
8.16
3.31
-0.48
-3.25
-5.46
-7.57
-9.94
-12.66
-15.67
-18.78
-21.74
-24.24
-25.79
-25.87
-24.04
-20.20
-14.66
-8.13
-1.45
4.75
9.98
14.16
17.26
19.38
20.60
21.09
21.10
20.82
20.41
19.86
19.09
18.01
16.61
15.03
13.37
11.87
10.56
9.54
8.84
8.43
8.22
8.04
7.67
6.93
5.82
4.40
2.88
1.40
-0.00
-1.38
-2.82
-4.33
-5.98
-7.83
-10.08
-12.85
-16.08
-19.38
-22.00
-23.13
-22.12
-18.91
-13.98
-8.22
-2.59
2.24
5.98
8.83
11.06
12.91
14.39
15.35
15.59
15.10
14.16
13.11
12.34
11.96
11.86
11.78
11.49
10.94
10.22
9.58
9.10
8.75
8.28
7.44
6.02
4.04
1.74
-0.63
-2.77
-4.68
-6.51
-8.59
-11.27
-14.74
-18.93
-23.39
-27.55
-30.69
-32.30
-32.04
-29.89
-26.08
-21.05
-15.33
-9.40
-3.73
1.47
6.11
10.35
14.51
18.85
23.53
28.37
32.94
36.59
38.80
39.40
38.61
37.01
35.16
33.48
31.92
30.14
27.60
23.97
19.25
13.71
7.97
2.48
-2.31
-6.30
-9.56
-12.35
-14.96
-17.71
-21.03
-25.18
-30.44
-36.62
-43.19
-49.21
-53.58
-55.38
-54.19
-50.19
-44.04
-36.70
-29.00
-21.57
-14.73
-8.60
-3.25
1.27
4.89
7.63
9.46
10.47
10.68
10.10
8.82
6.95
4.77
2.57
0.76
-0.46
-1.03
-1.07
-0.89
-0.76
-0.95
-1.57
-2.70
-4.23
-6.05
-7.90
-9.42
-10.21
-9.78
-7.89
-4.46
0.15
5.40
10.61
15.29
19.37
23.09
27.03
31.49
36.42
41.21
44.96
46.93
46.77
44.76
41.44
37.54
33.48
29.40
25.13
20.44
15.22
9.55
3.75
-1.75
-6.42
-9.88
-11.92
-12.60
-12.18
-10.92
-9.17
-7.08
-4.88
-2.82
-1.17
-0.26
-0.25
-1.13
-2.63
-4.46
-6.25
-7.90
-9.51
-11.40
-14.00
-17.58
-22.16
-27.32
-32.41
-36.58
-39.25
-40.14
-39.38
-37.35
-34.35
-30.65
-26.23
-21.10
-15.36
-9.27
-3.22
2.47
7.52
11.75
14.95
16.87
17.33
16.43
14.70
13.00
12.41
13.54
16.50
20.73
25.22
29.03
31.44
32.20
31.30
29.01
25.51
21.01
15.80
10.18
4.57
-0.65
-5.23
-9.18
-12.59
-15.63
-18.23
-20.15
-20.92
-20.08
-17.52
-13.40
-8.33
-3.07
1.64
5.27
7.62
8.79
9.14
9.10
9.22
9.95
11.69
14.62
18.60
23.08
26.99
29.18
28.54
24.68
17.99
9.68
1.26
-6.01
-11.42
-14.94
-16.95
-18.00
-18.57
-19.06
-19.91
-21.54
-24.38
-28.55
-33.94
-39.95
-45.73
-50.34
-53.00
-53.36
-51.46
-47.85
-43.15
-38.05
-32.90
-27.82
-22.74
-17.51
-12.20
-6.92
-1.94
2.58
6.67
10.55
14.58
18.96
23.77
28.72
33.46
37.59
40.95
43.72
46.31
49.31
53.14
58.14
64.26
71.31
78.86
86.28
92.76
97.38
99.20
97.47
91.84
82.40
69.74
54.74
38.41
21.79
5.81
-8.68
-21.11
-31.17
-39.00
-45.10
-50.14
-54.72
-59.01
-62.80
-65.42
-66.28
-64.98
-61.56
-56.51
-50.40
-43.85
-37.24
-30.90
-24.94
-19.64
-15.22
-11.91
-9.86
-8.94
-8.97
-9.59
-10.55
-11.62
-12.67
-13.59
-14.29
-14.77
-15.00
-15.15
-15.30
-15.60
-16.09
-16.78
-17.72
-18.98
-20.74
-22.82
-24.96
-26.49
-26.74
-25.13
-21.54
-16.38
-10.33
-4.21
1.40
6.19
10.10
13.21
15.54
17.08
17.77
17.74
17.11
16.15
15.08
14.13
13.40
12.84
12.38
11.78
10.88
9.55
7.83
5.89
3.99
2.42
1.17
0.15
-0.97
-2.42
-4.34
-6.69
-9.40
-12.49
-15.94
-19.76
-23.68
-27.22
-29.71
-30.49
-29.23
-25.92
-21.00
-15.08
-8.84
-2.82
2.64
7.44
11.58
15.12
18.05
20.27
21.72
22.31
22.08
21.23
19.96
18.48
16.88
15.20
13.35
11.32
9.13
6.83
4.56
2.39
0.38
-1.50
-3.31
-5.12
-7.03
-9.10
-11.49
-14.24
-17.41
-20.78
-24.01
-26.46
-27.41
-26.29
-22.91
-17.71
-11.50
-5.32
0.10
4.45
7.93
11.00
13.97
16.97
19.74
22.00
23.44
24.09
24.15
23.89
23.55
23.22
22.95
22.71
22.53
22.44
22.44
22.49
22.39
21.92
20.72
18.68
15.78
12.25
8.49
4.85
1.60
-1.29
-4.06
-7.18
-11.05
-15.86
-21.42
-27.09
-31.96
-35.00
-35.65
-33.73
-29.76
-24.57
-19.07
-13.96
-9.53
-5.83
-2.73
-0.30
1.38
2.13
1.90
0.89
-0.64
-2.44
-4.63
-7.53
-11.79
-17.84
-25.67
-34.63
-43.54
-51.20
-56.67
-59.83
-61.17
-61.64
-62.12
-63.16
-64.85
-66.78
-68.42
-69.00
-67.84
-64.14
-57.33
-47.43
-35.44
-23.50
-14.25
-9.96
-11.32
-17.00
-24.06
-29.28
-30.46
-27.10
-20.32
-11.65
-2.29
7.22
16.58
25.09
31.64
35.27
36.24
36.46
39.16
47.53
63.24
85.63
111.83
138.01
160.67
177.86
189.31
195.87
198.47
197.23
191.32
179.44
160.91
136.27
107.41
76.91
47.17
19.85
-4.30
-25.01
-42.34
-56.39
-67.41
-75.69
-81.56
-85.41
-87.70
-89.11
-90.10
-90.51
-89.06
-83.57
-71.90
-53.30
-29.38
-3.83
18.94
35.76
45.74
50.31
51.89
52.56
53.50
54.95
57.17
60.54
65.60
72.36
80.06
87.22
92.02
93.06
89.54
81.61
69.98
56.01
41.22
27.01
14.30
3.19
-6.91
-17.04
-27.82
-39.19
-50.30
-59.86
-66.82
-70.77
-72.05
-71.31
-69.29
-66.46
-63.18
-59.74
-56.37
-53.34
-50.69
-48.46
-46.59
-45.09
-44.01
-43.34
-42.90
-42.34
-41.52
-40.41
-39.45
-39.23
-40.23
-42.51
-45.63
-48.99
-52.01
-54.71
-57.39
-60.57
-64.42
-68.63
-72.61
-75.79
-78.12
-79.80
-81.10
-81.63
-80.25
-75.45
-66.01
-51.95
-34.47
-15.61
2.73
19.38
34.15
47.42
59.43
70.18
79.15
85.91
90.19
92.19
92.36
91.17
89.08
86.27
83.03
79.53
76.13
73.21
71.15
70.19
70.09
70.31
69.83
67.71
63.18
56.03
46.54
35.26
22.89
9.93
-3.01
-15.27
-25.93
-34.15
-39.48
-42.27
-43.80
-45.89
-50.49
-58.76
-70.71
-85.13
-100.01
-113.37
-123.89
-131.51
-137.03
-141.83
-147.03
-152.97
-159.00
-163.37
-163.54
-156.45
-139.32
-110.51
-70.84
-24.08
23.67
65.62
96.78
115.32
123.13
124.26
123.24
123.33
125.99
131.27
138.37
146.40
154.34
161.44
167.07
170.92
172.98
173.37
172.31
169.95
166.61
162.70
158.50
153.52
146.27
134.89
118.25
97.19
74.58
54.38
39.72
31.39
27.50
24.52
19.12
9.42
-4.53
-21.48
-39.86
-58.50
-76.74
-93.94
-109.43
-122.32
-132.08
-138.56
-142.22
-143.77
-143.96
-143.48
-142.86
-142.64
-142.99
-143.73
-143.78
-141.52
-135.21
-123.72
-107.20
-86.98
-65.20
-43.97
-24.83
-8.52
4.84
15.34
23.24
28.70
31.86
32.53
30.29
24.54
15.01
2.45
-11.27
-23.25
-30.70
-31.85
-26.70
-17.11
-6.07
3.05
7.37
4.86
-4.87
-20.36
-37.96
-52.40
-58.21
-51.53
-31.82
-2.30
30.79
60.39
80.70
88.91
85.52
73.41
56.29
36.93
16.33
-6.32
-32.73
-64.21
-100.49
-138.99
-175.21
-203.54
-218.77
-217.20
-197.65
-161.89
-114.59
-62.74
-14.31
23.26
44.97
49.36
38.76
18.51
-4.68
-24.21
-35.18
-34.89
-23.21
-2.09
24.91
53.39
79.01
