1513747221.00
64.000000
-0.00
-0.00
-0.00
-0.00
-0.00
-0.00
-0.00
-0.00
-0.00
-0.00
0.00
0.01
0.01
-0.00
-0.03
-0.05
-0.05
0.00
0.13
0.36
0.66
1.01
1.37
1.72
2.06
2.40
2.79
3.24
3.80
4.42
5.06
5.66
6.20
6.68
7.15
7.68
8.31
9.14
10.09
11.04
11.88
12.56
13.14
13.76
14.65
15.96
17.91
20.32
22.90
25.38
27.58
29.57
31.68
34.32
37.81
42.54
48.15
54.10
59.83
64.97
69.58
74.14
79.34
85.71
93.76
103.00
112.62
121.73
129.77
136.75
143.30
150.75
157.77
166.64
177.95
191.79
206.97
220.57
228.25
225.36
208.53
176.87
132.76
80.05
23.07
-34.94
-92.44
-149.16
-205.23
-260.37
-313.74
-363.88
-409.84
-450.91
-486.50
-515.73
-537.21
-549.19
-549.91
-538.30
-514.11
-478.54
-433.71
-382.23
-326.75
-269.52
-212.25
-156.21
-102.43
-51.79
-5.24
36.32
72.24
102.25
126.49
145.47
159.88
170.45
177.79
182.30
184.26
183.92
181.53
177.45
172.08
165.85
159.08
152.04
144.85
137.61
130.33
123.09
115.93
108.93
102.16
95.67
89.51
83.67
78.18
73.04
68.27
63.87
59.86
56.23
52.99
50.11
47.60
45.46
43.68
42.27
41.21
40.51
40.14
40.03
40.12
40.30
40.43
40.35
39.89
38.86
37.14
34.62
31.26
27.09
22.15
16.59
10.59
4.38
-1.82
-7.79
-13.32
-18.28
-22.55
-26.06
-28.79
-30.75
-31.98
-32.52
-32.44
-31.79
-30.61
-28.95
-26.83
-24.29
-21.34
-18.05
-14.46
-10.57
-6.44
-2.08
2.47
7.19
12.07
17.00
21.93
26.76
31.46
36.00
40.35
44.56
48.65
52.74
56.77
60.74
64.69
68.68
72.77
77.06
81.62
86.59
92.09
98.01
104.28
110.83
117.61
124.52
131.50
138.47
145.37
152.13
158.39
163.80
168.08
170.94
172.06
171.05
167.45
160.52
151.76
141.82
131.17
120.23
109.33
98.77
88.75
79.47
71.06
63.67
57.08
51.12
45.67
40.65
35.99
31.72
27.89
24.62
22.05
20.11
18.75
17.90
17.51
17.46
17.65
17.96
18.25
18.44
18.26
17.50
15.97
13.56
10.17
5.82
0.61
-5.26
-11.48
-17.83
-24.07
-30.03
-35.62
-40.79
-45.50
-49.66
-53.10
-55.65
-57.17
-57.65
-57.19
-56.08
-54.65
-53.19
-51.86
-50.65
-49.44
-48.13
-46.79
-45.79
-45.72
-47.25
-50.86
-56.61
-64.08
-72.45
-80.80
-88.53
-95.66
-102.79
-110.90
-120.84
-132.99
-146.81
-161.14
-174.56
-186.04
-195.51
-204.14
-214.28
-228.50
-248.76
-275.24
-305.75
-335.98
-360.75
-375.88
-379.52
-372.88
-359.80
-345.66
-335.72
-333.71
-340.80
-355.00
-371.51
-383.80
-385.72
-373.66
-348.15
-313.48
-275.76
-240.12
-208.29
-178.42
-146.23
-107.90
-62.24
-11.40
39.90
86.18
122.49
145.69
154.32
148.48
129.74
101.08
67.10
33.28
5.32
-12.41
-17.81
-11.70
2.94
22.14
42.22
60.71
76.30
88.71
98.19
105.53
111.92
118.77
127.66
139.50
154.64
172.73
193.47
217.02
243.86
274.08
306.17
336.99
362.24
378.26
383.21
377.61
363.49
343.05
317.69
287.59
252.76
213.45
171.01
127.42
84.89
45.62
11.57
-15.43
-34.57
-46.06
-51.52
-53.11
-52.66
-51.08
-48.37
-44.82
-41.16
-38.56
-37.32
-36.13
-32.53
-24.43
-12.20
1.03
10.45
12.47
6.57
-4.14
-14.83
-21.90
-25.02
-27.55
-34.96
-53.00
-85.49
-133.17
-193.17
-259.10
-322.00
-371.84
-400.41
-403.34
-381.61
-340.59
-287.88
-230.45
-172.51
-115.27
-57.75
1.11
61.13
120.21
174.40
218.78
248.30
259.02
248.80
218.41
171.58
114.61
55.09
0.08
-45.42
-79.37
-102.28
-115.90
-121.81
-120.92
-113.96
-102.83
-91.72
-86.65
-93.62
-115.67
-151.03
-192.80
-231.41
-257.96
-267.09
-258.41
-235.01
-201.07
-159.25
-109.90
-52.41
12.20
79.11
140.30
187.25
215.18
225.91
227.55
230.75
243.32
267.08
297.98
329.63
357.16
379.30
397.05
410.54
416.74
409.45
382.51
333.15
264.61
185.48
106.86
38.48
-14.41
-51.64
-77.05
-95.50
-110.94
-125.31
-139.40
-154.14
-171.69
-195.44
-227.87
-268.29
-311.26
-348.10
-369.85
-371.00
-351.45
-315.49
-269.44
-218.25
-164.71
-109.69
-53.97
0.76
52.27
98.88
141.02
180.69
220.51
261.51
302.40
339.61
368.95
387.17
392.68
386.05
369.24
345.69
319.24
293.77
272.22
255.80
243.82
233.86
223.50
210.95
196.04
179.47
161.94
143.24
121.88
96.03
64.14
26.23
-16.10
-59.92
-101.97
-139.76
-172.08
-199.45
-223.37
-245.85
-267.83
-288.69
-305.50
-313.78
-309.29
-290.16
-259.05
-223.08
-191.98
-174.20
-173.58
-187.12
-206.01
-219.12
-217.11
-195.89
-157.28
-107.62
-54.75
-5.81
33.99
61.49
75.35
76.23
66.87
51.91
36.41
24.13
15.94
9.74
1.99
-10.18
-26.90
-45.61
-62.02
-72.44
-75.06
-70.06
-58.54
-41.27
-18.32
10.48
44.37
81.13
117.36
149.31
174.04
189.73
195.90
192.72
180.75
160.62
133.07
98.49
56.64
6.86
-51.03
-115.15
-180.69
-240.31
-286.47
-314.60
-325.29
-324.26
-319.84
-319.35
-326.29
-339.89
-356.69
-373.16
-387.58
-400.23
-412.23
-424.04
-434.72
-442.36
-445.20
-442.59
-435.16
-424.56
-412.27
-398.72
-382.95
-362.91
-336.21
-301.16
-257.38
-206.07
-149.64
-91.01
-33.01
22.16
72.87
117.97
156.46
187.39
209.84
223.18
227.31
222.83
210.99
193.44
171.97
148.18
123.38
98.51
74.34
51.48
30.54
12.05
-3.54
-15.97
-25.19
-31.27
-34.41
-34.80
-32.66
-28.24
-21.90
-14.16
-5.70
2.80
10.76
17.88
24.17
29.86
35.27
40.60
45.79
50.52
54.38
57.14
58.89
60.20
61.89
64.77
69.36
75.63
83.17
91.34
99.64
107.95
116.62
126.39
138.27
153.39
172.85
197.17
225.75
256.38
285.49
309.06
324.03
329.54
327.30
320.74
313.44
307.69
303.68
300.00
294.79
286.88
276.57
265.44
255.73
249.40
247.40
249.37
253.82
258.80
262.52
263.62
261.02
253.91
242.01
226.00
207.84
190.24
175.53
164.34
155.09
144.67
130.14
110.45
87.04
63.12
41.92
25.24
13.14
4.60
-1.21
-4.26
-3.56
2.00
12.96
28.69
47.50
66.92
84.57
98.77
108.88
115.30
118.73
119.69
117.75
111.51
98.97
78.05
46.80
3.57
-52.73
-121.79
-200.59
-282.66
-358.62
-418.36
-454.36
-464.27
-451.70
-424.52
-391.72
-360.35
-334.17
-314.16
-300.05
-291.69
-289.26
-292.63
-300.38
-309.70
-317.08
-319.56
-315.67
-305.52
-290.60
-272.69
-253.15
-232.59
-210.96
-188.02
-163.82
-139.21
-115.64
-94.87
-78.37
-66.87
-60.15
-57.14
-56.35
-56.25
-55.71
-54.01
-50.87
-46.22
-39.96
-31.95
-21.80
-9.10
6.61
25.45
47.25
71.38
96.95
123.04
148.78
173.66
197.33
219.76
240.95
261.20
281.09
301.38
322.80
345.15
367.00
385.44
397.02
398.82
389.64
370.58
344.59
315.54
286.72
260.30
237.02
216.81
199.27
183.98
170.51
158.14
146.12
133.61
120.32
106.49
92.74
79.77
68.08
58.11
49.95
43.79
39.11
34.89
29.66
22.42
13.31
3.18
-6.65
-15.72
-24.28
-32.92
-41.30
-47.58
-49.41
-45.29
-36.50
-26.57
-19.87
-18.71
-22.01
-25.80
-25.47
-18.58
-5.86
8.98
21.23
27.07
25.16
16.91
5.93
-3.40
-7.95
-6.25
1.07
12.72
27.60
45.61
67.00
90.88
114.50
133.01
141.66
137.53
121.26
96.48
67.73
38.54
10.04
-18.20
-47.08
-76.23
-104.02
-128.07
-146.43
-158.51
-165.15
-168.21
-169.34
-169.52
-168.54
-165.60
-159.97
-151.66
-142.02
-133.01
-126.75
-124.10
-124.34
-125.18
-123.50
-116.36
-101.38
-77.26
-43.39
-0.44
49.73
103.98
157.87
207.16
248.48
280.29
302.63
316.78
324.10
325.68
322.39
314.52
302.85
288.08
270.87
251.38
229.40
204.70
177.68
150.37
124.68
103.31
87.78
77.73
70.57
62.26
48.50
26.23
-4.10
-42.01
-83.33
-122.50
-153.58
-171.85
-175.06
-164.13
-142.99
-114.83
-87.89
-66.16
-51.55
-44.19
-43.33
-48.13
-57.62
-70.66
-82.07
-95.22
-110.48
-129.14
-151.98
-177.62
-201.52
-216.74
-216.61
-192.56
-151.21
-98.11
-40.47
15.82
68.03
116.40
162.63
175.58
193.49
207.68
213.75
207.36
186.01
150.56
105.29
56.92
11.86
-20.80
-45.58
-63.45
-74.70
-77.25
-67.33
-42.81
-6.52
32.36
64.64
74.55
57.16
16.98
-34.02
-81.74
-115.87
-133.11
-136.77
-130.66
-122.47
-114.01
-104.13
-91.39
-75.79
-59.18
-43.70
-30.11
-16.03
-0.53
17.50
37.01
55.03
68.43
75.57
77.03
74.80
71.17
66.47
60.28
51.85
41.02
28.64
16.13
4.67
-5.22
-13.70
-21.05
-27.29
-31.90
-34.32
-34.51
-33.44
-32.80
-34.13
-37.95
-43.21
-48.03
-50.62
-50.63
-49.36
-48.95
-51.25
-56.64
-63.93
-70.77
-74.85
-74.59
-69.57
-60.38
-48.26
-34.67
-20.85
-7.84
3.78
13.51
20.94
25.66
27.41
26.47
23.55
19.84
16.15
12.49
7.90
0.82
-9.92
-24.50
-41.61
-59.06
-74.21
-85.08
-90.83
-92.01
-90.34
-87.79
-85.87
-84.70
-83.19
-79.48
-72.18
-61.17
-47.85
-34.57
-23.14
-14.13
-6.42
1.57
10.79
20.47
28.50
32.61
31.61
26.21
18.25
9.93
2.56
-3.36
-7.55
-9.20
-6.76
0.90
13.43
28.23
41.34
48.99
49.41
43.41
33.59
22.94
13.37
5.47
-1.03
-6.32
-9.95
-11.08
-9.11
-4.38
1.87
7.80
11.89
13.21
11.89
8.90
5.69
3.82
4.27
7.42
12.93
20.33
29.29
39.85
52.16
65.78
79.60
91.73
100.28
104.05
102.91
97.55
88.98
78.16
66.32
55.98
51.36
57.58
78.16
112.25
153.15
189.50
209.27
204.00
171.94
117.90
50.94
-19.08
-84.09
-138.72
-180.26
-207.74
-221.72
-223.82
-216.69
-203.22
-186.04
-167.28
-148.44
-130.86
-115.41
-102.29
-90.71
-79.39
-67.36
-54.88
-43.64
-35.68
-32.33
-33.12
-36.18
-38.98
-39.73
-38.13
-34.98
-31.76
-29.43
-28.29
-27.82
-27.28
-26.11
-24.06
-21.44
-18.58
-16.09
-14.27
-13.28
-12.98
-12.97
-12.87
-12.35
-11.56
-10.69
-10.22
-10.27
-10.78
-11.41
-11.76
-11.72
-11.34
-11.06
-11.15
-11.93
-13.30
-15.02
-16.73
-17.98
-18.61
-18.45
-17.67
-16.35
-14.74
-12.93
-11.01
-9.03
-6.86
-4.49
-1.71
1.43
4.89
8.34
11.36
13.58
14.71
14.92
14.37
13.55
12.70
12.01
11.51
11.13
10.94
10.88
11.09
11.40
11.70
11.73
11.34
10.61
9.70
8.95
8.48
8.38
8.36
8.16
7.52
6.38
4.98
3.49
2.15
0.82
-0.66
-2.54
-4.80
-7.27
-9.67
-11.72
-13.40
-14.64
-15.53
-15.89
-15.55
-14.26
-11.95
-8.90
-5.45
-2.21
0.63
2.91
4.86
6.73
8.66
10.67
12.41
13.67
14.17
14.02
13.47
12.90
12.59
12.55
12.68
12.62
12.25
11.40
10.23
8.92
7.71
6.77
6.13
5.80
5.53
5.18
4.46
3.35
1.93
0.44
-0.81
-1.74
-2.32
-2.92
-3.76
-5.07
-6.69
-8.25
-9.38
-9.70
-9.29
-8.26
-7.01
-5.66
-4.25
-2.63
-0.68
1.53
3.83
5.78
7.13
7.69
7.61
7.13
6.57
6.20
5.98
5.88
5.66
5.31
4.83
4.39
4.15
4.08
4.20
4.27
4.27
4.10
3.95
3.92
4.17
4.72
5.38
5.99
6.17
5.82
4.81
3.35
1.71
0.20
-0.87
-1.55
-1.94
-2.39
-3.12
-4.33
-5.96
-7.84
-9.70
-11.15
-12.06
-12.23
-11.80
-10.83
-9.42
-7.62
-5.42
-2.97
-0.34
2.10
4.17
5.66
6.67
7.39
8.00
8.65
9.19
9.54
9.45
8.95
8.03
6.87
5.65
4.47
3.50
2.70
2.20
1.88
1.76
1.73
1.75
1.79
1.79
1.77
1.59
1.24
0.61
-0.21
-1.14
-2.03
-2.69
-3.14
-3.30
-3.36
-3.33
-3.34
-3.40
-3.56
-3.92
-4.46
-5.29
-6.28
-7.40
-8.44
-9.21
-9.48
-9.11
-8.12
-6.60
-4.92
-3.35
-2.19
-1.47
-1.05
-0.72
-0.20
0.46
1.22
1.78
2.06
2.07
2.02
2.16
2.56
3.17
3.66
3.81
3.38
2.53
1.53
0.79
0.60
0.94
1.64
2.26
2.54
2.32
1.80
1.28
1.05
1.28
1.81
2.45
2.83
2.86
2.50
1.92
1.32
0.75
0.28
-0.29
-0.99
-1.95
-3.08
-4.29
-5.34
-6.01
-6.18
-5.74
-4.90
-3.81
-2.81
-2.05
-1.57
-1.29
-0.98
-0.58
0.01
0.60
1.15
1.55
1.86
2.19
2.55
2.93
3.10
2.98
2.50
1.87
1.37
1.31
1.86
2.84
3.96
4.68
4.80
4.26
3.50
3.07
3.48
5.01
7.41
10.31
13.06
15.51
17.86
20.95
25.95
33.98
45.87
61.52
79.99
99.04
115.75
126.88
129.74
123.07
107.42
85.29
60.18
35.95
15.47
0.28
-9.57
-15.07
-17.50
-18.23
-18.15
-18.04
-18.34
-19.44
-21.36
-23.84
-26.45
-28.55
-29.94
-30.49
-30.56
-30.47
-30.54
-30.83
-31.18
-31.44
-31.30
-30.77
-29.79
-28.61
-27.42
-26.53
-26.09
-26.08
-26.43
-26.78
-27.01
-26.88
-26.40
-25.60
-24.56
-23.52
-22.60
-22.12
-22.10
-22.60
-23.42
-24.31
-24.97
-25.17
-24.88
-24.07
-23.01
-21.84
-20.92
-20.39
-20.36
-20.70
-21.05
-21.09
-20.45
-19.22
-17.55
-15.83
-14.23
-12.77
-11.29
-9.49
-7.37
-5.03
-2.99
-1.71
-1.63
-2.77
-4.79
-7.17
-9.26
-10.76
-11.56
-11.98
-12.32
-12.80
-13.39
-13.79
-13.78
-13.15
-12.11
-10.83
-9.63
-8.58
-7.66
-6.85
-6.11
-5.65
-5.47
-5.63
-5.88
-5.90
-5.46
-4.52
-3.40
-2.41
-1.95
-1.91
-2.08
-1.96
-1.31
-0.13
1.31
2.54
3.35
3.63
3.61
3.54
3.69
4.19
4.98
5.97
6.89
7.63
8.00
8.02
7.70
7.10
6.34
5.39
4.46
3.66
3.30
3.47
4.21
5.28
6.34
7.15
7.55
7.65
7.43
6.96
6.09
4.80
3.21
1.57
0.27
-0.59
-0.96
-1.13
-1.26
-1.48
-1.73
-1.91
-2.01
-1.98
-1.92
-1.70
-1.28
-0.63
0.00
0.14
-0.72
-2.94
-6.29
-10.20
-13.67
-15.91
-16.43
-15.18
-12.53
-8.93
-4.99
-1.09
2.31
4.96
6.67
7.51
7.68
7.39
6.91
6.29
5.64
4.98
4.60
4.73
5.57
7.11
8.93
10.60
11.58
11.81
11.47
11.17
11.52
12.88
15.25
18.01
20.34
21.22
20.08
16.91
12.45
7.99
4.85
4.02
5.57
8.83
12.28
14.36
13.91
10.68
5.61
0.42
-2.78
-2.51
1.66
8.51
15.41
18.86
15.39
2.90
-18.63
-46.43
-75.85
-101.21
-117.64
-122.34
-115.19
-98.79
-77.48
-56.56
-40.85
-33.84
-36.35
-46.11
-57.79
-64.31
-59.07
-37.66
0.67
53.82
117.56
186.55
254.14
312.68
354.84
375.84
376.13
361.77
342.73
328.57
324.72
331.03
343.17
356.16
367.01
375.65
383.36
390.81
396.78
398.67
394.09
382.04
363.44
340.14
314.37
287.75
261.14
234.58
207.40
179.05
149.18
118.37
87.72
58.58
31.66
6.53
-18.07
-43.87
-71.91
-102.35
-134.06
-165.30
-194.21
-219.71
-241.87
-261.90
-281.94
-304.09
-329.97
-359.44
-390.56
-419.67
-442.46
-455.10
-455.12
-442.03
-417.01
-382.96
-343.72
-303.54
-266.13
-233.71
-206.52
-182.95
-160.79
-138.29
-115.28
-92.73
-71.81
-52.43
-32.66
-9.51
19.55
54.54
92.83
129.40
159.19
178.71
187.06
185.83
177.50
164.63
148.62
130.44
110.63
89.95
69.25
48.86
28.70
8.29
-12.07
-31.12
-46.52
-56.29
-60.01
-59.33
-57.40
-56.96
-59.22
-63.05
-66.23
-66.61
-63.57
-57.79
-50.24
-41.41
-30.81
-18.29
-4.89
6.29
11.36
7.47
-5.32
-23.38
-41.37
-54.45
-61.16
-63.64
-66.53
-74.15
-88.39
-108.26
-130.92
-153.96
-176.02
-196.70
-214.71
-227.07
-229.62
-219.27
-196.62
-166.38
-135.91
-111.16
-93.91
-80.63
-65.00
-41.86
-10.29
25.38
58.24
81.96
94.13
96.75
94.93
93.95
96.49
101.75
105.55
103.07
90.80
68.38
38.43
5.03
-27.68
-56.88
-80.56
-97.53
-106.94
-109.26
-107.31
-106.51
-113.47
-132.47
-162.67
-196.72
-223.74
-234.14
-224.77
-200.91
-173.96
-156.26
-155.10
-169.89
-192.62
-211.94
-217.88
-205.42
-175.42
-132.89
-84.57
-36.04
9.17
49.38
83.55
110.09
126.72
131.27
123.52
106.15
84.63
65.26
52.84
48.63
50.19
52.56
50.46
40.54
22.62
-0.00
-21.49
-35.19
-36.01
-22.38
2.83
33.40
62.22
84.00
96.74
101.51
100.89
97.23
92.16
86.81
82.35
79.76
78.80
77.28
71.37
57.07
32.24
-2.17
-42.15
-82.21
-116.78
-141.67
-154.32
-154.21
-143.05
-124.90
-105.62
-91.24
-85.92
-90.09
-100.34
-110.83
-115.83
-112.06
-99.68
-81.66
-62.17
-44.98
-32.32
-24.99
-22.66
-24.43
-29.40
-37.04
-47.45
-61.14
-78.72
-100.07
-123.98
-148.14
-169.44
-184.74
-191.15
-186.69
-170.65
-144.35
-111.57
-78.16
-50.13
-31.09
-20.64
-14.54
-7.47
4.02
19.49
35.83
50.24
63.06
78.23
100.62
132.52
171.13
209.48
240.01
258.47
266.00
267.64
269.30
274.50
283.53
294.36
304.92
314.64
324.27
334.89
346.21
356.29
362.03
360.65
350.72
332.63
308.31
280.38
251.56
223.69
197.76
173.49
149.93
126.17
102.02
78.67
58.10
42.34
32.14
26.59
23.23
19.08
11.88
0.75
-13.62
-29.73
-45.65
-60.04
-72.26
-82.67
-92.61
-104.05
-119.16
-139.65
-166.33
-198.45
-233.77
-268.65
-298.61
-319.44
-328.29
-324.93
-311.72
-292.84
-272.38
-252.61
-233.17
-211.38
-184.00
-148.85
-106.19
-58.50
-9.56
37.07
78.87
114.40
142.96
163.82
176.26
179.80
174.66
161.84
142.85
119.51
94.05
69.44
49.00
35.74
30.88
32.62
36.08
34.89
24.14
2.82
-25.02
-51.89
-69.82
-73.78
-63.59
-43.70
-20.95
-1.76
10.13
14.33
12.73
7.73
0.55
-9.17
-22.34
-38.89
-56.93
-73.42
-85.78
-93.53
-98.23
-102.20
-106.34
-108.94
-106.43
-95.68
-76.51
-52.52
-30.02
-15.29
-12.02
-19.89
-35.05
-51.79
-64.40
-68.77
-62.96
-47.50
-24.85
1.19
26.50
47.60
62.38
70.26
71.80
68.26
61.14
52.36
44.51
40.61
43.20
52.64
65.95
76.65
76.74
59.95
24.84
-24.23
-78.75
-129.67
-170.80
-199.92
-217.68
-225.08
-222.48
-209.90
-188.88
-163.46
-139.60
-123.09
-117.03
-120.92
-131.35
-144.01
-155.62
-164.61
-170.47
-172.68
-170.55
-163.57
-152.29
-138.43
-124.47
-112.70
-104.43
-99.50
-96.14
-91.17
-80.42
-59.96
-27.28
17.31
70.17
125.09
175.00
214.59
241.74
258.08
267.26
272.68
275.59
274.81
268.38
255.30
236.95
216.72
198.23
183.41
171.55
160.03
146.15
129.00
110.10
92.72
79.85
72.63
69.71
68.01
64.43
57.13
46.05
32.16
16.69
0.60
-15.18
-29.22
-39.38
-43.33
-39.80
-29.55
-15.49
-1.62
8.35
12.28
9.94
2.48
-8.14
-19.64
-29.61
-35.69
-36.06
-30.11
-18.81
-4.40
10.27
22.98
32.48
38.60
41.67
41.98
39.80
35.61
30.47
25.84
23.30
23.64
26.64
30.94
34.61
35.98
34.22
29.85
24.53
20.61
20.46
25.88
37.70
55.54
77.56
100.15
118.49
127.56
124.00
107.64
82.17
54.13
30.36
15.45
9.92
10.69
12.86
12.16
6.53
-3.86
-17.50
-33.00
-49.66
-67.45
-86.14
-104.77
-121.37
-133.51
-139.15
-137.55
-129.90
-118.77
-107.42
-98.35
-92.50
-88.87
-85.04
-78.27
-66.61
-49.61
-28.26
-4.61
19.07
40.95
59.96
75.88
89.01
99.82
108.41
114.45
117.09
115.45
109.17
98.77
85.75
71.90
58.84
47.24
36.90
27.08
17.17
7.11
-2.60
-11.14
-17.87
-22.46
-24.88
-25.17
-23.31
-19.12
-12.16
-1.96
11.83
28.79
47.56
65.78
80.83
90.70
94.70
93.65
89.01
82.09
73.28
62.22
48.48
32.39
15.27
-0.99
-14.65
-24.91
-31.80
-35.93
-37.86
-37.87
-36.06
-32.54
-27.82
-22.65
-18.02
-14.70
-12.97
-12.70
-13.36
-14.42
-15.46
-16.39
-17.23
-18.16
-19.19
-20.18
-20.99
-21.42
-21.41
-20.95
-20.11
-18.90
-17.37
-15.50
-13.21
-10.50
-7.31
-3.75
0.06
3.86
7.41
10.53
13.19
15.60
18.01
20.68
23.50
26.16
28.21
29.34
29.56
29.15
28.44
27.50
26.16
24.02
20.82
16.66
11.99
7.52
3.77
0.98
-1.07
-2.70
-4.34
-6.25
-8.46
-10.89
-13.29
-15.47
-17.13
-18.14
-18.37
-17.85
-16.63
-14.75
-12.34
-9.45
-6.26
-2.95
0.23
3.12
5.59
7.61
9.18
10.22
10.57
10.01
8.41
5.86
2.76
-0.24
-2.52
-3.63
-3.63
-2.83
-1.81
-1.01
-0.68
-0.76
-1.01
-1.24
-1.33
-1.35
-1.42
-1.68
-2.18
-2.91
-3.79
-4.73
-5.70
-6.71
-7.89
-9.31
-10.97
-12.67
-14.02
-14.64
-14.23
-12.78
-10.41
-7.47
-4.18
-0.75
2.78
6.40
9.99
13.38
16.25
18.31
19.30
19.20
18.14
16.47
14.64
12.93
11.51
10.28
9.07
7.69
6.08
4.25
2.29
0.33
-1.58
-3.27
-4.65
-5.60
-6.12
-6.34
-6.45
-6.66
-7.03
-7.57
-8.18
-8.89
-9.78
-10.93
-12.31
-13.65
-14.68
-15.04
-14.64
-13.57
-12.11
-10.53
-8.91
-7.31
-5.62
-3.84
-1.96
-0.05
1.92
3.98
6.21
8.67
11.22
13.67
15.68
17.06
17.68
17.65
17.18
16.44
15.52
14.29
12.64
10.45
7.85
5.12
2.65
0.77
-0.48
-1.25
-1.91
-2.73
-3.88
-5.33
-6.92
-8.57
-10.21
-11.88
-13.44
-14.71
-15.30
-14.86
-13.26
-10.60
-7.31
-3.86
-0.66
2.16
4.61
6.87
9.08
11.23
13.32
15.24
16.96
18.42
19.54
20.09
19.85
18.62
16.36
13.31
9.83
6.47
3.64
1.65
0.51
0.10
0.19
0.52
0.94
1.28
1.43
1.30
0.87
0.20
-0.56
-1.25
-1.90
-2.60
-3.64
-5.19
-7.23
-9.45
-11.33
-12.39
-12.38
-11.44
-9.87
-8.10
-6.33
-4.63
-2.87
-0.87
1.39
3.89
6.39
8.66
10.35
11.26
11.30
10.59
9.48
8.31
7.41
6.85
6.51
6.19
5.74
5.23
4.81
4.71
4.89
5.23
5.35
4.99
4.08
2.78
1.43
0.26
-0.61
-1.39
-2.27
-3.44
-4.81
-6.12
-7.08
-7.56
-7.76
-7.96
-8.55
-9.58
-10.78
-11.66
-11.68
-10.61
-8.57
-6.06
-3.59
-1.54
0.07
1.48
2.95
4.58
6.19
7.51
8.28
8.49
8.33
8.07
7.96
8.01
8.17
8.24
8.15
7.85
7.42
6.90
6.35
5.83
5.27
4.65
3.86
2.89
1.73
0.47
-0.80
-1.99
-3.09
-4.23
-5.42
-6.70
-7.95
-9.07
-9.94
-10.54
-10.90
-10.94
-10.61
-9.68
-8.09
-5.92
-3.51
-1.30
0.39
1.51
2.34
3.24
4.55
6.30
8.28
10.15
11.51
12.12
11.79
10.53
8.41
5.74
2.96
0.57
-1.02
-1.75
-1.81
-1.66
-1.63
-1.90
-2.37
-2.87
-3.23
-3.33
-3.17
-2.70
-2.02
-1.22
-0.58
-0.35
-0.76
-1.86
-3.43
-5.19
-6.70
-7.71
-8.00
-7.56
-6.49
-4.93
-3.16
-1.36
0.27
1.68
2.87
3.97
5.12
6.41
7.89
9.41
10.81
11.74
11.97
11.39
10.13
8.57
7.11
6.12
5.63
5.50
5.40
5.05
4.34
3.39
2.48
1.80
1.49
1.33
1.08
0.45
-0.58
-1.80
-2.87
-3.51
-3.69
-3.60
-3.62
-3.98
-4.76
-5.79
-6.80
-7.55
-7.83
-7.63
-6.91
-5.76
-4.25
-2.54
-0.89
0.53
1.53
2.14
2.50
2.79
3.12
3.46
3.69
3.67
3.47
3.18
3.01
2.93
2.85
2.52
1.81
0.82
-0.23
-1.01
-1.45
-1.61
-1.76
-2.06
-2.49
-2.89
-3.04
-2.93
-2.62
-2.42
-2.55
-3.09
-3.89
-4.68
-5.29
-5.63
-6.00
-6.75
-8.30
-10.77
-13.98
-17.46
-20.58
-22.91
-24.20
-24.59
-24.36
-23.94
-23.75
-24.23
-25.70
-28.27
-31.70
-35.21
-37.74
-38.29
-36.46
-32.66
-28.14
-24.43
-22.65
-23.31
-26.07
-30.28
-35.39
-41.32
-48.36
-56.81
-66.71
-77.43
-88.09
-97.62
-105.22
-110.37
-112.75
-112.07
-107.87
-99.68
-87.05
-70.00
-49.02
-25.25
-0.18
24.58
47.61
67.88
84.74
97.99
107.58
113.74
116.73
116.97
115.04
111.52
107.10
102.31
97.52
92.82
88.14
83.33
78.29
73.07
67.80
62.66
57.64
52.73
47.82
42.90
38.12
33.70
29.84
26.48
23.42
20.32
17.03
13.60
10.36
7.71
5.86
4.83
4.28
3.87
3.22
2.21
0.94
-0.37
-1.42
-2.12
-2.41
-2.47
-2.47
-2.63
-3.07
-3.79
-4.73
-5.70
-6.53
-6.95
-6.81
-6.03
-4.73
-3.09
-1.34
0.30
1.77
3.01
4.10
4.99
5.70
6.23
6.55
6.67
6.49
5.98
5.05
3.82
2.50
1.39
0.79
0.76
1.16
1.65
1.90
1.70
1.15
0.42
-0.24
-0.70
-1.00
-1.22
-1.49
-1.84
-2.28
-2.79
-3.31
-3.83
-4.29
-4.70
-5.07
-5.47
-5.94
-6.53
-7.18
-7.79
-8.26
-8.47
-8.43
-8.09
-7.49
-6.59
-5.42
-4.05
-2.63
-1.35
-0.30
0.44
0.99
1.41
1.76
2.04
2.21
2.25
2.16
2.06
1.99
2.00
2.01
1.94
1.74
1.46
1.25
1.20
1.45
1.93
2.54
3.13
3.56
3.74
3.56
3.00
2.06
0.85
-0.40
-1.37
-1.83
-1.66
-0.93
0.02
0.88
1.31
1.18
0.47
-0.68
-2.07
-3.48
-4.66
-5.40
-5.48
-4.91
-3.80
-2.41
-1.06
0.03
0.75
1.20
1.46
1.65
1.72
1.60
1.18
0.42
-0.58
-1.69
-2.77
-3.76
-4.57
-5.19
-5.59
-5.69
-5.44
-4.83
-3.99
-3.09
-2.42
-2.14
-2.35
-2.96
-3.76
-4.52
-4.98
-5.06
-4.77
-4.36
-4.11
-4.29
-4.99
-6.02
-7.10
-7.89
-8.29
-8.35
-8.34
-8.41
-8.49
-8.35
-7.66
-6.32
-4.46
-2.54
-0.94
0.07
0.51
0.66
0.75
0.94
1.14
1.28
1.30
1.39
1.85
2.99
4.91
7.34
9.74
11.39
11.81
10.87
8.93
6.64
4.68
3.56
3.30
3.71
4.36
4.95
5.31
5.43
5.32
4.90
4.04
2.63
0.79
-1.27
-3.14
-4.53
-5.36
-5.72
-5.93
-6.23
-6.79
-7.55
-8.32
-8.81
-8.78
-8.09
-6.77
-5.05
-3.25
-1.75
-0.77
-0.35
-0.28
-0.21
0.11
0.80
1.70
2.60
3.27
3.69
3.94
4.13
4.31
4.36
4.21
3.80
3.33
3.01
2.99
3.28
3.67
3.95
3.96
3.74
3.37
2.96
2.53
2.04
1.50
0.96
0.55
0.30
0.18
-0.03
-0.51
-1.35
-2.41
-3.41
-4.13
-4.41
-4.40
-4.29
-4.30
-4.48
-4.69
-4.75
-4.47
-3.89
-3.11
-2.32
-1.58
-0.86
0.03
1.25
2.76
4.43
5.90
6.87
7.16
6.83
6.10
5.25
4.56
4.11
3.90
3.76
3.56
3.19
2.63
1.92
1.08
0.10
-1.09
-2.43
-3.86
-5.15
-6.08
-6.56
-6.59
-6.38
-6.14
-6.14
-6.48
-7.24
-8.36
-9.71
-11.07
-12.10
-12.48
-11.94
-10.59
-8.73
-6.80
-5.16
-3.86
-2.76
-1.59
-0.32
0.97
2.01
2.65
2.92
3.03
3.26
3.61
3.96
3.98
3.49
2.50
1.30
0.28
-0.33
-0.45
-0.31
-0.09
-0.04
-0.19
-0.50
-0.89
-1.28
-1.71
-2.13
-2.56
-2.83
-2.83
-2.49
-1.90
-1.30
-0.96
-1.09
-1.65
-2.51
-3.43
-4.31
-5.15
-6.05
-7.05
-8.01
-8.77
-9.13
-9.09
-8.79
-8.42
-8.08
-7.64
-6.90
-5.57
-3.61
-1.15
1.42
3.73
5.49
6.60
7.19
7.45
7.65
7.94
8.40
8.91
9.30
9.38
9.04
8.38
7.54
6.74
6.00
5.29
4.42
3.34
2.12
0.98
0.21
-0.11
-0.07
0.02
-0.09
-0.57
-1.37
-2.27
-3.15
-3.88
-4.55
-5.19
-5.83
-6.32
-6.46
-6.08
-5.11
-3.69
-2.03
-0.39
1.11
2.48
3.82
5.25
6.74
8.15
9.18
9.66
9.51
8.87
8.02
7.19
6.55
6.02
5.45
4.63
3.49
2.10
0.63
-0.73
-1.95
-3.10
-4.39
-5.93
-7.63
-9.20
-10.23
-10.41
-9.70
-8.41
-6.97
-5.86
-5.27
-5.22
-5.51
-5.95
-6.46
-6.97
-7.53
-8.02
-8.40
-8.52
-8.30
-7.70
-6.68
-5.30
-3.66
-2.05
-0.68
0.18
0.51
0.44
0.22
0.14
0.29
0.68
1.15
1.66
2.12
2.53
2.86
3.02
2.99
2.74
2.45
2.20
2.15
2.29
2.58
2.97
3.38
3.86
4.36
4.89
5.34
5.63
5.65
5.37
4.86
4.23
3.58
2.87
2.03
0.87
-0.69
-2.57
-4.59
-6.43
-7.88
-8.78
-9.17
-9.06
-8.48
-7.43
-5.88
-3.92
-1.66
0.63
2.77
4.56
5.97
6.97
7.60
7.87
7.74
7.23
6.22
4.76
2.88
0.78
-1.24
-2.83
-3.68
-3.75
-3.16
-2.27
-1.44
-0.97
-0.95
-1.28
-1.77
-2.19
-2.48
-2.55
-2.48
-2.26
-1.94
-1.58
-1.28
-1.26
-1.63
-2.53
-3.87
-5.52
-7.12
-8.32
-8.79
-8.33
-7.07
-5.30
-3.45
-1.86
-0.70
0.14
0.92
1.87
3.14
4.62
6.19
7.55
8.57
9.14
9.26
9.11
8.86
8.81
9.06
9.59
10.10
10.29
9.94
9.12
8.19
7.55
7.58
8.31
9.57
11.05
12.45
13.51
13.94
13.55
12.14
9.91
7.38
5.44
4.96
6.30
9.03
11.88
13.48
12.74
9.60
4.84
-0.28
-4.60
-7.58
-9.23
-9.99
-10.10
-9.67
-8.63
-7.06
-5.38
-4.20
-4.14
-5.37
-7.71
-10.61
-13.59
-16.38
-18.95
-21.30
-23.26
-24.66
-25.35
-25.50
-25.28
-24.68
-23.15
-19.77
-13.87
-5.54
3.90
12.35
17.70
18.82
15.95
10.47
4.26
-1.19
-5.04
-7.21
-7.89
-7.35
-5.78
-3.20
0.28
4.56
9.29
13.95
17.74
19.89
19.89
17.79
14.27
10.37
7.08
4.76
3.09
1.17
-1.92
-6.62
-12.65
-19.08
-24.76
-28.62
-30.13
-29.18
-26.04
-21.20
-15.32
-9.26
-4.03
-0.73
-0.24
-2.96
-8.49
-15.66
-22.67
-27.58
-28.78
-25.49
-18.04
-7.76
3.29
12.98
19.69
22.58
21.78
18.01
12.53
6.62
1.59
-1.65
-2.81
-2.46
-2.06
-3.51
-8.38
-16.86
-27.22
-36.06
-39.58
-35.19
-22.87
-5.55
12.01
24.90
30.07
27.25
18.85
8.72
0.54
-3.33
-2.38
2.65
10.37
19.68
29.83
40.22
49.94
57.48
61.01
58.87
50.61
37.34
21.59
6.35
-5.71
-12.77
-13.91
-8.82
2.00
16.99
33.14
46.52
53.39
51.83
42.72
29.39
16.38
7.53
4.97
8.88
18.13
30.94
45.17
58.35
67.74
71.10
67.49
57.89
45.02
32.28
22.63
17.56
16.96
19.31
22.26
23.11
19.73
11.58
0.51
-9.26
-12.70
-6.34
9.39
29.46
45.71
50.10
38.14
10.84
-25.74
-63.10
-93.56
-112.76
-120.30
-118.65
-111.28
-100.94
-89.00
-75.66
-61.09
-46.24
-33.22
-24.62
-22.24
-25.99
-33.58
-41.51
-46.45
-46.67
-42.28
-34.66
-25.25
-14.78
-3.40
8.66
20.20
29.08
32.86
30.06
21.03
8.24
-4.41
-12.86
-13.96
-6.45
8.83
29.02
49.88
66.77
75.87
75.38
65.99
50.75
33.97
19.80
10.88
7.65
8.63
11.01
11.89
8.95
1.24
-10.72
-24.77
-37.43
-44.75
-43.48
-32.60
-14.03
7.36
25.35
34.42
32.00
19.32
0.76
-18.03
-32.68
-41.52
-45.72
-47.70
-49.31
-50.31
-48.56
-41.68
-28.90
-12.59
2.57
11.52
11.54
3.71
-7.66
-17.26
-21.72
-21.02
-18.21
-17.01
-19.44
-24.34
-28.09
-26.73
-18.22
-3.79
12.85
27.14
35.99
38.76
37.08
33.72
31.07
30.43
31.81
34.62
38.02
41.34
43.94
45.11
44.11
40.24
33.24
23.44
11.96
0.43
-9.38
-15.92
-18.37
-16.67
-11.62
-4.38
3.73
11.69
18.82
24.65
28.78
30.66
29.73
25.47
17.80
7.29
-4.66
-15.96
-24.26
-27.64
-25.48
-18.86
-10.53
-3.98
-2.26
-6.74
-16.60
-29.24
-41.29
-49.96
-53.75
-52.71
-47.98
-41.16
-33.82
-27.16
-22.05
-18.98
-18.10
-18.97
-20.73
-22.22
-22.41
-20.96
-18.36
-15.76
-14.21
-13.99
-14.06
-12.50
-7.26
2.84
17.33
34.14
50.15
62.31
68.34
67.30
59.66
47.04
31.87
16.84
4.40
-3.88
-7.50
-7.13
-4.18
-0.23
3.40
5.99
7.30
7.54
6.99
5.95
4.67
3.33
2.18
1.49
1.68
3.15
6.38
11.45
17.86
24.39
29.22
30.61
27.37
19.57
8.45
-3.85
-14.98
-23.04
-26.92
-26.47
-22.31
-15.68
-8.03
-0.88
4.60
7.71
8.32
6.82
3.85
0.35
-2.76
-4.58
-4.65
-3.05
-0.51
1.82
2.98
2.42
0.46
-2.24
-4.95
-7.53
-10.34
-14.05
-19.17
-25.63
-32.91
-40.12
-46.53
-51.60
-55.16
-57.23
-57.86
-57.22
-55.42
-52.81
-49.72
-46.57
-43.56
-40.73
-38.02
-35.27
-32.42
-29.30
-25.86
-21.98
-17.58
-12.69
-7.38
-1.94
3.35
8.08
11.93
14.40
15.06
13.58
10.02
5.10
-0.07
-4.12
-6.18
-6.07
-4.48
-2.45
-0.78
0.34
1.59
3.90
8.16
14.47
22.30
30.53
37.97
43.83
47.69
49.69
50.06
49.13
47.03
43.91
39.97
35.46
30.85
26.38
22.25
18.29
14.26
9.96
5.51
1.39
-1.87
-3.70
-4.02
-2.89
-0.67
2.18
5.02
7.06
7.69
6.62
4.17
0.91
-2.55
-6.17
-10.49
-16.38
-24.53
-34.82
-46.47
-58.08
-68.50
-76.82
-82.63
-85.58
-85.06
-80.26
-70.37
-55.34
-36.18
-15.36
3.75
17.72
24.22
23.12
16.36
7.39
-0.23
-3.96
-2.98
2.15
9.92
18.30
24.99
27.14
22.39
9.71
-9.02
-28.87
-43.11
-45.77
-34.22
-10.09
21.43
54.37
84.37
110.01
132.38
153.42
174.42
195.09
213.87
228.48
236.87
237.50
229.71
213.90
191.62
165.36
138.11
112.63
90.41
71.60
54.98
38.78
21.72
3.48
-15.02
-32.10
-45.87
-54.81
-57.95
-55.06
-46.57
-33.41
-17.30
-0.46
14.62
25.82
31.98
33.15
30.48
25.67
20.56
16.47
14.07
13.06
12.19
9.52
3.09
-8.07
-23.28
-40.01
-54.80
-64.66
-68.49
-67.62
-65.22
-64.89
-69.08
-78.33
-91.34
-105.86
-119.48
-130.15
-136.31
-136.93
-131.96
-122.65
-111.79
-102.74
-98.11
-98.22
-100.61
-100.88
-94.72
-80.04
-57.93
-32.39
-8.50
9.50
19.59
22.23
19.48
14.10
8.44
4.17
1.89
1.31
1.36
0.64
-2.01
-6.95
-13.46
-20.06
-24.98
-27.04
-26.05
-22.81
-18.84
-15.68
-14.35
-15.13
-17.64
-21.05
-24.48
-27.16
-28.47
-27.88
-24.96
-19.58
-12.19
-4.07
2.76
6.11
4.48
-2.29
-12.82
-24.61
-34.96
-41.88
-44.60
-43.47
-39.57
-34.21
-28.54
-23.45
-19.54
-16.98
-15.49
-14.40
-12.71
-9.54
-4.29
3.02
11.70
20.63
28.64
34.89
39.07
41.63
43.40
45.31
47.93
50.99
53.58
54.43
52.74
48.66
43.16
37.49
32.26
27.08
20.91
12.91
3.23
-6.79
-15.12
-19.99
-20.89
-18.77
-15.53
-13.20
-12.91
-14.59
-17.33
-20.08
-22.34
-24.25
-26.28
-28.67
-31.10
-32.54
-31.77
-28.00
-21.30
-12.90
-4.71
1.40
4.38
4.53
3.31
2.77
4.60
9.51
16.89
25.23
32.92
38.81
42.56
44.29
44.15
41.98
37.46
30.56
21.85
12.48
3.65
-3.80
-9.85
-15.01
-19.83
-24.47
-28.48
-31.07
-31.60
-29.99
-26.77
-22.91
-19.32
-16.52
-14.52
-12.98
-11.49
-9.77
-7.74
-5.43
-3.03
-0.73
1.24
2.69
3.54
3.87
3.90
3.84
3.86
3.87
3.66
3.02
1.89
0.52
-0.70
-1.34
-1.28
-0.71
-0.08
0.20
0.05
-0.38
-0.72
-0.79
-0.65
-0.52
-0.57
-0.77
-0.96
-1.05
-1.18
-1.55
-2.25
-2.96
-3.08
-2.01
0.41
3.72
6.99
9.26
10.05
9.57
8.60
7.98
8.19
9.02
9.75
9.61
8.16
5.72
3.07
1.20
0.71
1.48
2.79
3.73
3.76
2.94
1.85
1.13
1.13
1.69
2.33
2.54
2.04
0.92
-0.45
-1.59
-2.21
-2.18
-1.67
-0.98
-0.37
-0.01
0.11
0.06
-0.07
-0.30
-0.62
-0.98
-1.18
-0.91
0.01
1.58
3.47
5.15
6.16
6.32
5.83
5.12
4.66
4.62
4.87
5.01
4.71
3.84
2.61
1.52
0.98
1.28
2.16
3.15
3.63
3.26
2.13
0.68
-0.48
-1.00
-0.87
-0.51
-0.38
-0.82
-1.81
-3.03
-4.04
-4.50
-4.29
-3.50
-2.44
-1.36
-0.49
0.07
0.38
0.51
0.62
0.77
1.00
1.24
1.41
1.44
1.27
0.94
0.47
-0.05
-0.60
-1.14
-1.61
-1.97
-2.16
-2.20
-2.09
-1.94
-1.85
-1.97
-2.40
-3.12
-4.01
-4.83
-5.36
-5.37
-4.85
-3.86
-2.66
-1.53
-0.72
-0.40
-0.62
-1.36
-2.50
-3.88
-5.22
-6.17
-6.38
-5.54
-3.62
-0.87
2.17
4.91
6.84
7.76
7.71
6.96
5.87
4.70
3.68
2.92
2.48
2.38
2.58
2.98
3.40
3.71
3.87
4.04
4.44
5.24
6.38
7.55
8.37
8.52
8.03
7.10
6.14
5.46
5.15
5.15
5.30
5.51
5.69
5.85
5.83
5.54
4.84
3.66
2.04
0.04
-2.21
-4.49
-6.47
-7.80
-8.19
-7.57
-6.15
-4.33
-2.54
-1.00
0.22
1.25
2.16
2.97
3.62
3.99
4.08
3.92
3.67
3.41
3.21
3.06
2.88
2.65
2.34
2.03
1.78
1.71
1.88
2.26
2.77
3.24
3.48
3.29
2.65
1.60
0.38
-0.76
-1.60
-2.05
-2.23
-2.31
-2.51
-2.92
-3.59
-4.40
-5.25
-6.00
-6.46
-6.47
-5.93
-4.93
-3.63
-2.32
-1.21
-0.34
0.37
1.01
1.55
1.91
1.96
1.73
1.39
1.21
1.32
1.62
1.89
1.82
1.33
0.54
-0.20
-0.53
-0.23
0.69
1.93
3.09
3.72
3.60
2.81
1.65
0.57
-0.11
-0.31
-0.30
-0.42
-0.95
-1.86
-2.90
-3.73
-4.18
-4.33
-4.37
-4.51
-4.70
-4.76
-4.44
-3.64
-2.53
-1.42
-0.61
-0.18
-0.02
0.20
0.65
1.36
2.16
2.82
3.26
3.50
3.65
3.74
3.70
3.40
2.80
2.06
1.53
1.61
2.45
3.90
5.48
6.59
6.76
5.85
4.11
2.03
0.16
-1.16
-1.82
-1.98
-1.92
-1.92
-2.22
-2.87
-3.82
-4.89
-5.85
-6.48
-6.70
-6.59
-6.30
-6.02
-5.81
-5.66
-5.44
-5.02
-4.35
-3.45
-2.41
-1.32
-0.36
0.42
0.90
1.08
1.00
0.80
0.64
0.59
0.67
0.66
0.45
-0.08
-0.85
-1.67
-2.31
-2.53
-2.27
-1.55
-0.58
0.42
1.17
1.53
1.46
1.09
0.64
0.29
0.17
0.17
0.14
-0.08
-0.56
-1.17
-1.75
-2.04
-2.01
-1.70
-1.32
-1.05
-0.90
-0.72
-0.27
0.60
1.89
3.34
4.59
5.32
5.44
5.11
4.62
4.28
4.11
3.98
3.56
2.65
1.26
-0.37
-1.81
-2.67
-2.71
-2.01
-0.80
0.56
1.76
2.70
3.43
4.14
5.08
6.47
8.32
10.50
12.61
14.06
14.30
12.87
9.73
5.25
0.19
-4.56
-8.19
-10.22
-10.57
-9.52
-7.70
-5.85
-4.69
-4.59
-5.55
-7.16
-8.82
-10.05
-10.68
-10.92
-11.07
-11.41
-11.86
-12.07
-11.51
-9.84
-7.18
-4.07
-1.47
-0.27
-0.91
-3.00
-5.21
-5.73
-3.02
3.29
12.06
21.00
27.66
30.42
29.11
24.65
18.27
10.85
2.87
-5.00
-11.45
-14.66
-13.35
-7.85
-0.62
4.64
4.75
-1.28
-11.50
-22.06
-28.99
-30.14
-25.86
-18.42
-10.60
-4.25
0.11
3.08
5.48
7.70
9.56
10.64
10.66
9.86
9.02
8.98
10.29
12.85
15.94
18.51
19.67
19.08
16.99
14.29
11.94
10.61
10.32
10.47
10.23
8.87
6.26
2.85
-0.53
-3.16
-4.71
-5.28
-5.30
-5.22
-5.30
-5.61
-6.07
-6.64
-7.38
-8.38
-9.60
-10.82
-11.49
-11.19
-9.79
-7.63
-5.39
-3.77
-3.09
-3.10
-3.25
-2.96
-2.08
-0.87
0.16
0.59
0.40
-0.08
-0.35
-0.05
0.90
2.20
3.42
4.14
4.08
3.19
1.71
0.03
-1.42
-2.25
-2.38
-1.93
-1.18
-0.45
0.12
0.50
0.79
1.03
1.23
1.28
1.04
0.43
-0.56
-1.75
-2.92
-3.75
-4.02
-3.65
-2.77
-1.58
-0.37
0.61
1.28
1.59
1.65
1.61
1.61
1.69
1.81
1.88
1.74
1.42
0.94
0.51
0.28
0.30
0.53
0.81
1.07
1.27
1.52
1.86
2.24
2.53
2.54
2.18
1.45
0.54
-0.36
-1.06
-1.50
-1.71
-1.72
-1.66
-1.62
-1.76
-2.17
-2.94
-4.00
-5.20
-6.26
-6.90
-6.99
-6.56
-5.85
-5.04
-4.25
-3.40
-2.31
-0.85
0.92
2.74
4.29
5.29
5.66
5.49
4.99
4.31
3.54
2.73
1.96
1.41
1.24
1.57
2.27
3.03
3.51
3.43
2.76
1.72
0.66
-0.10
-0.34
-0.09
0.47
1.14
1.66
1.90
1.76
1.27
0.52
-0.31
-1.01
-1.52
-1.84
-2.18
-2.71
-3.42
-4.04
-4.27
-3.83
-2.76
-1.41
-0.15
0.71
1.21
1.53
1.84
2.15
2.31
2.17
1.70
1.22
1.01
1.26
1.90
2.61
3.06
3.02
2.58
2.01
1.75
1.99
2.72
3.64
4.35
4.57
4.21
3.51
2.74
2.18
1.83
1.51
1.02
0.20
-0.81
-1.76
-2.31
-2.31
-1.81
-1.10
-0.61
-0.62
-1.32
-2.44
-3.55
-4.13
-3.86
-2.83
-1.37
0.05
1.16
1.92
2.56
3.24
3.99
4.65
5.03
5.07
4.89
4.73
4.70
4.79
4.83
4.64
4.22
3.74
3.51
3.69
4.25
4.79
4.86
4.12
2.56
0.57
-1.29
-2.48
-2.83
-2.47
-1.82
-1.30
-1.17
-1.43
-1.87
-2.29
-2.52
-2.56
-2.49
-2.47
-2.64
-3.15
-4.01
-5.10
-6.24
-7.14
-7.59
-7.48
-6.82
-5.71
-4.30
-2.81
-1.48
-0.59
-0.28
-0.50
-0.92
-1.06
-0.53
0.81
2.68
4.62
6.08
6.77
6.74
6.30
5.83
5.54
5.37
5.06
4.41
3.36
2.13
1.04
0.39
0.30
0.59
1.03
1.29
1.30
1.12
0.92
0.89
1.06
1.36
1.57
1.50
0.99
0.03
-1.24
-2.59
-3.76
-4.53
-4.79
-4.58
-3.94
-3.05
-2.06
-1.15
-0.51
-0.19
-0.18
-0.31
-0.35
-0.12
0.37
0.99
1.53
1.78
1.75
1.54
1.33
1.28
1.44
1.73
2.08
2.38
2.58
2.69
2.67
2.48
2.07
1.47
0.79
0.20
-0.12
-0.19
-0.07
-0.02
-0.22
-0.74
-1.48
-2.25
-2.85
-3.22
-3.45
-3.68
-3.99
-4.30
-4.46
-4.27
-3.63
-2.64
-1.46
-0.39
0.36
0.66
0.52
0.08
-0.44
-0.80
-0.84
-0.48
0.21
1.09
1.97
2.70
3.20
3.41
3.37
3.08
2.59
1.95
1.28
0.71
0.38
0.33
0.48
0.71
0.84
0.84
0.73
0.64
0.68
0.84
1.03
1.02
0.70
0.08
-0.68
-1.35
-1.75
-1.84
-1.76
-1.68
-1.79
-2.13
-2.64
-3.13
-3.39
-3.30
-2.80
-2.05
-1.21
-0.51
-0.03
0.25
0.44
0.65
0.91
1.21
1.45
1.61
1.70
1.79
2.01
2.45
3.17
4.06
4.94
5.53
5.66
5.27
4.50
3.64
2.96
2.56
2.37
2.21
1.86
1.29
0.58
-0.07
-0.48
-0.62
-0.57
-0.61
-0.93
-1.65
-2.67
-3.75
-4.65
-5.22
-5.52
-5.64
-5.69
-5.60
-5.26
-4.58
-3.67
-2.85
-2.40
-2.45
-2.78
-3.05
-2.92
-2.38
-1.68
-1.28
-1.58
-2.58
-4.00
-5.30
-6.01
-5.85
-4.87
-3.39
-1.79
-0.45
0.48
1.13
1.85
3.08
5.08
7.85
10.94
13.68
15.31
15.40
13.96
11.56
9.01
7.02
5.96
5.70
5.83
5.84
5.43
4.51
3.28
2.03
0.98
0.25
-0.27
-0.77
-1.58
-2.94
-4.99
-7.69
-10.76
-13.88
-16.71
-19.06
-20.78
-21.73
-21.75
-20.62
-18.29
-14.83
-10.61
-6.05
-1.67
2.21
5.34
7.59
8.93
9.45
9.39
9.03
8.74
8.68
8.85
9.09
9.10
8.69
7.82
6.77
5.97
5.86
6.58
7.87
9.10
9.51
8.68
6.68
4.11
1.79
0.36
-0.06
0.15
0.34
0.01
-0.88
-2.00
-2.82
-2.95
-2.36
-1.31
-0.25
0.53
0.85
0.98
1.26
2.03
3.41
5.14
6.71
7.58
7.47
6.45
4.93
3.43
2.40
2.09
2.40
3.07
3.85
4.46
4.74
4.61
3.99
2.88
1.37
-0.18
-1.14
-0.84
1.03
4.11
7.34
9.32
8.98
6.09
1.32
-3.97
-8.51
-11.54
-13.03
-13.37
-13.01
-12.18
-10.87
-9.05
-6.80
-4.43
-2.32
-0.82
-0.15
-0.46
-1.56
-3.09
-4.57
-5.47
-5.45
-4.46
-2.65
-0.30
2.26
4.69
6.54
7.25
6.29
3.35
-1.34
-6.87
-11.91
-15.06
-15.44
-12.96
-8.47
-3.35
0.93
3.24
3.13
0.76
-3.14
-7.59
-11.52
-13.97
-14.25
-12.15
-8.03
-2.81
2.15
5.46
6.03
3.39
-2.09
-9.36
-17.00
-23.55
-27.90
-29.54
-28.61
-25.91
-22.61
-19.89
-18.61
-18.99
-20.64
-22.76
-24.48
-25.16
-24.50
-22.51
-19.29
-15.07
-10.09
-4.77
0.31
4.55
7.51
9.10
9.43
8.70
6.95
4.16
0.36
-4.17
-8.84
-13.00
-16.20
-18.50
-20.34
-22.23
-24.36
-26.36
-27.49
-26.96
-24.33
-19.72
-13.68
-6.96
-0.23
6.14
12.04
17.50
22.53
27.03
30.77
33.50
35.08
35.63
35.45
35.01
34.72
34.84
35.32
35.92
36.28
36.05
35.01
33.06
30.27
26.79
22.90
18.86
14.95
11.40
8.43
6.27
5.10
5.03
5.92
7.42
9.02
10.36
11.28
11.88
12.38
12.96
13.67
14.41
15.16
15.94
16.91
18.09
19.29
20.11
20.09
19.09
17.35
15.50
14.21
13.87
14.38
15.21
15.71
15.49
14.57
13.30
12.16
11.37
10.80
10.09
8.89
7.11
4.94
2.84
1.21
0.32
0.18
0.66
1.58
2.77
4.07
5.29
6.30
7.00
7.33
7.30
6.90
6.11
4.88
3.18
0.98
-1.70
-4.82
-8.33
-12.10
-15.91
-19.42
-22.32
-24.40
-25.74
-26.65
-27.57
-28.85
-30.54
-32.41
-33.96
-34.67
-34.12
-32.26
-29.30
-25.59
-21.45
-17.03
-12.31
-7.26
-1.77
4.02
9.75
14.93
19.24
22.68
25.55
28.32
31.32
34.94
39.16
43.55
47.43
50.29
52.04
53.15
54.44
56.71
61.01
67.64
76.14
85.37
94.07
101.28
106.66
110.52
113.76
118.65
127.47
141.67
160.81
182.11
200.95
212.40
213.10
197.17
163.69
116.12
61.14
6.14
-43.32
-84.67
-117.54
-142.45
-159.99
-170.01
-173.01
-170.51
-164.77
-158.04
-151.81
-146.53
-141.70
-136.67
-130.38
-122.49
-113.39
-104.05
-95.46
-88.28
-82.52
-77.70
-73.26
-68.42
-62.85
-56.71
-50.50
-44.81
-40.01
-36.13
-32.91
-30.04
-27.11
-23.91
-20.50
-17.10
-13.95
-11.22
-8.95
-7.03
-5.31
-3.64
-1.90
-0.10
1.71
3.45
5.06
6.53
7.86
9.10
10.25
11.36
12.43
13.48
14.54
15.61
16.73
17.91
19.15
20.45
21.79
23.08
24.25
25.14
25.61
25.47
24.58
22.80
20.03
16.32
11.73
6.44
0.69
-5.20
-10.90
-16.07
-20.42
-23.73
-25.82
-26.68
-26.32
-24.87
-22.48
-19.35
-15.70
-11.71
-7.58
-3.41
0.56
4.25
7.55
10.39
12.84
14.92
16.76
18.49
20.35
22.34
24.57
27.08
29.87
32.92
36.05
39.16
42.04
44.67
46.71
48.03
48.71
48.91
48.94
49.10
49.81
51.43
54.40
58.51
63.61
69.55
76.13
83.10
90.15
97.04
103.57
109.77
114.98
118.87
121.30
122.07
120.97
117.41
110.39
98.12
83.75
68.36
52.87
38.28
25.43
15.01
7.31
2.25
-0.48
-1.26
-1.12
-0.72
-0.37
-0.31
-0.75
-2.16
-5.13
-10.22
-17.74
-28.10
-41.05
-55.87
-71.72
-87.84
-103.82
-119.62
-135.47
-151.96
-170.33
-191.83
-216.97
-244.71
-271.99
-294.19
-306.73
-306.92
-295.04
-273.91
-246.96
-216.00
-180.43
-138.02
-86.68
-26.06
42.05
114.33
186.83
255.25
314.67
359.38
383.68
383.84
359.96
316.72
262.03
204.55
150.86
103.97
63.46
27.01
-7.76
-42.20
-76.22
-109.32
-141.29
-172.81
-204.99
-238.33
-271.93
-303.22
-329.11
-346.94
-355.63
-355.20
-345.94
-327.55
-299.09
-260.29
-212.89
-161.46
-112.31
-71.66
-43.24
-27.33
-21.15
-20.21
-20.30
-18.52
-13.87
-6.88
1.00
8.21
13.42
15.58
13.82
7.11
-5.04
-22.29
-42.34
-60.87
-71.99
-69.98
-51.18
-15.50
33.07
87.59
140.07
183.65
214.27
231.11
236.16
232.68
223.91
211.66
196.20
176.96
153.60
127.14
100.08
76.03
58.89
52.41
59.73
82.86
121.54
172.11
227.07
276.18
309.32
319.79
306.69
274.92
232.88
189.03
149.11
115.33
87.20
63.25
42.15
23.06
5.14
-12.87
-32.43
-54.71
-79.85
-106.99
-134.59
-161.39
-187.23
-213.28
-241.38
-272.70
-306.52
-339.59
-366.81
-382.87
-384.02
-369.38
-340.94
-302.64
-258.85
-213.35
-168.75
-126.49
-87.11
-50.63
-16.85
14.16
41.73
64.55
81.13
90.52
93.11
90.63
85.65
80.40
76.03
72.19
67.65
61.03
51.64
39.68
26.00
11.75
-1.97
-14.13
-23.78
-29.97
-32.01
-29.72
-23.69
-15.43
-7.08
-0.83
1.74
0.16
-4.78
-11.50
-18.24
-23.69
-27.36
-29.54
-30.96
-32.40
-34.27
-36.65
-39.51
-42.77
-46.26
-49.78
-53.10
-56.02
-58.31
-59.54
-59.49
-58.51
-57.78
-59.02
-63.82
-72.78
-85.06
-98.46
-109.86
-117.10
-119.86
-119.31
-116.77
-112.68
-106.39
-97.12
-84.90
-69.78
-53.23
-37.93
-26.67
-20.89
-20.61
-25.12
-34.03
-47.28
-62.00
-75.02
-83.99
-87.35
-83.33
-69.98
-46.36
-13.55
25.44
70.68
121.05
172.81
220.38
259.43
288.68
309.26
323.66
335.48
354.37
388.36
439.18
501.52
565.93
622.32
661.90
679.08
640.88
537.07
390.30
243.21
128.05
52.28
7.18
-20.09
-39.37
-55.96
-66.56
-67.31
-60.75
-52.96
-49.62
-52.82
-62.02
-75.95
-94.13
-113.31
-132.50
-154.83
-181.67
-212.20
-240.72
-259.23
-261.85
-248.66
-224.22
-198.62
-184.26
-190.11
-217.79
-260.43
-306.42
-344.09
-365.25
-365.18
-343.99
-306.25
-259.10
-210.06
-164.36
-123.79
-86.99
-50.81
-11.75
32.13
81.05
134.48
191.50
250.58
308.31
359.01
396.24
415.75
417.86
407.40
391.17
374.24
358.10
341.52
323.40
305.43
292.35
289.38
298.61
316.90
336.62
349.08
348.34
333.20
306.72
273.69
237.86
200.40
160.37
116.48
68.87
19.61
-28.03
-71.29
-108.89
-141.20
-169.16
-192.99
-211.74
-223.93
-228.79
-227.21
-221.57
-214.50
-207.66
-201.07
-193.76
-184.99
-175.24
-166.16
-159.68
-156.83
-157.22
-159.57
-162.57
-165.78
-169.53
-174.23
-179.36
-183.16
-183.15
-177.24
-164.86
-147.29
-127.30
-108.00
-91.86
-79.98
-72.19
-67.69
-65.61
-65.48
-67.16
-70.60
-75.38
-80.68
-85.33
-88.21
-88.62
-86.46
-82.16
-76.51
-70.26
-63.96
-57.95
-52.47
-47.72
-43.93
-41.15
-39.19
-37.56
-35.69
-33.12
-29.76
-25.92
-22.18
-19.17
-17.31
-16.73
-17.20
-18.30
-19.50
-20.33
-20.54
-20.17
-19.50
-18.88
-18.57
-18.52
-18.46
-18.12
-17.46
-16.68
-16.09
-15.78
-15.48
-14.62
-12.65
-9.52
-5.70
-2.15
0.18
0.83
-0.08
-1.84
-3.49
-4.12
-3.18
-0.58
3.25
7.39
10.75
12.31
11.54
8.60
4.27
-0.38
-4.32
-6.92
-8.03
-7.86
-6.76
-5.11
-3.15
-1.02
1.24
3.67
6.38
9.41
12.64
15.77
18.34
20.08
21.04
21.58
22.20
23.30
24.93
26.95
29.20
31.65
34.39
37.36
40.15
42.03
42.24
40.48
37.14
33.29
30.08
28.33
28.12
28.94
30.04
30.82
31.01
30.73
30.24
29.82
29.70
30.03
30.92
32.37
34.29
36.38
38.29
39.71
40.35
40.19
39.25
37.71
35.80
33.82
32.03
30.56
29.37
28.18
26.69
24.72
22.31
19.72
17.26
15.14
13.36
11.78
10.26
8.73
7.19
5.55
3.55
0.81
-2.92
-7.51
-12.47
-17.00
-20.46
-22.55
-23.41
-23.37
-22.72
-21.56
-19.82
-17.46
-14.60
-11.56
-8.67
-6.09
-3.78
-1.55
0.69
2.86
4.76
6.22
7.21
7.80
8.10
8.19
7.94
7.23
5.95
4.22
2.33
0.76
-0.07
0.03
0.88
1.97
2.66
2.40
0.99
-1.43
-4.45
-7.60
-10.62
-13.37
-15.84
-17.95
-19.47
-20.11
-19.65
-18.11
-15.76
-13.05
-10.35
-7.90
-5.70
-3.58
-1.41
0.87
3.15
5.17
6.68
7.53
7.78
7.63
7.36
7.19
7.18
7.15
6.85
6.03
4.58
2.59
0.35
-1.91
-4.04
-6.11
-8.33
-10.89
-13.89
-17.31
-20.95
-24.53
-27.70
-30.06
-31.27
-31.14
-29.67
-27.06
-23.66
-19.86
-15.92
-12.02
-8.22
-4.58
-1.16
2.00
4.84
7.24
9.01
9.92
9.83
8.83
7.34
5.94
5.12
5.05
5.50
6.03
6.31
6.28
6.20
6.38
6.97
7.80
8.47
8.50
7.60
5.71
3.02
-0.15
-3.41
-6.35
-8.54
-9.61
-9.35
-7.81
-5.33
-2.41
0.44
2.94
5.10
7.12
9.34
11.91
14.76
17.54
19.86
21.37
21.93
21.63
20.72
19.51
18.18
16.79
15.26
13.57
11.69
9.73
7.86
6.20
4.81
3.60
2.41
1.06
-0.52
-2.31
-4.20
-6.04
-7.74
-9.23
-10.48
-11.37
-11.83
-11.71
-10.95
-9.60
-7.77
-5.72
-3.59
-1.43
0.87
3.46
6.47
9.87
13.36
16.45
18.58
19.36
18.81
17.35
15.74
14.73
14.69
15.50
16.57
17.13
16.65
15.04
12.70
10.19
7.98
6.20
4.67
3.11
1.25
-0.96
-3.50
-6.26
-9.15
-12.02
-14.63
-16.50
-17.13
-16.16
-13.56
-9.84
-5.70
-1.90
1.18
3.60
5.84
8.43
11.65
15.38
19.14
22.35
24.60
25.81
26.27
26.43
26.64
27.05
27.54
27.81
27.55
26.60
25.03
23.11
21.14
19.36
17.76
16.07
13.78
10.40
5.75
0.05
-6.04
-11.66
-16.18
-19.44
-21.65
-23.20
-24.26
-24.55
-23.60
-21.05
-17.04
-12.24
-7.58
-3.82
-1.25
0.28
1.12
1.45
1.30
0.59
-0.67
-2.25
-3.86
-5.28
-6.58
-7.99
-9.70
-11.57
-13.17
-13.90
-13.36
-11.53
-8.88
-6.13
-4.01
-3.05
-3.39
-4.85
-7.10
-9.74
-12.42
-14.82
-16.72
-17.86
-18.15
-17.53
-16.08
-14.02
-11.57
-8.90
-6.06
-2.99
0.44
4.27
8.29
12.16
15.46
17.92
19.42
20.09
20.13
19.79
19.23
18.58
17.97
17.43
16.93
16.25
15.10
13.22
10.54
7.27
3.78
0.43
-2.58
-5.29
-7.88
-10.55
-13.35
-16.14
-18.65
-20.52
-21.42
-21.08
-19.38
-16.47
-12.75
-8.81
-5.25
-2.36
-0.02
2.29
5.15
8.80
12.94
16.71
19.19
19.89
19.06
17.52
16.34
16.22
17.21
18.63
19.43
18.77
16.57
13.64
11.25
10.62
12.20
15.50
19.12
21.39
21.29
19.05
16.23
14.91
16.86
22.90
32.79
45.45
59.38
73.60
87.83
101.78
114.27
123.08
126.11
122.61
113.63
101.07
87.53
75.80
68.25
66.68
72.79
88.97
117.26
157.14
202.98
245.66
276.10
288.13
280.00
254.05
215.73
171.07
124.06
74.70
21.66
-34.29
-88.88
-135.43
-166.89
-177.05
-162.98
-120.28
-54.89
14.61
67.95
97.29
110.48
118.57
127.94
139.23
148.65
150.16
140.34
120.41
94.95
68.07
40.64
10.86
-24.36
-68.12
-122.96
-188.87
-262.24
-337.07
-407.24
-468.10
-516.31
-549.71
-567.66
-571.26
-562.15
-541.29
-509.16
-466.80
-416.63
-361.96
-306.55
-254.14
-208.19
-171.32
-144.24
-125.59
-112.45
-101.21
-88.29
-71.22
-49.34
-23.75
3.24
29.83
55.57
81.22
108.00
137.04
169.39
206.04
247.57
292.62
337.59
376.84
404.17
414.92
408.00
386.68
357.39
327.15
299.09
273.17
247.31
219.53
189.04
156.64
124.74
96.42
74.43
56.76
40.83
25.76
13.55
7.77
11.29
25.12
47.42
73.54
91.55
91.39
70.02
33.10
-9.51
-49.66
-84.01
-114.39
-146.14
-191.96
-260.24
-350.56
-453.59
-558.13
-657.70
-751.93
-844.47
-893.68
-870.98
-775.90
-636.60
-484.42
-338.77
-209.70
-103.29
-22.70
33.21
60.64
65.05
54.14
37.43
22.09
10.82
3.55
0.18
1.66
4.29
4.15
-0.48
-7.65
-14.60
-19.66
-22.11
-21.31
-16.43
-10.43
-6.12
-5.03
-6.29
-8.26
-9.84
-10.42
-9.37
-5.94
-1.22
3.74
8.36
13.15
18.78
25.50
33.09
41.26
49.88
58.37
66.45
74.12
81.81
89.84
98.09
106.10
113.37
119.68
125.29
130.94
137.51
145.73
155.73
167.09
178.85
189.97
199.79
208.31
216.26
224.95
236.05
250.95
270.32
293.28
317.07
337.24
348.72
347.45
331.84
303.52
266.61
226.21
186.55
149.91
116.81
87.12
61.17
40.23
26.14
20.00
21.50
28.62
38.11
46.53
51.24
51.26
47.32
41.39
35.79
32.43
32.25
34.87
38.35
39.11
32.92
16.36
-11.09
-45.87
-80.66
-106.74
-117.42
-110.76
-90.28
-63.13
-36.88
-16.69
-4.32
0.96
0.52
-4.71
-13.99
-26.05
-38.40
-47.67
-50.83
-46.57
-35.84
-21.50
-7.25
3.91
10.47
12.67
11.89
9.98
8.44
8.08
8.99
10.78
12.83
14.32
14.48
12.64
8.69
3.33
-1.83
-4.80
-4.02
0.75
8.16
15.82
21.40
23.79
23.44
21.93
20.92
21.29
22.77
24.29
24.78
23.74
21.43
18.54
15.55
12.50
9.00
4.64
-0.72
-6.90
-13.57
-20.43
-27.18
-33.45
-38.74
-42.56
-44.71
-45.50
-45.57
-45.51
-45.42
-44.54
-41.90
-37.01
-30.45
-23.15
-16.12
-10.00
-5.11
-1.42
1.52
4.47
8.50
14.69
24.13
36.99
51.92
65.99
75.41
77.40
70.64
55.82
35.32
13.99
-2.46
-9.44
-5.76
5.51
19.16
28.03
25.40
6.27
-27.81
-70.74
-114.34
-151.61
-178.04
-188.69
-181.91
-160.10
-131.42
-100.81
-70.79
-41.19
-11.01
21.14
60.81
110.04
164.99
213.01
247.60
267.45
276.30
278.89
279.81
288.36
309.32
340.57
368.88
387.87
395.33
393.07
383.43
330.75
222.41
74.90
-39.10
-106.65
-134.48
-146.04
-152.64
-159.95
-168.85
-171.34
-161.98
-142.33
-125.65
-117.87
-118.89
-122.89
-124.19
-119.27
-103.80
-79.11
-52.34
-37.39
-39.46
-57.07
-83.82
-113.70
-142.22
-163.99
-176.38
-180.22
-181.41
-182.38
-183.57
-183.61
-181.36
-175.51
-163.24
-142.60
-113.80
-80.99
-48.32
-20.03
0.77
12.55
16.48
16.57
17.52
22.38
30.84
40.70
48.87
53.25
53.41
50.69
47.10
44.21
42.75
42.92
44.97
49.19
55.61
63.39
70.96
76.72
79.89
80.89
81.09
82.07
84.91
90.16
97.78
107.33
117.78
127.47
134.51
137.56
136.79
134.15
132.62
134.42
139.54
145.40
147.93
143.85
132.32
115.44
96.94
80.33
67.29
57.51
49.54
42.19
35.51
30.51
28.40
29.55
33.12
37.53
41.28
43.65
44.66
44.64
43.61
41.12
36.47
29.26
19.76
8.92
-1.93
-11.62
-19.33
-24.93
-28.79
-31.62
-34.30
-37.54
-41.65
-46.41
-51.28
-55.51
-58.66
-60.73
-62.20
-63.85
-66.25
-69.56
-73.33
-76.72
-78.72
-78.77
-76.91
-73.84
-70.67
-68.39
-67.57
-68.11
-69.50
-71.12
-72.55
-73.63
-74.29
-74.43
-73.72
-71.88
-68.73
-64.45
-59.50
-54.55
-50.19
-46.80
-44.62
-43.70
-44.13
-45.94
-49.05
-53.20
-57.89
-62.53
-66.53
-69.53
-71.55
-72.95
-74.36
-76.34
-79.22
-82.81
-86.46
-89.14
-89.79
-87.66
-82.49
-74.64
-64.83
-53.99
-42.94
-32.26
-22.26
-13.11
-4.93
2.15
7.92
12.28
15.14
16.69
17.24
17.23
17.01
16.74
16.34
15.49
13.98
11.81
9.51
7.91
7.86
9.70
12.95
16.33
18.12
16.84
11.64
2.58
-9.58
-23.62
-38.24
-52.16
-64.14
-73.16
-78.46
-79.84
-77.78
-73.34
-67.86
-62.52
-58.07
-54.67
-52.19
-50.31
-48.87
-47.96
-47.87
-48.99
-51.51
-55.45
-60.43
-65.90
-71.17
-75.67
-79.12
-81.66
-83.82
-86.37
-90.09
-95.38
-102.07
-109.34
-116.08
-121.38
-125.05
-127.87
-131.21
-136.34
-143.44
-150.99
-156.00
-155.03
-145.85
-128.45
-105.47
-80.79
-58.01
-38.64
-21.45
-3.36
19.30
49.21
87.56
133.77
185.36
237.83
284.27
316.41
326.04
308.01
261.95
192.98
109.72
21.29
-65.77
-149.22
-229.96
-309.77
-388.16
-461.47
-523.82
-569.86
-597.56
-608.87
-608.64
-601.63
-590.19
-573.08
-546.98
-508.92
-458.30
-397.36
-329.84
-259.07
-186.27
-110.86
-31.57
52.19
139.27
227.55
314.72
399.86
483.06
564.70
642.97
712.58
765.02
790.87
783.81
743.30
675.74
592.20
504.92
423.69
353.94
296.90
250.94
213.34
181.15
151.55
121.81
89.84
54.73
17.19
-20.63
-56.22
-87.21
-112.56
-132.61
-149.19
-165.23
-184.02
-208.14
-237.88
-270.51
-300.08
-318.97
-319.80
-297.50
-250.25
-179.27
-88.42
16.16
125.75
229.25
314.34
370.46
392.40
382.64
350.98
310.84
274.31
247.94
231.58
220.10
207.02
187.90
161.95
132.08
103.30
80.78
68.25
66.91
75.20
89.22
104.19
115.68
121.19
120.80
116.93
113.23
113.10
118.58
129.84
145.32
161.94
175.68
182.09
177.21
158.60
126.26
83.00
33.75
-15.88
-61.73
-102.71
-141.29
-182.01
-228.58
-281.17
-335.23
-383.09
-417.46
-434.49
-434.94
-422.97
-403.82
-381.49
-358.15
-334.76
-312.17
-291.73
-274.90
-262.24
-252.96
-245.63
-239.59
-236.16
-238.48
-249.65
-270.44
-297.58
-323.93
-340.42
-339.35
-317.08
-275.49
-220.83
-161.36
-104.23
-53.66
-10.94
24.48
53.56
77.22
96.53
113.39
131.14
153.94
185.45
226.70
274.69
322.30
360.30
380.90
380.96
363.70
337.10
310.34
289.76
276.74
268.01
258.21
242.85
220.01
190.47
156.49
120.98
87.05
58.15
37.74
28.07
28.90
36.71
45.70
50.03
46.51
35.90
22.31
11.46
8.50
16.60
36.28
65.55
100.38
135.32
164.98
185.45
195.82
198.13
195.84
190.92
182.31
166.39
140.00
104.01
64.59
31.14
11.02
5.66
9.29
12.18
5.98
-12.23
-39.31
-69.50
-98.31
-124.77
-150.03
-174.59
-196.32
-211.51
-217.95
-217.18
-214.07
-212.80
-213.50
-211.54
-200.97
-179.31
-150.33
-122.61
-104.14
-97.62
-98.63
-98.53
-89.55
-68.39
-36.42
3.60
50.29
104.39
165.85
230.37
287.70
324.08
327.97
295.52
233.31
156.05
81.28
22.79
-13.21
-28.22
-28.34
-20.10
-8.13
5.71
20.71
36.23
50.80
62.51
69.87
72.16
70.18
66.23
64.32
69.21
84.55
110.33
141.02
166.00
172.51
150.12
94.15
7.31
-101.83
-221.58
-339.94
-446.55
-533.37
-595.55
-631.73
-644.52
-639.85
-625.39
-608.31
-593.31
-582.14
-573.98
-566.69
-557.58
-544.03
-523.94
-495.97
-460.05
-417.53
-371.01
-323.54
-277.79
-235.33
-196.56
-160.96
-127.75
-96.39
-66.72
-39.00
-13.68
9.03
29.28
47.59
64.52
80.46
95.20
108.01
117.72
123.13
123.44
118.49
108.93
96.05
81.64
67.63
55.76
47.41
43.37
43.94
48.74
57.00
67.59
79.34
91.22
102.51
113.02
122.88
132.62
142.74
153.57
165.11
177.09
189.18
201.24
213.84
228.12
245.68
267.80
294.65
324.65
354.37
379.39
395.15
398.32
387.32
362.80
327.29
284.80
240.15
198.01
162.09
134.11
113.67
98.51
85.83
73.65
61.71
51.47
44.92
43.42
46.63
52.79
59.45
64.59
67.47
68.48
68.72
69.22
70.64
73.08
76.40
80.35
84.59
88.72
92.12
94.22
94.61
93.29
90.54
86.77
82.29
77.16
71.26
64.24
55.70
45.13
32.19
16.80
-0.59
-18.99
-37.24
-54.31
-69.81
-83.84
-96.61
-107.79
-116.13
-119.80
-116.94
-106.69
-89.33
-66.26
-39.22
-9.87
20.36
50.17
77.95
101.92
120.24
131.59
135.29
131.48
120.89
104.64
84.23
61.30
37.78
15.52
-3.75
-18.74
-28.66
-33.34
-33.33
-29.75
-24.36
-19.02
-15.33
-14.15
-15.49
-18.63
-22.61
-26.74
-30.55
-34.00
-36.90
-38.83
-39.05
-36.71
-31.33
-23.04
-12.86
-2.41
6.32
11.83
13.55
12.18
9.56
7.96
9.31
14.36
22.62
32.60
42.48
50.79
56.46
58.95
57.79
52.63
43.23
29.78
13.11
-5.43
-24.02
-40.93
-54.57
-64.05
-69.14
-70.45
-69.25
-66.86
-64.29
-61.55
-57.88
-52.02
-42.96
-30.47
-15.22
1.53
18.53
34.91
50.47
65.22
79.04
91.28
100.78
106.38
107.45
104.55
99.16
93.31
88.38
84.47
80.24
73.26
60.81
40.50
10.94
-27.67
-72.84
-119.54
-160.55
-187.87
-195.22
-180.57
-147.57
-104.89
-63.30
-31.85
-14.85
-10.98
-14.77
-19.73
-20.92
-16.48
-7.20
4.79
17.57
29.96
41.32
51.01
58.05
61.55
61.29
58.09
53.45
48.74
44.48
39.96
33.79
24.59
12.09
-2.54
-17.05
-28.71
-35.50
-36.65
-32.92
-26.07
-18.06
-10.33
-3.40
2.74
8.34
13.25
17.00
18.96
18.75
16.36
12.05
6.20
-1.02
-9.31
-18.27
-27.06
-34.55
-39.62
-41.45
-39.88
-35.32
-28.75
-21.27
-13.99
-7.77
-3.04
0.10
1.89
2.66
2.84
2.71
2.46
2.09
1.55
0.86
0.03
-0.76
-1.42
-1.87
-2.14
-2.33
-2.50
-2.73
-3.08
-3.77
-5.11
-7.47
-10.96
-15.28
-19.71
-23.24
-25.04
-24.70
-22.47
-19.04
-15.30
-11.88
-8.98
-6.39
-3.66
-0.52
3.08
6.78
10.11
12.61
14.00
14.31
13.61
12.16
10.10
7.66
5.10
2.74
0.84
-0.56
-1.56
-2.42
-3.26
-4.05
-4.58
-4.63
-4.28
-3.87
-4.01
-5.18
-7.56
-10.77
-14.06
-16.63
-17.91
-17.89
-16.90
-15.56
-14.28
-13.17
-11.95
-10.11
-7.17
-2.89
2.45
8.22
13.40
16.91
17.92
16.03
11.54
5.27
-1.50
-7.36
-10.98
-11.51
-8.90
-3.86
2.08
7.37
10.89
12.58
13.34
14.39
16.46
19.15
21.15
20.74
16.97
9.89
0.67
-9.10
-18.04
-25.22
-30.11
-32.18
-30.97
-26.10
-17.68
-6.53
5.99
18.08
28.05
34.40
36.19
33.08
25.60
15.10
3.50
-7.10
-15.11
-19.57
-20.42
-18.05
-13.10
-6.13
2.22
11.13
19.58
26.30
30.30
31.07
28.77
24.15
18.15
11.59
4.85
-1.90
-8.74
-15.54
-21.99
-27.60
-31.70
-33.75
-33.33
-30.36
-25.11
-18.31
-10.95
-4.16
1.18
4.77
6.85
8.09
9.16
10.45
11.95
13.29
14.14
14.28
13.85
13.07
12.19
11.28
10.24
8.96
7.42
5.73
4.04
2.50
1.13
-0.21
-1.63
-3.21
-4.80
-6.18
-7.09
-7.53
-7.69
-7.92
-8.57
-9.74
-11.26
-12.60
-13.29
-12.90
-11.37
-8.89
-5.80
-2.51
0.74
3.79
6.61
9.14
11.37
13.28
14.80
15.89
16.46
16.45
15.81
14.59
12.99
11.27
9.81
8.77
8.19
7.77
7.17
6.15
4.74
3.30
2.22
1.76
1.70
1.61
0.91
-0.66
-2.95
-5.46
-7.60
-9.07
-9.75
-9.84
-9.45
-8.60
-7.25
-5.37
-3.11
-0.60
1.90
4.30
6.50
8.48
10.23
11.62
12.60
13.05
13.00
12.44
11.50
10.31
9.06
7.91
6.91
6.06
5.21
4.30
3.25
2.06
0.83
-0.41
-1.56
-2.65
-3.63
-4.52
-5.34
-6.14
-6.95
-7.76
-8.63
-9.47
-10.21
-10.61
-10.39
-9.25
-7.06
-3.93
-0.24
3.37
6.38
8.44
9.54
9.95
10.01
10.03
10.12
10.23
10.22
10.07
9.79
9.52
9.38
9.32
9.23
8.85
8.04
6.85
5.54
4.49
3.93
3.92
4.15
4.28
3.92
2.91
1.31
-0.62
-2.51
-4.09
-5.19
-5.90
-6.39
-6.86
-7.39
-7.87
-8.10
-7.84
-6.94
-5.35
-3.01
0.11
3.99
8.31
12.52
15.74
17.25
16.70
14.38
11.00
7.45
4.37
1.95
0.13
-1.32
-2.45
-3.25
-3.62
-3.54
-3.12
-2.45
-1.65
-0.70
0.43
1.72
3.02
4.02
4.39
3.82
2.22
-0.33
-3.53
-6.97
-10.23
-12.89
-14.66
-15.23
-14.48
-12.39
-9.27
-5.66
-2.24
0.34
1.73
1.87
1.10
-0.10
-1.19
-1.73
-1.50
-0.40
1.33
3.37
5.16
6.15
5.90
4.18
1.11
-2.99
-7.58
-12.14
-16.07
-18.84
-19.95
-19.02
-15.93
-10.83
-4.33
2.76
9.46
14.94
18.67
20.43
20.37
18.83
16.39
13.65
11.29
9.80
9.44
10.08
11.16
12.02
12.01
10.84
8.63
5.86
3.20
1.20
0.25
0.38
1.39
2.89
4.38
5.44
5.76
5.30
4.14
2.56
0.77
-1.01
-2.64
-4.04
-5.05
-5.58
-5.60
-5.26
-4.77
-4.42
-4.44
-4.86
-5.64
-6.62
-7.71
-8.82
-9.92
-10.89
-11.54
-11.63
-10.91
-9.33
-6.98
-4.23
-1.47
0.89
2.68
3.93
4.78
5.44
5.94
6.22
6.14
5.62
4.70
3.57
2.48
1.61
1.12
0.97
1.08
1.31
1.46
1.44
1.20
0.83
0.44
0.13
-0.11
-0.46
-1.07
-2.06
-3.29
-4.54
-5.53
-6.18
-6.58
-7.00
-7.71
-8.72
-9.88
-10.85
-11.29
-11.01
-10.02
-8.45
-6.51
-4.46
-2.38
-0.44
1.35
2.90
4.14
4.97
5.27
4.99
4.10
2.69
0.94
-0.84
-2.23
-2.82
-2.39
-1.06
0.64
1.88
1.94
0.55
-1.93
-4.52
-6.21
-6.24
-4.62
-1.90
1.04
3.55
5.31
6.23
6.27
5.18
2.80
-0.78
-4.86
-8.24
-9.66
-8.35
-4.48
0.96
6.45
10.58
12.47
11.82
8.85
3.89
-2.80
-11.14
-21.00
-31.99
-43.17
-53.05
-59.97
-62.57
-60.35
-53.84
-44.53
-34.29
-24.87
-17.36
-12.00
-8.29
-5.13
-1.30
4.31
12.24
22.23
33.30
43.95
52.76
58.69
61.44
61.21
58.47
53.73
47.37
39.93
32.17
25.23
20.25
18.07
18.78
21.62
25.31
28.32
29.57
28.41
24.75
18.74
10.67
0.92
-9.96
-21.08
-31.28
-39.29
-44.16
-45.44
-43.36
-38.76
-32.70
-26.19
-19.93
-14.46
-10.22
-7.67
-7.12
-8.45
-10.94
-13.33
-14.30
-12.99
-9.53
-4.92
-0.51
2.47
3.56
2.97
1.41
-0.37
-1.84
-2.77
-3.28
-3.56
-3.91
-4.55
-5.60
-7.00
-8.47
-9.69
-10.27
-10.08
-9.13
-7.69
-6.01
-4.38
-2.94
-1.70
-0.58
0.58
1.85
3.26
4.75
6.27
7.75
9.12
10.24
10.91
10.94
10.25
8.97
7.43
6.04
5.16
4.87
5.04
5.31
5.33
4.81
3.67
2.04
0.12
-1.70
-3.22
-4.27
-4.83
-4.93
-4.60
-3.92
-2.95
-1.91
-0.99
-0.47
-0.43
-0.82
-1.45
-2.05
-2.57
-3.11
-4.02
-5.58
-7.86
-10.58
-13.08
-14.67
-14.71
-13.06
-10.04
-6.44
-3.18
-0.99
-0.14
-0.33
-0.97
-1.42
-1.40
-1.08
-0.99
-1.71
-3.51
-6.22
-9.16
-11.56
-12.77
-12.57
-11.14
-8.89
-6.30
-3.68
-1.27
0.88
2.78
4.52
6.22
7.94
9.64
11.00
11.59
10.90
8.72
5.24
1.02
-3.16
-6.73
-9.33
-11.00
-11.85
-11.98
-11.35
-9.88
-7.60
-4.68
-1.57
1.22
3.27
4.29
4.26
3.30
1.67
-0.44
-2.78
-5.28
-7.96
-10.86
-14.04
-17.38
-20.61
-23.29
-25.08
-25.74
-25.31
-24.15
-22.78
-21.79
-21.52
-22.10
-23.20
-24.35
-25.02
-24.87
-23.92
-22.44
-21.01
-20.12
-20.07
-20.78
-21.82
-22.53
-22.19
-20.34
-16.80
-11.82
-5.89
0.44
6.79
13.23
20.16
28.17
37.55
48.07
58.72
68.03
74.47
76.81
74.56
67.74
56.92
42.94
26.92
10.22
-5.65
-19.31
-29.93
-37.32
-42.10
-45.16
-47.30
-48.91
-49.96
-50.42
-50.45
-50.68
-51.97
-55.17
-60.68
-68.19
-76.67
-84.48
-89.84
-91.30
-88.32
-81.41
-71.84
-61.01
-49.71
-37.99
-25.53
-12.44
0.30
11.37
20.15
28.03
38.54
56.55
86.34
130.38
188.83
260.12
341.62
429.52
518.28
600.28
666.80
710.25
726.85
718.07
689.84
650.01
605.23
559.17
512.51
464.58
415.01
364.52
314.72
267.04
222.08
179.60
139.11
100.49
64.19
31.27
2.69
-21.10
-40.44
-56.29
-69.84
-81.96
-92.75
-101.59
-107.29
-108.65
-104.84
-95.80
-82.16
-65.09
-45.96
-26.01
-6.32
12.29
29.07
43.27
54.08
60.61
62.07
57.88
47.94
32.59
12.62
-10.79
-36.32
-62.57
-88.38
-112.90
-135.76
-156.96
-176.80
-195.67
-213.86
-231.67
-249.15
-266.40
-283.51
-300.71
-318.33
-336.87
-357.03
-379.68
-405.58
-434.62
-465.42
-495.06
-519.64
-535.31
-539.40
-531.29
-512.29
-485.01
-452.29
-416.66
-380.26
-345.13
-313.39
-286.84
-266.52
-252.01
-241.74
-233.64
-226.06
-218.17
-209.77
-200.91
-191.27
-180.25
-167.15
-151.77
-134.47
-116.07
-97.49
-79.39
-62.32
-46.69
-33.11
-22.22
-14.61
-10.49
-9.55
-10.95
-13.44
-15.79
-16.95
-16.51
-14.68
-12.15
-9.74
-7.83
-6.39
-4.80
-2.43
1.15
5.82
10.97
15.86
19.83
22.67
24.52
25.81
27.01
28.44
30.28
32.47
34.94
37.45
39.84
41.92
43.53
44.61
45.19
45.54
45.95
46.84
48.40
50.63
53.26
55.83
57.88
59.04
59.23
58.46
56.88
54.58
51.74
48.56
45.34
42.49
40.22
38.56
37.08
35.19
32.33
28.31
23.45
18.37
13.76
9.94
6.89
4.32
2.09
0.43
-0.16
0.87
3.64
7.79
12.55
17.16
21.21
24.73
28.04
31.34
34.67
37.74
40.18
41.74
42.34
42.09
41.17
39.88
38.47
37.18
36.16
35.37
34.60
33.53
31.93
29.72
27.05
24.13
21.18
18.39
15.85
13.72
11.98
10.61
9.25
7.47
4.80
0.92
-4.09
-9.84
-15.49
-19.97
-22.13
-21.12
-16.75
-9.65
-1.25
6.77
12.93
16.64
18.25
18.83
19.63
21.56
24.98
29.53
34.49
38.85
41.69
42.31
40.51
36.64
31.50
26.23
21.76
18.82
17.64
18.07
19.74
22.12
24.66
26.71
27.78
27.42
25.52
22.15
17.53
12.00
5.82
-0.71
-7.32
-13.55
-18.86
-22.58
-24.09
-23.10
-19.63
-14.17
-7.39
0.03
7.58
15.01
22.12
28.71
34.37
38.71
41.46
42.68
42.70
41.96
40.83
39.37
37.55
35.23
32.55
29.78
27.32
25.50
24.37
23.79
23.36
22.74
21.62
19.87
17.48
14.50
11.12
7.47
3.80
0.25
-3.03
-6.06
-8.93
-11.77
-14.72
-17.62
-20.15
-21.71
-21.76
-19.86
-15.92
-10.23
-3.30
4.22
11.81
19.05
25.65
31.32
35.77
38.71
39.95
39.59
37.95
35.63
33.24
31.22
29.75
28.69
27.76
26.56
24.93
22.87
20.61
18.40
16.39
14.61
12.77
10.58
7.78
4.40
0.73
-2.87
-6.07
-8.87
-11.47
-14.20
-17.16
-20.15
-22.65
-24.00
-23.69
-21.54
-17.79
-12.88
-7.31
-1.44
4.56
10.59
16.59
22.32
27.50
31.83
35.09
37.18
38.13
38.06
37.06
35.36
33.15
30.75
28.45
26.45
24.78
23.29
21.80
20.06
18.05
15.79
13.40
11.02
8.70
6.44
4.13
1.80
-0.60
-3.04
-5.53
-8.18
-11.06
-14.24
-17.47
-20.30
-21.98
-21.79
-19.26
-14.43
-7.93
-0.72
6.16
12.04
16.69
20.32
23.26
25.74
27.78
29.17
29.79
29.59
28.76
27.54
26.16
24.77
23.38
22.04
20.68
19.32
17.86
16.24
14.42
12.42
10.39
8.40
6.57
4.84
3.20
1.60
0.03
-1.52
-3.22
-5.25
-7.84
-11.01
-14.55
-17.93
-20.45
-21.44
-20.46
-17.50
-12.94
-7.45
-1.80
3.47
8.07
12.10
15.74
19.21
22.49
25.35
27.45
28.56
28.70
28.05
26.97
25.68
24.38
23.05
21.69
20.36
19.14
18.19
17.46
16.83
16.00
14.71
12.84
10.46
7.85
5.30
3.04
1.10
-0.55
-2.02
-3.41
-4.77
-6.23
-7.88
-9.89
-12.25
-14.74
-16.88
-18.10
-17.89
-16.04
-12.75
-8.49
-3.89
0.60
4.74
8.50
11.97
15.07
17.64
19.34
19.98
19.53
18.25
16.54
14.80
13.36
12.35
11.80
11.58
11.50
11.20
10.22
8.20
4.91
0.62
-3.98
-7.91
-10.25
-10.53
-8.93
-6.25
-3.56
-1.86
-1.66
-2.97
-5.39
-8.42
-11.71
-14.98
-17.99
-20.33
-21.46
-20.85
-18.16
-13.48
-7.20
0.02
7.53
14.72
21.22
26.84
31.48
35.22
38.03
39.92
40.69
40.15
38.09
34.55
29.95
24.83
19.83
15.26
11.24
7.53
3.98
0.56
-2.62
-5.25
-7.20
-8.43
-9.18
-9.71
-10.26
-10.92
-11.57
-12.09
-12.37
-12.56
-12.81
-13.36
-14.26
-15.31
-16.10
-16.12
-15.11
-12.92
-9.86
-6.38
-2.95
0.05
2.52
4.53
6.34
8.07
9.84
11.56
13.07
14.24
14.97
15.23
14.95
14.09
12.48
10.08
6.99
3.55
0.33
-2.11
-3.29
-3.14
-1.93
-0.26
1.21
2.01
1.92
1.15
-0.00
-1.14
-2.17
-3.20
-4.49
-6.27
-8.53
-11.07
-13.40
-15.09
-15.79
-15.40
-14.02
-11.83
-9.14
-6.16
-3.13
-0.24
2.39
4.68
6.64
8.26
9.56
10.47
10.96
11.00
10.63
9.98
9.17
8.36
7.64
7.09
6.69
6.35
5.97
5.49
4.94
4.37
3.91
3.53
3.10
2.33
0.99
-0.94
-3.29
-5.57
-7.37
-8.35
-8.60
-8.45
-8.38
-8.77
-9.67
-10.90
-11.95
-12.47
-12.19
-11.21
-9.76
-8.11
-6.49
-4.88
-3.27
-1.55
0.27
2.12
3.87
5.41
6.73
7.80
8.59
8.98
8.83
8.06
6.74
5.11
3.48
2.23
1.48
1.28
1.45
1.75
1.97
1.95
1.63
0.92
-0.10
-1.42
-2.88
-4.32
-5.60
-6.58
-7.24
-7.55
-7.64
-7.64
-7.76
-8.19
-9.00
-10.21
-11.56
-12.74
-13.30
-13.00
-11.79
-9.91
-7.79
-5.79
-4.14
-2.78
-1.56
-0.25
1.25
2.84
4.34
5.47
6.04
5.93
5.23
4.15
3.00
2.12
1.68
1.70
1.96
2.23
2.25
2.01
1.58
1.07
0.59
0.11
-0.38
-0.90
-1.37
-1.70
-1.88
-1.99
-2.29
-3.02
-4.31
-6.05
-7.94
-9.58
-10.58
-10.78
-10.18
-8.98
-7.35
-5.47
-3.45
-1.40
0.56
2.36
3.83
4.99
5.85
6.49
6.94
7.14
7.02
6.49
5.61
4.49
3.33
2.27
1.36
0.62
0.02
-0.39
-0.55
-0.35
0.06
0.48
0.56
0.06
-0.96
-2.24
-3.35
-4.04
-4.31
-4.46
-4.84
-5.70
-7.04
-8.56
-9.97
-11.03
-11.77
-12.30
-12.71
-12.88
-12.51
-11.37
-9.35
-6.76
-4.09
-1.77
-0.03
1.31
2.49
3.73
4.92
5.78
5.98
5.44
4.41
3.36
2.72
2.62
2.95
3.35
3.54
3.37
2.91
2.34
1.80
1.34
0.82
0.17
-0.70
-1.74
-2.76
-3.59
-4.06
-4.17
-4.02
-3.86
-3.96
-4.48
-5.45
-6.68
-7.95
-8.96
-9.59
-9.75
-9.44
-8.71
-7.60
-6.23
-4.70
-3.25
-2.00
-1.04
-0.32
0.36
1.17
2.20
3.33
4.40
5.15
5.42
5.23
4.67
4.00
3.35
2.90
2.66
2.57
2.54
2.46
2.29
1.90
1.29
0.35
-0.86
-2.23
-3.54
-4.59
-5.27
-5.57
-5.72
-5.93
-6.40
-7.17
-8.12
-9.10
-9.92
-10.53
-10.82
-10.80
-10.35
-9.41
-7.94
-5.93
-3.53
-0.93
1.60
3.76
5.31
6.12
6.22
5.77
5.01
4.13
3.27
2.45
1.65
0.84
0.04
-0.68
-1.30
-1.74
-2.03
-2.16
-2.21
-2.16
-1.98
-1.59
-0.92
-0.03
0.95
1.73
1.98
1.49
0.16
-1.88
-4.49
-7.35
-10.17
-12.53
-14.04
-14.28
-13.04
-10.40
-6.68
-2.48
1.60
5.00
7.42
8.71
8.86
8.01
6.29
4.00
1.46
-0.93
-2.78
-3.81
-3.85
-2.98
-1.39
0.56
2.55
4.31
5.66
6.56
7.04
7.17
6.92
6.30
5.31
3.99
2.44
0.80
-0.80
-2.33
-3.74
-5.10
-6.38
-7.56
-8.55
-9.19
-9.33
-8.79
-7.58
-5.79
-3.73
-1.75
-0.17
0.76
1.08
0.93
0.65
0.61
1.06
2.09
3.50
4.94
6.02
6.52
6.48
6.16
5.89
5.85
6.00
6.09
5.89
5.27
4.33
3.25
2.24
1.37
0.64
-0.02
-0.70
-1.37
-2.02
-2.56
-3.00
-3.40
-3.83
-4.42
-5.18
-6.08
-6.90
-7.44
-7.49
-6.96
-5.98
-4.80
-3.76
-3.05
-2.75
-2.71
-2.66
-2.38
-1.64
-0.50
0.92
2.37
3.66
4.69
5.44
5.97
6.32
6.62
6.82
6.91
6.79
6.41
5.79
4.97
4.06
3.09
2.12
1.09
0.02
-1.01
-1.84
-2.29
-2.28
-1.86
-1.31
-0.92
-0.94
-1.46
-2.40
-3.67
-5.15
-6.81
-8.52
-10.09
-11.19
-11.53
-10.98
-9.64
-7.89
-6.09
-4.54
-3.33
-2.38
-1.60
-0.93
-0.39
0.07
0.48
0.96
1.59
2.28
2.84
3.00
2.63
1.74
0.64
-0.30
-0.71
-0.41
0.54
2.00
3.67
5.37
6.81
7.70
7.75
6.76
4.75
1.94
-1.21
-4.26
-6.86
-8.92
-10.40
-11.26
-11.37
-10.55
-8.85
-6.56
-4.28
-2.66
-2.16
-2.79
-4.09
-5.38
-5.83
-4.95
-2.56
1.09
5.47
9.91
13.74
16.47
17.76
17.49
15.76
12.88
9.36
5.89
3.18
1.73
1.77
3.02
4.92
6.84
8.29
9.09
9.31
9.18
8.82
8.27
7.45
6.16
4.19
1.29
-2.62
-7.39
-12.41
-16.77
-19.56
-20.21
-18.88
-16.29
-13.58
-11.68
-11.09
-11.73
-13.14
-14.73
-15.91
-16.32
-15.70
-14.06
-11.60
-8.70
-5.82
-3.30
-1.37
0.03
0.98
1.62
2.03
2.20
2.20
2.12
2.13
2.31
2.70
3.15
3.42
3.30
2.61
1.45
0.02
-1.32
-2.30
-2.75
-2.64
-2.11
-1.37
-0.76
-0.54
-1.00
-2.17
-3.93
-5.93
-7.66
-8.61
-8.30
-6.40
-2.73
2.58
9.10
16.05
22.47
27.51
30.72
32.24
32.44
31.72
30.03
27.05
22.46
16.49
10.08
4.48
0.72
-1.28
-2.72
-5.42
-10.76
-18.76
-27.80
-35.40
-39.56
-39.85
-37.66
-35.22
-34.11
-34.38
-34.61
-33.04
-28.86
-22.90
-16.90
-12.32
-9.18
-6.03
-1.02
6.79
16.48
25.79
32.12
33.95
31.30
25.32
17.46
8.71
-0.39
-9.41
-17.58
-23.77
-26.98
-26.97
-24.68
-22.03
-21.17
-23.48
-28.92
-36.05
-42.82
-47.51
-49.47
-49.26
-48.12
-47.31
-47.43
-48.09
-48.13
-45.92
-39.86
-28.89
-12.90
7.06
28.74
49.05
64.85
73.94
75.85
72.05
65.46
59.30
55.97
56.33
59.56
63.85
67.17
68.19
66.52
62.66
57.63
52.61
48.61
46.30
45.93
47.23
49.52
51.97
53.90
55.09
55.72
56.25
56.99
57.97
58.77
58.70
56.82
52.11
43.80
31.80
17.24
2.52
-9.40
-16.26
-17.87
-16.45
-15.88
-19.75
-29.75
-44.85
-61.98
-77.46
-88.41
-93.48
-92.80
-87.62
-79.78
-71.42
-64.51
-60.43
-59.56
-61.15
-63.82
-66.10
-67.05
-66.39
-64.39
-61.66
-58.79
-56.41
-54.74
-53.43
-51.15
-45.75
-34.79
-16.50
9.24
40.63
73.98
104.72
128.29
141.29
142.11
131.20
110.94
84.89
57.02
30.74
8.37
-9.05
-21.52
-29.62
-34.11
-35.61
-34.67
-31.67
-27.00
-20.98
-13.99
-6.48
0.92
7.33
12.07
14.96
16.96
19.91
25.82
35.55
47.95
59.84
67.03
66.27
56.65
40.10
20.40
1.40
-14.44
-26.84
-36.99
-46.42
-55.73
-64.33
-70.92
-74.44
-74.97
-73.74
-72.84
-74.20
-78.90
-86.53
-95.21
-102.10
-104.06
-98.82
-85.40
-64.78
-39.40
-12.62
12.25
32.70
47.32
56.02
59.50
59.19
56.58
53.11
49.81
47.01
44.54
41.67
37.83
32.56
25.93
18.23
10.02
1.97
-5.21
-10.74
-14.13
-15.20
-14.38
-12.47
-10.39
-8.85
-7.98
-7.48
-6.68
-5.09
-2.51
0.92
4.85
9.00
13.09
16.99
20.44
23.17
24.83
25.18
24.26
22.25
19.58
16.45
12.96
9.00
4.52
-0.30
-5.09
-9.22
-12.18
-13.52
-13.14
-11.13
-7.74
-3.19
2.46
9.08
16.38
23.55
29.47
32.94
33.16
30.15
24.60
17.69
10.30
2.89
-4.67
-12.45
-20.00
-26.24
-29.83
-29.97
-26.88
-21.86
-16.64
-12.57
-10.09
-8.57
-7.02
-4.52
-0.86
3.62
8.19
12.21
15.40
17.87
20.16
22.69
25.57
28.09
28.99
26.98
21.56
13.78
5.86
0.53
-0.54
2.63
8.32
14.14
18.47
21.01
22.71
24.63
27.22
29.81
31.08
29.61
24.33
14.85
1.28
-15.51
-34.06
-52.26
-67.76
-78.82
-84.79
-86.67
-86.28
-85.58
-85.42
-85.13
-82.88
-76.83
-66.14
-51.25
-33.55
-13.96
7.69
31.94
58.03
82.52
99.89
105.02
96.47
77.41
54.02
31.56
11.52
-8.12
-29.66
-51.45
-66.96
-67.50
-47.95
-10.75
34.24
74.36
100.60
111.31
111.76
109.64
110.17
113.49
115.67
111.82
99.31
79.50
56.70
35.96
20.61
10.80
3.55
-5.74
-21.07
-44.06
-72.96
-103.22
-128.87
-144.37
-146.57
-135.82
-116.15
-93.85
-75.29
-64.40
-61.31
-62.47
-62.37
-56.00
-40.57
-16.02
15.79
52.17
90.30
127.18
159.20
182.48
193.66
191.44
177.34
155.48
130.99
108.28
89.55
74.41
60.81
46.20
28.96
9.24
-10.73
-27.02
-35.22
-32.12
-17.63
4.43
26.88
41.34
41.14
23.74
-8.26
-48.38
-88.61
-122.24
-145.45
-157.48
-159.51
-153.12
-139.49
-119.49
-94.74
-68.39
-45.30
-30.82
-28.73
-39.35
-58.81
-80.29
-96.11
-100.40
-90.87
-69.34
-41.12
-13.13
7.95
17.80
15.45
3.57
-12.52
-26.54
-33.02
-28.58
-12.19
15.10
50.80
91.17
131.56
166.91
192.53
205.43
205.16
193.89
175.38
153.79
132.43
113.07
96.05
80.65
66.17
52.72
41.95
36.41
38.27
47.49
60.71
72.06
75.13
65.71
43.19
10.39
-28.29
-68.86
-108.45
-144.97
-175.93
-198.30
-209.20
-207.65
-195.62
-177.72
-159.99
-147.83
-144.63
-150.89
-164.31
-180.13
-191.90
-192.75
-177.34
-144.25
-97.39
-45.70
-0.48
28.44
36.40
25.63
4.08
-17.45
-29.02
-24.05
-0.57
39.11
89.54
143.25
192.24
229.13
248.80
249.28
232.20
201.89
163.87
123.46
84.61
49.64
19.21
-6.86
-28.91
-46.78
-59.51
-65.72
-64.48
-56.76
-46.00
-37.68
-37.21
-47.35
-66.75
-90.21
-111.06
-123.80
-126.16
-119.01
-105.01
-86.91
-66.81
-46.87
-30.06
-20.49
-21.89
-35.47
-58.22
-83.14
-101.53
-106.05
-93.31
-64.83
-26.34
13.83
47.01
66.07
67.27
51.20
23.02
-8.82
-34.67
-46.50
-39.81
-14.21
27.17
78.89
134.06
185.31
225.61
249.52
254.45
241.28
214.05
178.41
140.06
103.32
70.69
43.24
21.39
5.70
-3.23
-5.07
-0.67
7.31
14.39
15.12
5.02
-17.45
-49.40
-84.15
-113.44
-130.73
-133.76
-124.89
-109.49
-92.91
-78.20
-65.72
-54.59
-44.73
-38.14
-38.30
-48.06
-67.29
-91.93
-115.18
-130.00
-131.38
-117.57
-89.81
-51.56
-7.75
35.70
72.55
97.48
107.60
103.56
89.37
71.20
55.56
47.83
51.64
68.64
98.31
137.43
180.07
218.32
244.48
253.90
246.65
227.32
202.75
179.25
160.27
145.93
134.04
121.67
106.55
87.53
64.51
37.93
8.67
-22.06
-52.76
-81.76
-107.83
-130.73
-151.82
-173.48
-197.71
-224.13
-248.98
-266.29
-270.91
-262.06
-244.78
-228.03
-219.92
-223.15
-233.69
-243.46
-245.75
-239.07
-227.35
-215.94
-207.11
-198.08
-183.09
-158.09
-123.94
-86.31
-51.74
-23.30
1.22
27.25
58.65
94.00
125.97
144.99
144.52
125.00
94.02
62.56
39.33
26.21
17.60
3.82
-23.05
-64.62
-115.48
-166.69
-210.90
-245.87
-274.16
-299.53
-323.04
-341.49
-349.12
-341.24
-317.17
-280.87
-238.86
-197.29
-159.79
-127.06
-97.88
-70.41
-43.30
-15.96
11.33
37.54
61.33
81.58
98.01
111.44
123.45
135.62
148.83
162.97
177.26
191.07
204.62
219.74
239.53
267.05
302.83
343.17
380.40
405.67
413.68
405.74
389.27
373.03
361.67
352.78
338.98
313.17
273.26
223.09
168.77
113.99
58.03
-1.75
-65.00
-125.31
-171.72
-194.30
-189.72
-163.14
-125.04
-85.27
-48.23
-11.76
29.65
80.05
138.15
196.82
245.54
275.09
281.53
267.30
239.72
206.93
173.96
140.88
104.78
63.55
19.31
-22.01
-54.01
-73.47
-81.82
-83.58
-82.68
-80.13
-74.66
-65.39
-54.79
-48.27
-50.35
-60.63
-73.43
-81.21
-79.37
-69.01
-54.80
-41.27
-29.50
-16.96
-0.42
19.97
40.00
54.04
55.63
45.59
30.83
18.63
12.05
12.52
19.97
36.28
63.35
99.87
138.83
168.89
177.88
158.58
113.45
54.42
-0.83
-36.15
-43.22
-24.39
8.35
37.97
49.68
36.64
1.11
-47.71
-98.85
-143.83
-177.82
-198.48
-204.45
-194.42
-167.99
-127.98
-80.84
-35.15
1.64
26.18
39.79
46.17
48.28
46.29
38.01
21.99
0.70
-18.06
-22.81
-3.05
45.69
118.78
203.47
283.10
343.17
375.72
380.56
363.46
332.48
294.92
255.87
218.57
185.33
158.46
140.01
130.73
129.46
132.78
136.23
136.04
130.47
120.13
107.11
93.70
80.94
68.33
54.22
37.02
16.23
-7.23
-31.45
-54.53
-75.47
-94.64
-113.37
-133.14
-154.66
-177.46
-200.09
-220.94
-239.06
-254.54
-268.64
-283.47
-301.59
-325.15
-354.49
-386.92
-416.11
-433.39
-430.41
-402.61
-351.53
-284.68
-213.14
-147.59
-95.23
-58.52
-36.23
-25.65
-24.33
-30.51
-42.31
-57.10
-71.55
-82.91
-90.39
-95.81
-102.98
-116.32
-139.09
-172.21
-213.75
-259.02
-301.34
-333.27
-348.29
-342.74
-316.99
-275.59
-225.64
-174.58
-127.91
-88.43
-56.93
-33.39
-18.04
-11.15
-12.30
-19.54
-29.61
-38.77
-43.97
-43.69
-37.99
-28.41
-17.49
-8.39
-4.31
-7.59
-18.71
-35.48
-53.46
-67.29
-72.95
-69.25
-58.22
-43.83
-29.93
-18.81
-10.81
-5.38
-2.31
-2.61
-8.07
-19.96
-37.72
-58.42
-77.55
-90.55
-94.52
-89.05
-75.91
-57.90
-37.60
-16.70
3.96
23.81
42.27
58.98
74.60
91.42
112.77
141.36
176.80
214.52
246.75
265.72
267.41
253.56
230.73
206.86
187.78
175.37
168.19
163.54
159.26
154.22
147.39
137.01
120.63
96.47
65.05
29.74
-4.12
-31.27
-48.23
-54.09
-49.87
-37.46
-18.65
4.64
29.77
52.99
69.89
76.86
72.59
58.99
40.68
22.92
9.29
0.20
-6.84
-15.65
-28.97
-46.74
-65.81
-81.27
-88.35
-84.32
-69.46
-46.47
-19.54
7.46
32.25
54.61
76.18
99.66
128.05
163.71
207.58
258.08
310.61
357.76
390.73
402.09
388.49
352.10
299.81
240.56
181.98
128.12
79.33
34.21
-7.97
-46.06
-77.70
-101.15
-116.89
-127.46
-135.92
-143.87
-150.67
-153.85
-150.95
-141.16
-125.70
-107.07
-87.50
-67.99
-48.06
-26.57
-2.56
23.89
51.70
79.03
103.79
124.24
139.58
150.23
157.70
164.13
171.56
181.24
193.09
205.43
215.28
218.81
212.35
193.41
161.38
117.62
64.84
6.09
-56.11
-119.69
-182.40
-240.98
-291.12
-328.44
-349.92
-355.28
-347.01
-329.58
-307.89
-286.03
-266.59
-250.75
-238.97
-231.33
-227.82
-228.02
-231.30
-236.76
-243.33
-249.44
-252.68
-249.90
-238.08
-215.88
-184.78
-149.19
-114.97
-86.94
-66.56
-51.07
-34.52
-10.05
27.52
80.01
145.44
218.88
294.04
365.16
428.70
484.28
534.28
582.04
629.33
674.52
712.35
735.90
739.52
721.54
684.79
635.20
579.10
521.10
463.54
407.44
354.08
305.85
265.94
237.10
220.32
214.32
216.09
222.11
229.42
236.25
241.77
245.37
245.92
241.50
229.55
207.56
173.91
128.54
73.05
10.36
-55.78
-121.47
-183.08
-237.59
-282.79
-317.42
-341.16
-354.69
-359.53
-357.72
-351.46
-342.80
-333.47
-324.92
-318.47
-315.34
-316.66
-323.19
-335.18
-352.39
-374.19
-399.63
-427.05
-453.80
-476.17
-490.14
-492.61
-482.79
-462.91
-437.50
-411.79
-389.66
-372.58
-359.59
-348.54
-337.58
-326.11
-314.69
-304.23
-295.07
-286.20
-275.53
-260.56
-239.33
-211.18
-176.86
-138.09
-96.93
-55.71
-17.45
13.52
31.76
32.09
11.93
-26.48
-75.44
-123.45
-158.93
-173.91
-166.67
-141.69
-107.49
-73.29
-46.00
-28.63
-19.98
-15.50
-8.65
7.11
35.97
77.62
126.39
172.52
205.06
215.79
202.26
168.76
124.99
83.22
54.73
46.70
60.56
91.80
131.86
171.11
201.97
220.68
227.18
223.35
210.94
190.92
164.27
133.85
104.92
83.50
73.28
73.00
76.47
75.46
64.08
42.22
15.48
-7.94
-21.71
-24.58
-20.79
-17.52
-20.82
-32.50
-49.15
-64.17
-71.32
-67.92
-55.84
-39.91
-24.99
-13.45
-4.72
3.16
11.26
18.60
22.95
22.76
18.93
14.54
12.92
15.18
19.14
20.39
14.85
1.17
-18.53
-39.81
-58.05
-70.23
-75.52
-74.80
-69.61
-61.58
-52.09
-42.67
-34.84
-30.06
-29.16
-32.13
-37.95
-44.85
-50.55
-52.81
-49.95
-41.36
-27.81
-11.29
5.64
20.66
32.49
40.93
46.61
50.26
52.41
53.03
51.86
48.66
43.29
35.69
25.58
12.38
-4.71
-26.05
-51.19
-78.56
-105.69
-129.97
-149.42
-163.27
-171.89
-176.21
-176.92
-173.99
-166.77
-154.52
-137.13
-115.39
-90.86
-65.22
-39.75
-15.15
8.38
30.76
51.87
71.47
89.42
105.94
121.78
138.26
156.77
178.13
201.93
226.35
248.59
265.88
276.32
279.27
275.35
265.93
252.83
238.08
223.77
211.60
202.30
195.21
188.36
179.27
166.17
148.90
129.21
110.33
95.95
89.14
91.73
103.59
122.42
143.82
162.13
171.91
169.64
154.82
129.97
99.45
67.70
37.89
11.38
-12.01
-33.10
-52.77
-71.38
-88.68
-104.04
-116.83
-126.86
-134.65
-141.39
-148.36
-156.33
-164.97
-172.86
-178.21
-179.78
-177.43
-171.87
-164.11
-154.57
-143.00
-128.87
-112.17
-93.88
-75.91
-60.46
-49.11
-42.07
-37.89
-33.89
-27.19
-16.17
-1.52
13.44
23.97
25.93
17.79
1.57
-18.06
-35.89
-48.74
-56.91
-63.61
-72.98
-87.65
-107.33
-129.17
-149.40
-165.57
-177.86
-188.99
-202.40
-220.00
-240.43
-259.15
-270.27
-269.37
-255.95
-233.94
-210.06
-190.60
-178.48
-172.12
-166.41
-155.41
-135.34
-106.19
-71.46
-36.50
-6.41
15.56
28.68
34.74
37.19
40.29
47.87
62.47
84.71
113.41
146.38
181.51
217.68
254.95
294.33
336.96
383.23
432.06
480.47
523.84
556.81
574.79
575.50
559.89
532.01
497.34
461.05
426.40
394.54
365.28
338.28
313.80
292.39
274.16
257.80
240.69
219.65
192.35
158.41
119.77
80.02
42.84
10.51
-17.14
-42.49
-69.14
-100.10
-136.67
-178.11
-222.17
-266.21
-307.60
-343.87
-372.20
-389.25
-391.90
-378.49
-349.84
-309.10
-260.56
-207.98
-154.08
-101.28
-53.23
-15.50
5.96
8.11
-5.94
-26.46
-39.99
-35.17
-8.15
35.48
82.61
118.01
129.84
113.14
70.33
9.92
-56.15
-115.35
-157.38
-177.41
-177.80
-167.86
-160.00
-164.44
-184.74
-216.75
-251.33
-279.32
-295.67
-300.35
-296.17
-285.09
-266.35
-237.69
-198.70
-153.75
-111.81
-82.94
-72.81
-79.07
-91.51
-96.20
-81.71
-43.57
14.68
83.84
153.04
213.43
259.59
289.05
301.83
300.05
288.11
271.67
255.95
243.35
232.33
218.30
196.58
165.52
127.76
88.71
52.93
21.16
-9.95
-44.79
-84.58
-124.65
-155.35
-166.91
-155.25
-125.19
-88.80
-59.60
-45.95
-47.57
-57.05
-65.30
-67.22
-63.91
-60.54
-62.02
-69.34
-79.35
-87.31
-90.25
-88.36
-84.09
-79.76
-75.68
-70.13
-60.85
-47.04
-30.24
-13.76
-1.02
6.12
8.33
8.51
10.44
17.30
30.21
47.91
67.27
84.70
97.58
105.02
107.72
107.04
104.22
99.91
94.55
88.73
83.31
79.10
76.35
74.55
72.52
69.06
63.49
55.92
47.07
37.86
29.14
21.55
15.61
11.66
9.84
9.83
10.92
12.11
12.56
11.92
10.37
8.45
6.61
4.97
3.35
1.48
-0.63
-2.59
-3.80
-3.80
-2.55
-0.44
1.96
4.29
6.55
9.06
12.16
15.97
20.26
24.57
28.52
31.95
34.92
37.53
39.71
41.08
41.13
39.51
36.30
32.11
27.88
24.63
23.02
23.20
24.70
26.63
28.02
28.18
26.89
24.53
21.90
19.76
18.55
18.21
18.32
18.40
18.13
17.50
16.55
15.22
13.12
9.69
4.48
-2.43
-10.32
-17.94
-23.91
-27.25
-27.65
-25.54
-21.82
-17.49
-13.34
-9.74
-6.79
-4.41
-2.53
-1.11
-0.01
1.05
2.55
4.82
7.87
11.19
13.91
15.14
14.38
11.75
7.82
3.34
-1.05
-4.98
-8.14
-10.26
-11.00
-10.22
-8.14
-5.45
-3.08
-1.78
-1.84
-2.98
-4.60
-6.09
-7.04
-7.26
-6.66
-5.23
-2.96
-0.10
2.88
5.33
6.71
6.85
5.98
4.65
3.38
2.45
1.76
1.07
0.19
-0.76
-1.41
-1.33
-0.29
1.47
3.34
4.50
4.33
2.65
-0.26
-3.77
-7.25
-10.22
-12.37
-13.50
-13.46
-12.15
-9.67
-6.36
-2.86
0.17
2.24
3.26
3.47
3.18
2.64
1.85
0.75
-0.71
-2.35
-3.85
-4.87
-5.24
-5.05
-4.57
-4.06
-3.67
-3.34
-2.94
-2.37
-1.68
-1.11
-0.91
-1.23
-2.01
-2.99
-3.78
-4.10
-3.82
-2.97
-1.72
-0.21
1.41
3.05
4.60
5.90
6.76
6.99
6.49
5.27
3.52
1.55
-0.32
-1.84
-2.92
-3.60
-4.05
-4.39
-4.68
-4.89
-4.94
-4.77
-4.41
-3.96
-3.54
-3.21
-2.99
-2.87
-2.89
-3.14
-3.75
-4.77
-6.07
-7.36
-8.22
-8.32
-7.57
-6.21
-4.72
-3.60
-3.13
-3.27
-3.71
-4.05
-4.02
-3.54
-2.72
-1.72
-0.66
0.36
1.21
1.68
1.59
0.86
-0.37
-1.73
-2.76
-3.17
-2.96
-2.40
-1.92
-1.87
-2.36
-3.28
-4.44
-5.64
-6.76
-7.63
-8.04
-7.70
-6.40
-4.16
-1.35
1.44
3.59
4.73
4.88
4.37
3.63
3.01
2.62
2.36
2.09
1.69
1.14
0.50
-0.17
-0.85
-1.50
-2.11
-2.64
-3.04
-3.24
-3.20
-2.90
-2.38
-1.74
-1.07
-0.48
0.02
0.50
1.11
1.96
3.06
4.23
5.20
5.65
5.45
4.62
3.40
2.04
0.79
-0.25
-1.05
-1.63
-2.04
-2.32
-2.53
-2.80
-3.30
-4.17
-5.44
-6.96
-8.48
-9.66
-10.35
-10.55
-10.47
-10.35
-10.39
-10.64
-11.01
-11.36
-11.55
-11.49
-11.09
-10.25
-8.84
-6.84
-4.37
-1.71
0.81
2.97
4.73
6.26
7.74
9.30
10.86
12.15
12.90
12.95
12.37
11.44
10.48
9.68
9.01
8.21
7.03
5.36
3.36
1.44
-0.02
-0.83
-1.09
-1.17
-1.50
-2.31
-3.56
-4.95
-6.02
-6.38
-5.79
-4.29
-2.18
0.08
1.94
3.00
3.11
2.41
1.32
0.29
-0.30
-0.34
0.03
0.53
0.84
0.75
0.21
-0.74
-1.93
-3.16
-4.30
-5.20
-5.79
-6.06
-6.07
-5.89
-5.64
-5.38
-5.16
-5.03
-5.02
-5.13
-5.32
-5.48
-5.45
-5.04
-4.17
-2.88
-1.35
0.15
1.39
2.27
2.83
3.21
3.53
3.77
3.88
3.74
3.27
2.51
1.59
0.68
-0.06
-0.53
-0.80
-0.98
-1.24
-1.71
-2.39
-3.21
-3.99
-4.59
-4.96
-5.22
-5.57
-6.25
-7.36
-8.78
-10.17
-11.12
-11.24
-10.39
-8.68
-6.50
-4.29
-2.38
-0.86
0.39
1.57
2.84
4.23
5.59
6.73
7.45
7.71
7.55
7.10
6.46
5.72
4.90
4.07
3.28
2.67
2.31
2.20
2.21
2.15
1.84
1.16
0.16
-1.04
-2.25
-3.29
-4.01
-4.30
-4.14
-3.61
-2.80
-1.86
-0.84
0.27
1.51
2.86
4.20
5.35
6.13
6.47
6.41
6.00
5.28
4.22
2.77
0.99
-0.91
-2.58
-3.68
-4.04
-3.72
-2.98
-2.19
-1.73
-1.80
-2.47
-3.62
-5.05
-6.50
-7.69
-8.41
-8.54
-8.02
-6.91
-5.36
-3.59
-1.92
-0.60
0.13
0.20
-0.28
-1.04
-1.73
-2.03
-1.81
-1.11
-0.14
0.84
1.62
2.17
2.46
2.53
2.35
1.89
1.15
0.22
-0.69
-1.38
-1.74
-1.82
-1.85
-2.05
-2.54
-3.21
-3.83
-4.10
-3.88
-3.25
-2.42
-1.63
-0.97
-0.39
0.28
1.13
2.16
3.20
4.06
4.56
4.66
4.39
3.83
3.06
2.06
0.89
-0.36
-1.44
-2.11
-2.19
-1.72
-0.94
-0.25
-0.02
-0.43
-1.42
-2.72
-3.99
-5.02
-5.77
-6.39
-6.99
-7.61
-8.08
-8.14
-7.54
-6.25
-4.44
-2.47
-0.71
0.68
1.68
2.43
3.07
3.62
3.96
3.97
3.62
3.05
2.50
2.17
2.08
2.07
1.89
1.38
0.52
-0.47
-1.28
-1.70
-1.68
-1.43
-1.24
-1.38
-1.90
-2.75
-3.75
-4.75
-5.68
-6.53
-7.23
-7.66
-7.64
-7.04
-5.84
-4.23
-2.48
-0.88
0.44
1.45
2.25
2.90
3.38
3.64
3.61
3.29
2.77
2.19
1.67
1.32
1.16
1.10
1.03
0.81
0.36
-0.35
-1.27
-2.33
-3.43
-4.47
-5.39
-6.09
-6.57
-6.86
-7.03
-7.22
-7.53
-8.00
-8.55
-9.03
-9.30
-9.29
-8.98
-8.37
-7.50
-6.43
-5.36
-4.54
-4.23
-4.53
-5.30
-6.22
-6.92
-7.24
-7.25
-7.27
-7.60
-8.35
-9.36
-10.19
-10.36
-9.47
-7.37
-4.14
-0.11
4.27
8.51
12.16
14.98
16.96
18.32
19.46
20.81
22.69
25.08
27.79
30.38
32.38
33.47
33.52
32.63
30.99
28.77
26.08
23.00
19.61
16.09
12.76
9.86
7.58
5.83
4.44
3.17
1.91
0.67
-0.39
-1.14
-1.56
-1.77
-1.99
-2.48
-3.42
-4.88
-6.76
-8.80
-10.63
-11.85
-12.18
-11.54
-10.04
-7.95
-5.57
-3.15
-0.88
1.12
2.71
3.76
4.15
3.89
3.13
2.13
1.16
0.34
-0.30
-0.89
-1.55
-2.33
-3.18
-3.94
-4.51
-4.87
-5.10
-5.30
-5.52
-5.70
-5.76
-5.63
-5.39
-5.19
-5.20
-5.53
-6.03
-6.45
-6.48
-5.96
-4.96
-3.68
-2.40
-1.27
-0.36
0.39
1.03
1.54
1.86
1.89
1.62
1.16
0.72
0.44
0.37
0.41
0.35
0.05
-0.52
-1.19
-1.72
-1.92
-1.78
-1.49
-1.35
-1.62
-2.37
-3.50
-4.80
-6.10
-7.32
-8.40
-9.28
-9.75
-9.61
-8.68
-7.04
-4.99
-2.95
-1.28
-0.09
0.71
1.34
1.92
2.42
2.72
2.66
2.24
1.52
0.68
-0.22
-1.22
-2.42
-3.91
-5.66
-7.55
-9.37
-10.97
-12.23
-13.07
-13.38
-13.03
-11.94
-10.13
-7.78
-5.21
-2.70
-0.43
1.56
3.38
5.09
6.61
7.78
8.43
8.49
8.15
7.68
7.46
7.74
8.60
9.95
11.58
13.20
14.50
15.29
15.46
15.01
14.02
12.61
10.91
9.03
7.09
5.24
3.63
2.37
1.50
0.97
0.64
0.35
-0.07
-0.73
-1.64
-2.71
-3.78
-4.58
-4.92
-4.69
-3.95
-2.94
-1.85
-0.81
0.16
1.17
2.29
3.51
4.74
5.82
6.61
7.07
7.22
7.14
6.92
6.63
6.26
5.72
4.92
3.74
2.19
0.37
-1.47
-3.08
-4.26
-5.00
-5.47
-5.89
-6.44
-7.13
-7.85
-8.42
-8.68
-8.63
-8.27
-7.70
-6.94
-5.96
-4.71
-3.24
-1.66
-0.10
1.26
2.35
3.15
3.66
3.85
3.68
3.14
2.31
1.39
0.69
0.42
0.68
1.37
2.21
2.95
3.40
3.54
3.52
3.52
3.64
3.84
3.94
3.65
2.71
1.07
-1.15
-3.59
-5.80
-7.35
-8.05
-7.92
-7.26
-6.48
-5.90
-5.74
-5.97
-6.53
-7.35
-8.55
-10.38
-13.17
-17.06
-21.85
-26.94
-31.34
-34.02
-34.25
-31.81
-27.11
-21.05
-14.69
-8.95
-4.45
-1.37
0.44
1.38
1.88
2.36
3.10
4.24
5.77
7.62
9.62
11.61
13.40
14.75
15.43
15.13
13.57
10.60
6.24
0.81
-5.13
-10.81
-15.61
-19.14
-21.59
-23.53
-25.72
-28.68
-32.41
-36.41
-39.89
-42.27
-43.42
-43.75
-44.00
-44.80
-46.43
-48.63
-50.69
-51.56
-49.98
-44.63
-34.44
-19.11
0.52
22.25
43.00
59.71
70.52
75.37
75.90
74.52
73.30
73.19
73.95
74.76
74.97
74.53
73.90
73.55
73.45
73.03
71.47
68.16
63.06
56.73
50.06
43.79
38.18
33.00
27.67
21.75
15.16
8.38
2.19
-2.60
-5.61
-7.03
-7.49
-7.80
-8.58
-10.05
-12.03
-14.10
-15.81
-16.81
-16.98
-16.38
-15.24
-13.78
-12.22
-10.58
-8.75
-6.52
-3.67
-0.18
3.79
7.86
11.59
14.58
16.59
17.58
17.65
17.04
15.98
14.71
13.37
12.06
10.85
9.79
8.97
8.42
8.20
8.33
8.82
9.65
10.70
11.84
12.78
13.24
12.93
11.71
9.57
6.56
2.93
-0.95
-4.35
-6.31
-5.80
-2.20
4.27
12.40
20.23
25.82
27.88
26.38
22.42
17.74
13.98
11.99
11.65
12.04
12.04
10.73
7.85
3.78
-0.58
-4.10
-5.96
-5.72
-3.82
-1.34
0.13
-0.91
-5.31
-12.92
-22.37
-31.61
-38.42
-41.18
-39.27
-33.21
-24.46
-14.88
-6.42
-0.55
1.93
1.04
-2.33
-6.86
-11.04
-13.83
-14.76
-14.04
-12.26
-9.94
-7.13
-3.25
2.57
11.13
22.40
35.45
48.52
59.64
67.29
70.65
69.84
65.25
57.52
47.13
34.66
21.07
7.72
-3.86
-12.63
-18.33
-21.70
-23.87
-25.76
-27.51
-28.40
-27.52
-24.28
-19.06
-12.96
-7.25
-2.78
0.39
2.79
5.25
8.20
11.72
15.36
18.58
21.01
22.66
24.02
25.56
27.48
29.06
28.90
25.15
16.40
2.55
-15.11
-33.99
-51.52
-65.88
-76.62
-84.25
-89.47
-92.50
-92.71
-89.32
-81.68
-70.02
-55.22
-38.54
-21.05
-3.42
13.88
30.42
45.29
57.38
65.60
69.43
69.36
66.71
63.47
61.57
62.52
66.78
73.74
81.63
87.92
90.03
85.72
73.90
54.53
28.67
-2.42
-37.54
-75.45
-114.27
-150.70
-180.57
-199.95
-207.02
-203.00
-191.47
-176.31
-159.33
-139.29
-112.67
-76.14
-28.78
27.36
88.41
150.90
212.72
272.55
327.86
373.54
402.40
407.78
386.67
341.60
280.25
212.55
147.40
90.07
41.94
1.93
-31.72
-60.16
-84.09
-104.49
-123.44
-143.83
-168.23
-197.38
-229.36
-259.84
-283.57
-296.43
-296.84
-286.02
-266.81
-242.09
-213.73
-182.65
-149.98
-117.92
-89.64
-67.86
-53.39
-44.95
-40.44
-38.77
-40.41
-46.48
-56.78
-68.82
-78.78
-83.93
-84.85
-85.40
-90.29
-101.70
-117.33
-131.00
-135.84
-127.47
-105.54
-72.98
-33.63
9.77
56.42
106.57
159.96
214.36
265.09
305.78
330.33
335.19
320.82
291.66
254.22
214.42
175.47
137.40
98.62
58.14
17.51
-18.74
-44.42
-53.80
-43.93
-16.07
24.15
68.04
106.06
130.56
137.66
127.78
104.65
73.33
38.40
2.87
-31.72
-64.93
-97.14
-129.86
-165.61
-206.90
-254.15
-303.74
-347.88
-376.51
-380.94
-357.08
-306.80
-237.37
-159.39
-84.65
-24.06
14.46
27.87
19.10
-3.58
-29.24
-48.62
-57.56
-57.82
-54.59
-52.19
-50.60
-45.17
-29.45
0.76
44.61
96.27
147.39
190.36
220.51
236.62
239.76
231.64
213.77
187.26
153.73
116.30
80.05
51.40
36.39
38.37
55.54
81.40
106.73
122.75
124.09
110.55
86.13
56.77
27.24
-1.75
-31.93
-65.49
-103.37
-145.00
-188.91
-234.70
-282.75
-333.25
-386.28
-438.40
-482.80
-511.71
-519.77
-505.83
-473.99
-430.76
-382.07
-333.80
-288.19
-244.60
-201.33
-157.76
-114.58
-74.56
-40.37
-0.02
50.06
106.01
158.75
200.57
225.46
239.80
250.53
262.15
276.05
288.09
292.27
283.88
262.47
232.76
203.61
183.09
173.99
173.64
172.81
162.98
141.42
112.82
85.91
68.80
66.05
77.91
103.24
139.08
181.42
222.71
252.77
261.99
239.51
183.92
104.20
17.29
-59.13
-106.26
-116.52
-97.50
-65.62
-35.95
-15.89
-5.09
-1.26
-2.06
-4.54
-5.57
-0.54
17.40
54.70
113.97
187.95
259.77
309.77
325.56
306.91
264.85
215.11
170.98
139.69
121.91
114.63
114.95
121.81
133.80
149.07
165.23
179.09
187.89
189.92
185.03
174.95
162.71
149.92
137.17
123.78
108.45
89.62
65.91
36.35
0.20
-35.53
-67.18
-93.02
-113.35
-129.94
-145.13
-160.74
-177.13
-192.77
-204.55
-210.32
-208.76
-200.49
-188.13
-175.47
-166.16
-162.27
-163.50
-167.29
-171.22
-173.36
-173.53
-173.32
-175.27
-181.56
-193.13
-209.60
-229.45
-250.61
-269.26
-279.57
-274.74
-249.83
-205.19
-148.31
-92.41
-51.35
-34.18
-40.92
-63.35
-89.77
-110.68
-122.34
-126.18
-125.20
-120.00
-107.74
-83.50
-43.52
12.09
78.78
148.43
211.66
260.02
287.86
293.16
277.16
243.14
194.66
134.68
66.07
-6.96
-77.41
-135.63
-171.68
-178.63
-155.24
-106.12
-39.72
34.43
107.75
173.12
224.49
257.04
268.35
259.67
236.17
205.50
174.79
148.17
125.91
105.68
84.79
62.02
37.90
13.83
-9.24
-31.53
-54.33
-79.08
-106.93
-138.68
-174.74
-215.11
-258.54
-301.81
-339.39
-364.50
-371.20
-356.59
-321.95
-271.99
-212.70
-149.25
-85.19
-23.00
34.33
82.55
116.62
131.99
126.67
102.09
62.70
14.39
-36.94
-86.48
-130.37
-165.39
-189.17
-199.80
-196.09
-178.20
-148.43
-110.99
-71.62
-35.71
-6.55
14.12
27.30
36.64
47.57
65.66
95.47
137.79
189.75
244.72
291.62
319.70
322.89
302.15
264.30
219.43
175.14
135.59
101.32
68.17
32.19
-7.13
-46.58
-81.85
-109.29
-129.66
-145.24
-142.76
-113.65
-59.67
7.14
73.13
123.80
162.49
191.81
211.99
221.96
219.52
203.17
174.89
139.84
103.69
71.59
44.10
19.09
-7.35
-41.20
-86.44
-141.55
-198.57
-246.05
-271.45
-267.03
-230.81
-166.81
-85.02
1.79
80.51
139.20
167.15
159.13
116.44
48.74
-28.33
-98.81
-151.50
-183.07
-196.99
-200.87
-199.30
-192.47
-177.26
-151.14
-115.16
-74.18
-34.75
6.03
46.07
81.88
110.67
132.00
146.80
155.54
160.70
165.47
173.81
188.08
209.86
237.64
265.71
285.43
288.45
270.44
232.74
182.08
126.87
75.54
33.87
3.82
-15.87
-28.12
-35.89
-41.91
-48.39
-57.65
-70.80
-87.50
-106.34
-125.38
-142.91
-157.89
-170.41
-181.51
-193.16
-207.42
-225.95
-249.05
-274.74
-298.26
-312.82
-311.87
-291.73
-253.51
-202.48
-145.62
-88.45
-33.31
19.79
70.56
115.70
148.53
161.42
149.86
115.99
69.16
23.16
-8.27
-15.83
3.04
43.98
97.71
152.63
197.46
223.39
225.58
203.88
162.67
109.75
54.49
5.80
-29.58
-48.03
-49.02
-34.07
-5.59
33.96
81.93
134.68
186.83
231.51
261.83
273.42
266.49
246.07
220.08
195.96
177.78
165.27
155.27
144.49
131.98
119.65
110.69
107.23
108.54
111.12
110.18
101.72
83.68
56.12
20.66
-19.78
-60.81
-96.81
-122.05
-133.15
-131.46
-123.97
-121.32
-133.83
-167.02
-219.16
-281.93
-343.79
-394.12
-426.27
-438.17
-431.17
-408.24
-372.77
-328.10
-277.91
-226.21
-177.20
-134.53
-100.35
-74.25
-53.18
-32.65
-8.90
18.73
46.87
69.17
79.23
74.08
56.10
32.50
12.57
4.29
11.90
35.81
73.92
123.07
179.45
237.88
291.31
331.64
352.27
350.97
331.51
302.42
273.48
251.67
238.56
230.56
221.72
207.26
185.80
159.39
131.78
106.01
83.02
61.57
39.23
13.55
-17.05
-52.94
-92.96
-133.62
-168.67
-189.93
-190.22
-167.16
-126.25
-80.96
-48.83
-45.11
-76.66
-139.36
-219.99
-301.38
-368.48
-412.01
-429.32
-422.50
-396.03
-354.94
-304.26
-249.10
-194.65
-145.96
-106.87
-79.25
-62.43
-53.21
-47.00
-39.33
-27.29
-10.41
9.63
30.41
50.31
69.57
89.83
112.65
138.13
164.50
189.43
211.62
232.03
252.93
275.77
299.06
317.83
325.60
317.40
292.52
254.88
211.30
168.43
130.57
99.02
72.96
51.04
31.98
14.29
-4.59
-28.24
-60.05
-100.88
-147.09
-190.63
-220.88
-228.42
-208.37
-162.26
-97.52
-25.06
43.66
99.40
136.21
151.80
146.73
123.83
87.24
41.51
-8.94
-60.48
-110.41
-156.78
-198.30
-234.51
-265.82
-293.06
-316.91
-336.67
-349.91
-352.72
-341.24
-313.44
-270.31
-215.80
-155.13
-92.81
-31.09
29.91
90.91
151.53
209.09
258.89
295.50
315.02
316.58
302.87
279.34
252.38
227.40
207.08
191.16
177.06
161.88
143.77
122.44
98.40
71.84
42.39
9.78
-24.49
-56.74
-82.00
-96.50
-99.71
-94.70
-86.29
-78.22
-71.27
-63.43
-52.02
-35.85
-16.17
4.40
23.90
42.37
61.86
84.70
111.96
142.68
174.29
203.92
229.29
249.08
262.05
266.59
260.58
242.11
210.70
168.21
118.68
67.13
17.89
-27.00
-67.93
-106.98
-146.35
-187.17
-228.98
-269.84
-306.78
-336.30
-355.15
-361.48
-356.00
-342.35
-325.94
-311.39
-299.68
-286.93
-266.01
-230.32
-178.09
-114.43
-49.89
4.11
40.35
59.04
67.35
75.76
93.14
122.91
161.65
200.53
228.95
238.31
225.04
191.40
144.37
93.25
47.30
14.32
-0.20
6.73
35.11
81.55
139.14
198.48
249.78
285.19
300.73
296.64
276.32
244.62
206.40
165.60
124.94
86.05
49.53
15.29
-16.81
-46.42
-72.36
-93.01
-106.97
-113.85
-114.74
-112.57
-111.63
-116.58
-131.02
-155.67
-187.41
-219.74
-245.07
-257.93
-257.43
-247.46
-234.43
-223.81
-217.26
-212.24
-203.60
-186.54
-158.60
-120.28
-74.36
-24.78
23.80
66.20
96.87
110.96
105.77
82.12
44.87
1.95
-37.70
-66.34
-79.02
-74.48
-54.81
-24.41
11.27
47.25
80.22
109.32
135.66
160.99
186.05
209.75
229.76
243.91
251.52
253.49
251.13
244.62
232.42
212.22
182.77
145.43
103.92
62.55
23.93
-12.14
-47.71
-84.58
-122.12
-156.59
-182.22
-193.61
-187.78
-165.52
-131.40
-92.28
-55.47
-26.65
-9.13
-3.87
-10.09
-26.20
-50.29
-80.31
-113.73
-147.35
-177.23
-199.19
-209.66
-206.62
-190.34
-163.48
-130.57
-96.59
-65.66
-39.78
-18.67
-0.56
16.80
35.16
55.72
79.17
105.93
135.65
166.70
195.86
218.75
231.23
230.64
217.04
193.17
163.62
133.31
106.09
83.86
66.28
51.59
37.60
22.71
6.70
-9.17
-22.31
-29.17
-25.56
-7.23
28.96
83.12
150.78
222.67
286.40
330.20
346.71
335.54
302.59
257.13
207.71
159.28
113.00
67.76
22.82
-20.90
-61.07
-95.64
-124.19
-148.12
-169.36
-188.60
-204.82
-215.92
-220.43
-218.69
-212.71
-204.84
-196.10
-185.69
-171.66
-152.60
-128.84
-102.47
-76.26
-52.15
-30.89
-12.62
1.54
8.83
5.28
-12.45
-45.25
-90.63
-142.66
-193.32
-234.22
-258.90
-264.44
-252.37
-228.05
-198.66
-170.74
-147.85
-130.14
-115.31
-100.68
-84.98
-68.91
-54.47
-43.60
-37.50
-36.55
-41.06
-51.62
-68.81
-92.41
-120.55
-149.69
-175.17
-192.50
-198.42
-191.79
-173.82
-147.70
-117.84
-88.56
-62.98
-42.15
-24.94
-8.47
11.02
37.14
72.54
118.05
171.97
229.76
284.70
329.63
359.28
372.28
371.80
364.50
357.98
358.25
368.32
387.91
414.87
446.58
481.00
516.94
553.96
592.15
631.64
671.95
710.77
743.40
763.12
763.22
739.54
692.61
627.76
553.24
477.43
406.16
341.95
284.85
234.09
189.31
150.55
117.55
88.92
62.30
35.13
5.90
-25.19
-56.55
-85.99
-111.96
-134.26
-154.07
-173.19
-193.19
-214.60
-236.67
-257.82
-276.33
-291.20
-302.46
-311.11
-318.41
-325.27
-331.76
-337.21
-340.42
-340.23
-335.87
-327.16
-314.56
-299.33
-283.56
-269.78
-259.98
-254.24
-249.82
-241.74
-224.83
-196.59
-158.99
-118.33
-82.89
-59.66
-52.03
-59.49
-79.04
-107.02
-140.04
-174.46
-205.57
-227.56
-235.08
-225.61
-200.97
-166.69
-129.41
-93.94
-61.38
-29.89
3.12
38.43
73.81
104.82
126.85
137.24
136.00
125.30
108.15
87.39
65.09
42.52
20.27
-1.90
-25.02
-50.58
-79.62
-111.63
-143.95
-172.26
-192.17
-201.20
-200.31
-193.82
-187.81
-187.80
-196.85
-215.07
-240.60
-271.11
-304.74
-339.84
-373.84
-402.42
-420.07
-421.94
-406.11
-374.48
-331.77
-283.22
-232.62
-181.95
-132.87
-88.62
-54.37
-35.41
-33.73
-45.36
-60.39
-66.28
-53.02
-17.82
33.41
88.22
132.84
157.63
160.46
146.49
124.88
104.18
88.86
78.41
68.99
56.64
39.89
20.65
2.88
-9.84
-16.32
-18.32
-19.25
-22.24
-28.59
-37.27
-45.63
-50.76
-50.78
-45.68
-37.37
-29.21
-24.87
-27.02
-36.27
-50.96
-67.55
-81.79
-89.73
-88.70
-77.76
-57.98
-32.32
-5.03
19.29
37.18
47.41
51.38
52.23
53.12
55.56
58.73
60.13
57.08
48.01
32.95
13.12
-9.61
-32.92
-53.95
-69.32
-75.84
-71.50
-56.38
-32.63
-3.47
28.23
61.11
95.46
132.24
171.65
211.91
248.62
275.54
285.98
275.22
242.82
193.99
139.06
90.60
59.06
48.71
56.18
72.32
86.44
90.62
81.85
61.89
34.99
5.78
-21.93
-45.19
-61.78
-70.42
-71.45
-67.27
-61.61
-57.95
-57.83
-60.61
-64.27
-67.25
-69.39
-71.86
-76.04
-82.35
-90.09
-97.97
-105.28
-112.39
-120.57
-130.79
-142.33
-152.49
-157.20
-152.74
-137.42
-112.50
-81.68
-49.52
-19.80
5.93
28.27
49.32
71.33
96.02
124.24
156.09
190.76
226.13
258.40
282.36
292.57
285.23
259.76
219.19
169.21
116.43
66.57
23.82
-9.19
-30.88
-40.61
-39.05
-28.49
-12.90
3.02
15.17
21.50
22.39
20.15
17.76
17.27
19.06
21.56
21.98
17.42
6.29
-10.56
-29.29
-43.66
-47.03
-34.96
-7.75
28.73
64.35
88.22
92.82
76.95
46.27
10.69
-19.44
-37.40
-41.74
-35.63
-24.55
-13.54
-5.65
-1.41
-0.00
-0.03
-0.50
-1.06
-1.76
-2.95
-5.16
-9.46
-17.26
-29.93
-47.57
-68.28
-88.05
-101.90
-106.27
-101.08
-90.58
-81.68
-80.55
-88.99
-102.47
-111.67
-106.28
-80.06
-33.86
24.37
82.68
129.66
158.02
166.08
156.64
134.99
106.44
75.43
45.67
20.60
3.58
-3.02
1.17
13.86
30.95
48.21
62.82
73.64
79.91
79.97
70.91
50.25
18.48
-19.41
-54.79
-78.81
-86.35
-78.53
-61.43
-42.53
-26.56
-13.56
-0.14
17.17
38.77
61.22
79.03
88.16
88.57
84.60
82.64
87.54
100.03
116.05
129.06
133.09
125.61
108.27
85.40
61.55
39.20
18.32
-2.68
-25.16
-49.12
-73.30
-96.10
-116.76
-135.16
-150.93
-162.00
-164.35
-152.98
-124.40
-79.26
-23.16
34.36
83.06
115.11
127.46
121.87
103.53
78.72
52.74
29.12
9.49
-5.61
-16.35
-23.16
-26.72
-27.85
-27.34
-25.71
-22.87
-18.08
-10.11
2.24
19.41
40.92
64.81
88.08
107.02
118.01
118.10
105.83
81.86
49.18
12.88
-21.18
-47.77
-63.95
-69.66
-67.39
-60.71
-52.57
-44.54
-36.75
-29.00
-21.41
-14.61
-9.28
-5.42
-2.18
1.87
7.85
16.13
26.01
36.22
45.47
52.80
57.71
59.99
59.73
57.12
52.58
46.52
39.34
31.44
23.14
15.10
8.15
3.38
1.65
3.31
7.85
13.82
19.19
21.74
20.14
14.25
5.60
-3.19
-9.34
-11.02
-8.07
-1.76
5.72
12.55
17.69
20.98
22.59
22.52
20.54
16.47
10.80
4.64
-0.50
-3.54
-4.30
-3.53
-2.56
-2.54
-4.10
-7.19
-11.48
-16.59
-22.25
-28.14
-33.57
-37.51
-38.67
-36.19
-29.92
-20.62
-9.82
0.79
9.69
16.05
19.58
20.64
19.78
17.55
14.41
10.60
6.48
2.45
-0.80
-2.64
-2.65
-0.96
1.74
4.53
6.42
6.75
5.10
1.36
-4.40
-11.69
-19.40
-25.82
-28.85
-27.00
-19.84
-8.53
4.59
16.75
25.70
30.34
30.74
28.09
23.94
19.97
17.44
17.09
19.01
22.58
26.73
30.06
31.47
30.27
26.51
20.71
13.60
5.91
-1.96
-9.57
-16.60
-22.47
-26.55
-28.25
-27.19
-23.42
-17.29
-9.66
-1.60
5.58
10.63
12.57
10.94
5.99
-1.55
-10.41
-19.21
-26.40
-30.59
-30.84
-26.88
-19.42
-9.84
0.12
9.06
16.09
20.98
23.79
24.57
23.52
21.04
18.18
16.38
17.13
21.24
28.44
37.54
46.81
54.87
60.81
64.41
65.62
64.31
60.06
52.43
41.43
27.69
12.71
-1.67
-13.62
-21.94
-26.37
-27.60
-27.17
-26.88
-28.46
-32.82
-39.74
-47.76
-54.53
-57.69
-55.60
-48.16
-36.77
-24.08
-12.98
-5.82
-3.70
-6.14
-11.53
-17.69
-22.83
-25.85
-26.58
-25.13
-21.61
-16.02
-8.53
-0.25
6.99
10.95
10.38
5.72
-0.84
-6.45
-9.34
-9.67
-9.58
-11.48
-16.52
-23.37
-28.80
-29.33
-22.97
-10.51
5.10
19.83
30.50
35.83
36.66
35.27
34.17
35.44
39.91
47.62
57.65
68.49
77.92
83.12
81.37
70.73
51.42
25.90
-1.45
-26.03
-44.62
-56.49
-63.29
-67.43
-70.66
-72.69
-71.73
-65.88
-54.79
-40.56
-26.82
-17.17
-12.83
-12.10
-10.78
-4.26
10.38
33.03
60.23
86.70
106.72
116.38
114.41
102.63
85.35
68.15
56.52
54.09
61.94
77.88
97.28
114.09
122.51
118.59
101.12
72.22
36.43
-0.28
-32.61
-57.21
-73.36
-82.63
-87.40
-89.95
-91.41
-92.28
-92.84
-93.75
-95.95
-99.89
-105.01
-109.29
-110.41
-106.70
-98.39
-87.54
-77.15
-69.83
-66.59
-66.96
-69.35
-72.09
-73.74
-72.95
-68.00
-56.65
-36.90
-8.01
28.12
67.01
102.34
128.03
140.19
138.34
125.50
106.69
87.38
71.45
60.52
53.97
49.87
46.15
41.24
34.55
26.21
16.91
7.66
-0.51
-6.54
-9.74
-9.87
-7.50
-3.68
0.43
4.22
8.31
14.50
25.22
42.26
65.76
93.28
120.37
141.68
152.84
151.93
139.98
120.53
98.11
76.81
59.14
45.68
35.27
25.48
13.41
-3.61
-27.04
-56.47
-89.40
-121.73
-148.92
-167.24
-174.94
-172.47
-162.14
-147.20
-130.86
-115.57
-102.91
-93.67
-88.01
-85.53
-85.10
-84.37
-80.00
-68.45
-47.77
-18.98
13.56
43.50
65.05
75.41
75.52
68.88
59.35
49.16
38.67
27.44
15.76
5.12
-2.63
-6.79
-8.74
-11.12
-16.11
-23.66
-31.31
-35.54
-33.96
-26.72
-16.72
-8.32
-5.14
-8.57
-17.29
-27.96
-36.60
-39.54
-34.16
-19.25
4.63
34.86
66.87
94.99
114.08
120.95
115.38
99.65
77.35
51.77
25.19
-0.99
-25.45
-46.14
-60.40
-65.77
-61.17
-47.56
-27.83
-5.91
14.41
30.22
39.92
43.00
39.86
31.60
20.09
7.78
-3.00
-10.63
-14.94
-16.94
-18.27
-20.32
-23.62
-27.93
-32.61
-37.16
-41.32
-44.97
-47.81
-49.37
-49.22
-47.17
-43.37
-38.07
-31.50
-23.74
-15.00
-5.75
3.27
11.29
17.96
23.35
27.75
31.17
33.15
32.93
29.97
24.49
17.37
9.95
3.16
-2.77
-8.38
-14.53
-21.76
-30.18
-39.36
-48.87
-58.39
-67.78
-76.74
-84.61
-90.40
-93.09
-92.20
-87.70
-79.89
-68.86
-54.24
-35.33
-11.54
17.14
50.40
87.81
129.25
174.24
221.00
265.42
301.26
321.75
321.84
300.45
260.93
210.14
156.18
106.21
65.08
34.67
14.30
1.06
-9.12
-20.35
-35.26
-54.03
-74.45
-92.92
-106.46
-113.84
-115.85
-114.19
-110.35
-105.01
-98.50
-91.74
-86.31
-83.98
-85.33
-89.21
-93.12
-94.89
-94.17
-92.53
-92.68
-96.43
-103.83
-113.16
-122.20
-129.35
-133.82
-135.10
-132.01
-122.99
-107.10
-85.40
-61.23
-38.84
-21.43
-9.20
0.68
12.86
31.49
59.07
96.09
141.63
193.66
248.46
300.12
340.57
361.66
357.91
329.42
282.34
226.71
173.03
128.45
95.61
73.09
57.75
46.56
37.13
27.41
15.07
-1.72
-23.48
-48.22
-72.08
-91.05
-103.30
-110.73
-118.18
-131.12
-152.04
-178.98
-205.72
-224.86
-231.15
-223.69
-205.94
-183.18
-160.28
-139.62
-121.63
-105.95
-92.93
-83.90
-79.97
-80.71
-83.04
-82.55
-75.39
-60.54
-40.32
-19.07
-0.96
12.40
22.04
30.92
41.51
54.57
68.73
81.66
91.52
97.64
100.91
102.57
103.60
104.01
103.08
99.71
92.89
82.10
67.21
48.82
27.97
6.35
-13.92
-30.48
-41.06
-44.12
-39.12
-27.10
-10.42
7.63
23.83
35.93
43.24
46.64
47.78
48.33
48.99
49.54
49.04
46.79
42.82
37.85
33.03
29.07
26.12
23.77
21.53
19.22
16.94
14.85
12.62
9.43
4.08
-4.38
-16.19
-30.58
-45.93
-60.34
-72.03
-79.91
-83.52
-83.07
-79.13
-72.50
-64.15
-55.06
-46.30
-38.66
-32.62
-28.12
-24.78
-22.18
-20.00
-18.32
-17.16
-16.53
-16.11
-15.51
-14.42
-12.85
-11.24
-9.99
-9.59
-10.25
-12.24
-15.80
-21.07
-27.81
-35.16
-41.87
-46.55
-48.48
-47.63
-44.80
-40.85
-36.30
-31.16
-24.96
-17.42
-8.41
1.78
12.80
24.16
35.25
45.26
52.97
57.24
57.00
51.88
42.18
28.94
13.64
-2.37
-18.16
-34.02
-51.18
-71.47
-95.92
-123.80
-152.15
-176.69
-193.75
-201.58
-201.30
-195.80
-188.61
-182.36
-178.13
-175.52
-172.89
-168.03
-158.52
-142.57
-119.59
-90.72
-58.49
-25.61
5.95
36.02
65.65
96.37
129.19
164.76
204.08
249.02
301.99
363.91
432.51
501.31
561.00
602.35
619.52
612.18
584.98
545.46
500.65
454.97
409.44
362.64
312.46
257.45
197.67
134.28
69.10
3.89
-59.83
-120.92
-178.68
-232.73
-283.46
-332.07
-380.57
-430.64
-482.26
-532.22
-573.87
-598.73
-599.30
-572.51
-521.09
-453.07
-378.77
-307.34
-244.14
-190.13
-143.09
-99.47
-56.16
-11.01
36.87
87.37
139.32
190.30
237.09
276.25
305.47
324.07
333.50
336.53
336.25
335.17
334.50
334.51
334.70
334.76
334.62
334.68
335.53
337.59
341.08
345.62
350.54
354.65
356.59
354.92
348.47
336.66
319.62
298.39
274.47
249.67
225.56
203.18
182.95
164.65
147.86
132.01
116.81
102.13
88.04
74.65
61.93
49.84
38.18
26.91
15.91
5.22
-5.14
-15.25
-25.26
-35.47
-46.05
-57.14
-68.58
-80.12
-91.39
-102.12
-112.28
-121.94
-131.51
-141.36
-152.04
-163.86
-176.83
-190.36
-203.16
-213.69
-220.38
-222.50
-220.03
-213.83
-205.01
-194.55
-183.10
-170.83
-157.82
-143.98
-129.52
-114.94
-101.47
-91.09
-86.38
-90.01
-103.78
-128.12
-161.52
-201.24
-243.65
-285.26
-322.94
-354.15
-377.11
-390.72
-395.15
-391.67
-382.63
-370.58
-357.57
-344.53
-331.06
-316.24
-298.92
-278.79
-256.30
-232.87
-210.26
-190.11
-173.54
-160.60
-150.67
-142.47
-135.02
-127.95
-121.66
-116.88
-113.83
-111.98
-109.85
-106.05
-99.66
-90.79
-80.05
-67.86
-54.03
-37.59
-17.94
4.62
28.15
49.59
65.69
74.09
74.25
67.21
55.30
41.01
26.42
12.66
0.17
-10.88
-20.27
-27.28
-31.27
-31.89
-29.71
-26.00
-22.44
-20.46
-20.69
-23.18
-27.35
-32.79
-39.18
-46.40
-54.16
-61.88
-69.03
-75.36
-81.44
-88.28
-97.14
-108.77
-123.22
-139.99
-158.35
-177.84
-197.93
-217.83
-235.93
-249.93
-257.25
-255.86
-245.10
-225.71
-199.78
-169.80
-137.92
-105.50
-72.89
-39.75
-5.34
30.84
69.00
108.90
150.18
192.56
236.04
281.03
327.96
377.55
430.44
487.42
548.81
613.77
679.75
742.25
795.82
835.30
857.47
861.66
849.54
824.08
788.40
745.24
696.85
645.61
593.97
544.23
497.93
455.41
415.90
378.06
340.93
304.13
267.98
232.97
199.14
165.59
130.55
91.76
47.21
-4.02
-61.54
-123.69
-187.99
-251.89
-313.33
-371.04
-424.61
-474.55
-521.98
-568.33
-614.30
-658.94
-699.08
-729.86
-746.26
-745.03
-726.25
-693.42
-652.29
-608.84
-567.46
-530.21
-497.08
-467.00
-438.73
-411.44
-384.83
-358.79
-333.18
-307.75
-282.29
-256.53
-230.24
-203.40
-176.50
-150.56
-126.90
-106.30
-88.55
-72.23
-55.17
-35.42
-11.98
14.71
42.72
69.44
92.22
108.36
114.94
109.15
89.36
56.83
16.47
-24.54
-58.26
-78.37
-82.32
-71.47
-49.29
-19.24
17.14
59.65
106.25
153.19
195.43
227.19
243.91
244.15
229.96
206.72
180.80
154.99
129.97
105.73
81.66
57.99
37.01
23.33
23.90
45.58
89.26
151.47
225.83
302.79
372.18
426.05
453.84
448.04
424.76
397.84
369.53
341.35
312.76
282.23
248.37
210.95
172.22
136.31
104.78
78.85
60.13
48.64
43.13
41.92
43.83
49.02
57.97
67.58
73.26
70.85
57.10
31.52
-2.98
-41.07
-76.74
-105.66
-127.27
-142.04
-148.90
-145.36
-128.73
-98.52
-57.99
-13.49
28.19
62.27
88.67
111.56
135.94
164.56
196.46
228.07
255.87
278.62
297.52
314.91
332.05
347.52
357.43
357.08
343.27
315.86
278.03
235.15
192.65
154.22
120.91
91.43
63.37
34.39
2.92
-32.00
-70.80
-113.36
-158.39
-202.93
-242.58
-272.59
-289.59
-292.81
-284.37
-268.28
-249.04
-230.36
-214.69
-203.32
-196.86
-195.80
-200.48
-210.97
-226.73
-246.46
-268.15
-289.48
-308.45
-323.82
-335.69
-345.20
-353.81
-362.10
-368.91
-371.13
-364.29
-344.28
-308.89
-259.38
-200.77
-140.82
-88.03
-48.71
-25.11
-14.92
-12.92
-13.88
-15.17
-17.71
-24.83
-39.97
-64.32
-96.14
-131.27
-164.94
-193.03
-212.86
-223.11
-223.63
-215.42
-200.44
-181.49
-161.43
-142.45
-125.35
-109.50
-93.35
-75.25
-54.17
-29.79
-2.57
26.45
55.71
83.11
106.40
123.63
133.84
137.40
135.98
131.94
127.44
123.62
120.27
116.12
109.59
99.75
86.89
72.42
58.28
46.05
36.46
29.21
23.42
18.02
12.14
5.32
-2.47
-10.65
-18.09
-23.17
-24.15
-19.84
-10.15
3.83
20.25
37.18
53.26
67.86
80.88
92.17
101.26
107.30
109.49
107.48
101.66
93.17
83.43
73.79
65.07
57.52
50.89
44.77
38.94
33.50
28.90
25.66
24.01
23.62
23.55
22.65
20.12
16.15
11.99
9.60
10.87
16.72
26.72
39.26
52.30
64.11
73.88
81.70
88.24
94.23
100.07
105.70
110.63
114.15
115.50
114.09
109.57
101.88
91.25
78.16
63.31
47.52
31.79
17.11
4.28
-6.26
-14.65
-21.38
-27.11
-32.09
-36.06
-38.20
-37.57
-33.66
-26.74
-17.94
-8.85
-0.89
5.30
10.00
14.17
18.82
24.39
30.52
36.25
40.53
42.73
42.90
41.57
39.40
36.81
33.85
30.30
25.79
19.99
12.59
3.36
-7.70
-20.16
-32.85
-44.05
-51.76
-54.48
-51.74
-44.48
-34.78
-25.09
-17.42
-12.63
-10.41
-9.53
-8.61
-6.77
-3.81
-0.17
3.44
6.34
8.13
8.60
7.79
5.85
2.99
-0.45
-4.16
-7.89
-11.56
-15.25
-19.26
-23.94
-29.62
-36.44
-44.16
-52.10
-59.12
-63.95
-65.55
-63.55
-58.44
-51.38
-43.81
-36.80
-30.81
-25.57
-20.31
-14.25
-6.87
1.76
11.07
20.07
27.76
33.34
36.41
37.11
35.92
33.57
30.89
28.74
27.85
28.70
31.25
34.83
38.24
40.13
39.60
36.61
32.08
27.53
24.51
24.04
26.30
30.83
36.82
43.59
50.66
57.74
64.45
70.16
74.13
75.67
74.60
71.28
66.54
61.25
55.95
50.71
45.20
39.11
32.38
25.36
18.66
12.88
8.35
4.98
2.33
-0.24
-3.28
-6.92
-10.80
-14.15
-16.07
-15.99
-13.91
-10.51
-6.92
-4.21
-2.98
-3.19
-4.23
-5.36
-6.03
-6.27
-6.67
-8.14
-11.44
-16.85
-23.98
-31.89
-39.56
-46.18
-51.45
-55.29
-57.68
-58.51
-57.66
-55.42
-52.52
-50.16
-49.25
-50.04
-51.81
-53.25
-53.19
-51.12
-47.26
-42.05
-35.61
-27.35
-16.37
-2.10
15.17
33.99
52.35
68.33
80.75
89.35
94.66
97.64
99.24
100.24
101.02
101.54
101.27
99.49
95.58
89.29
81.03
71.47
61.39
51.15
40.75
29.99
18.85
7.80
-2.32
-10.54
-16.32
-19.63
-21.07
-21.57
-22.01
-23.17
-25.40
-28.80
-33.11
-37.81
-42.16
-45.50
-47.54
-48.43
-48.83
-49.48
-50.87
-52.87
-54.83
-55.74
-54.65
-50.81
-43.46
-31.97
-15.93
4.09
25.91
45.71
58.92
62.04
54.12
37.55
17.01
-2.41
-17.27
-26.77
-32.26
-35.91
-39.21
-42.43
-44.84
-45.85
-45.55
-44.68
-44.00
-43.21
-40.86
-34.66
-22.88
-5.40
15.70
36.85
54.54
66.81
74.11
78.73
83.37
89.53
96.79
103.20
106.64
106.21
102.73
98.35
95.35
95.11
97.54
101.39
104.99
106.89
106.38
103.27
97.82
90.48
81.94
73.14
65.17
59.08
55.44
54.16
54.46
55.44
56.59
58.20
61.14
66.23
73.53
81.83
88.97
92.54
90.80
83.32
70.98
55.58
38.93
22.35
6.43
-8.57
-22.36
-34.36
-43.78
-50.05
-53.14
-53.79
-53.20
-52.56
-52.57
-53.18
-53.90
-54.01
-53.19
-51.57
-49.78
-48.56
-48.46
-49.63
-51.72
-54.23
-56.61
-58.65
-60.49
-62.54
-65.29
-69.13
-74.27
-80.55
-87.53
-94.36
-100.06
-103.60
-104.26
-101.87
-96.72
-89.48
-80.84
-71.48
-61.93
-52.68
-44.19
-36.67
-30.18
-24.52
-19.64
-15.74
-13.39
-13.19
-15.42
-19.72
-24.99
-29.82
-32.81
-33.14
-30.71
-26.24
-20.93
-16.04
-12.48
-10.39
-9.28
-8.29
-6.80
-4.65
-2.02
0.96
4.43
8.46
12.59
15.54
15.80
12.76
7.54
2.93
1.89
5.80
13.37
21.29
26.01
25.74
21.21
14.87
9.19
5.16
2.27
-0.64
-4.03
-7.24
-9.01
-8.40
-5.53
-1.51
2.04
3.88
3.50
1.13
-2.49
-6.42
-9.66
-11.44
-11.31
-9.41
-6.53
-3.76
-2.09
-1.85
-2.63
-3.48
-3.51
-2.28
-0.08
2.28
3.94
4.32
3.44
1.75
-0.12
-1.65
-2.70
-3.47
-4.47
-6.16
-8.76
-11.97
-15.13
-17.45
-18.39
-17.97
-16.65
-15.21
-14.15
-13.53
-12.86
-11.45
-8.79
-4.91
-0.47
3.65
6.63
8.23
8.75
8.84
9.12
9.75
10.52
10.84
10.27
8.66
6.34
3.86
1.80
0.44
-0.34
-0.87
-1.52
-2.39
-3.30
-3.88
-3.83
-3.22
-2.44
-2.08
-2.58
-4.07
-6.28
-8.69
-10.73
-11.91
-12.01
-10.98
-8.97
-6.12
-2.63
1.30
5.44
9.43
12.90
15.45
16.92
17.38
17.14
16.55
15.79
14.77
13.28
11.20
8.70
6.35
4.81
4.55
5.59
7.51
9.71
11.65
13.07
14.01
14.68
15.27
15.96
17.02
18.87
22.07
27.04
33.90
42.27
51.36
60.25
68.13
74.42
78.75
80.85
80.59
78.10
73.94
68.98
63.95
59.08
53.81
47.17
38.46
27.87
16.43
5.45
-4.44
-13.49
-22.60
-32.35
-42.36
-51.31
-57.74
-61.04
-61.85
-61.75
-62.12
-63.27
-64.25
-63.50
-60.08
-54.42
-48.40
-44.45
-44.40
-48.51
-55.36
-62.52
-67.52
-68.91
-66.57
-61.50
-55.14
-48.63
-42.56
-36.88
-31.46
-26.21
-21.38
-17.30
-14.27
-12.33
-11.33
-10.98
-10.92
-10.89
-10.75
-10.57
-10.59
-11.07
-12.23
-13.98
-16.15
-18.34
-20.30
-21.85
-22.82
-23.06
-22.26
-20.14
-16.53
-11.59
-5.81
0.04
5.14
8.80
10.63
10.70
9.40
7.49
5.84
5.23
6.07
8.11
10.60
12.29
12.07
9.27
4.05
-2.72
-9.77
-15.95
-20.71
-24.09
-26.77
-29.49
-32.80
-36.87
-41.42
-45.97
-49.95
-52.93
-54.52
-54.58
-53.03
-49.92
-45.41
-39.75
-33.37
-26.73
-20.33
-14.43
-9.06
-3.96
1.21
6.56
11.80
16.09
18.52
18.62
17.00
15.38
15.90
20.12
27.90
37.34
45.58
50.38
51.39
50.26
49.53
50.88
54.10
57.23
58.20
56.37
53.11
50.97
51.93
56.20
62.21
67.90
72.10
75.15
78.03
81.08
83.28
82.59
77.65
68.94
58.98
50.94
46.85
46.58
48.03
48.66
46.97
43.35
39.48
37.29
37.75
40.44
43.99
46.78
47.76
46.47
43.05
37.90
31.46
24.44
17.74
12.54
9.87
10.20
13.00
16.71
19.28
18.99
15.34
9.18
2.24
-3.84
-8.37
-11.85
-15.63
-21.02
-28.90
-39.63
-53.31
-69.55
-86.92
-102.48
-112.19
-112.63
-103.06
-86.90
-70.82
-62.04
-64.82
-78.08
-96.02
-110.83
-116.67
-112.04
-99.91
-85.35
-72.78
-63.92
-57.66
-51.63
-43.78
-33.83
-23.18
-14.11
-8.52
-6.77
-7.54
-8.06
-5.24
3.54
19.65
43.25
73.72
110.12
151.12
194.43
236.45
272.40
297.47
308.21
303.61
285.15
255.80
218.61
175.57
127.59
75.39
20.80
-32.73
-80.71
-118.90
-144.81
-158.18
-160.81
-155.29
-143.88
-127.93
-108.04
-84.97
-60.20
-36.12
-15.05
2.06
16.23
30.07
46.28
65.88
86.95
104.96
114.27
110.55
92.72
63.73
29.75
-2.13
-26.63
-42.19
-51.09
-57.72
-65.84
-76.42
-87.34
-94.89
-96.24
-91.18
-82.17
-72.67
-65.17
-60.16
-56.51
-52.86
-48.70
-44.36
-40.33
-36.40
-31.81
-25.95
-19.02
-11.92
-5.56
-0.29
4.20
8.26
11.69
13.86
14.44
14.09
14.24
16.01
19.17
22.13
23.16
21.85
19.80
19.82
24.20
33.37
46.02
60.49
76.27
94.23
115.57
139.97
164.67
185.16
197.09
198.30
189.63
174.32
156.32
138.97
123.76
110.42
97.65
84.05
69.28
54.22
40.12
27.35
14.89
0.82
-16.06
-34.80
-52.38
-65.49
-73.13
-77.92
-85.02
-99.17
-121.62
-149.21
-176.02
-196.75
-209.18
-214.61
-215.95
-215.27
-212.49
-205.94
-194.12
-177.40
-158.29
-140.29
-126.35
-117.34
-111.51
-105.58
-96.26
-81.90
-63.40
-43.74
-26.42
-13.83
-6.27
-2.06
1.26
5.66
11.90
19.60
27.97
36.48
45.08
53.75
62.08
68.81
72.09
70.15
61.86
47.42
28.67
8.90
-7.98
-18.72
-22.14
-19.51
-13.95
-8.96
-6.72
-7.24
-8.69
-8.72
-5.94
-0.55
6.19
13.12
20.04
27.61
36.34
45.40
52.54
54.98
51.10
41.79
30.37
21.12
17.25
19.12
24.17
28.61
29.50
26.41
21.36
17.20
15.61
16.11
16.52
14.62
9.76
3.08
-3.35
-8.05
-10.85
-12.65
-14.41
-16.60
-19.41
-23.54
-30.58
-42.40
-59.69
-80.68
-101.32
-116.82
-123.97
-122.52
-114.87
-104.44
-93.76
-83.59
-73.36
-62.49
-51.25
-40.71
-31.93
-24.97
-18.65
-11.12
-1.00
11.83
26.11
39.88
51.58
60.78
68.27
75.45
83.46
92.35
101.04
107.88
111.51
111.66
109.07
104.92
99.96
94.15
86.82
77.60
67.02
56.54
47.82
41.63
37.29
33.01
26.69
17.02
4.06
-10.82
-25.59
-38.48
-48.79
-57.29
-65.94
-77.03
-91.85
-109.65
-127.47
-141.15
-147.08
-144.01
-133.96
-121.49
-111.85
-108.82
-113.25
-122.88
-133.55
-140.66
-140.63
-131.60
-113.22
-86.31
-52.57
-14.77
22.96
55.49
78.02
87.90
86.15
77.57
68.89
66.03
71.66
84.45
100.24
114.28
123.29
125.99
122.55
113.45
98.83
78.98
55.10
29.93
7.73
-6.74
-9.48
1.30
24.10
53.92
83.31
104.30
111.02
101.63
78.93
49.06
19.13
-5.28
-21.59
-30.07
-32.81
-32.46
-31.57
-32.65
-38.49
-52.06
-75.58
-108.97
-148.58
-187.37
-216.62
-228.83
-220.53
-193.43
-153.46
-107.96
-62.77
-20.81
17.35
51.63
80.94
103.11
116.49
121.58
121.78
122.08
126.68
136.98
151.13
165.38
176.08
181.35
181.45
178.17
173.67
169.64
166.88
165.12
163.16
158.98
150.40
135.85
115.12
89.55
61.45
33.11
5.84
-20.24
-45.76
-71.48
-97.91
-125.17
-152.71
-178.91
-200.80
-214.55
-216.86
-206.70
-186.11
-159.60
-132.14
-107.07
-85.20
-65.74
-48.18
-33.96
-26.60
-29.95
-45.78
-72.04
-102.90
-130.56
-147.93
-151.09
-140.36
-120.18
-97.37
-78.98
-70.21
-73.13
-86.46
-106.28
-127.23
-143.74
-151.06
-146.25
-128.88
-101.14
-67.20
-32.23
-0.98
23.24
39.00
46.72
48.27
46.07
42.53
39.42
37.57
37.02
37.27
37.67
37.88
38.11
39.07
41.88
47.59
56.89
69.84
85.51
101.91
116.17
125.37
127.30
121.26
108.02
89.55
68.30
46.65
26.57
9.64
-3.05
-10.90
-13.76
-12.01
-6.64
0.88
8.78
15.36
19.51
20.91
19.95
17.61
14.87
12.33
10.15
8.10
6.01
3.87
1.92
0.32
-0.98
-2.44
-4.72
-8.17
-12.59
-17.15
-20.85
-23.02
-23.85
-24.24
-25.43
-28.22
-32.54
-37.40
-41.37
-43.33
-42.81
-40.27
-36.68
-33.17
-30.57
-29.23
-29.02
-29.41
-29.73
-29.33
-27.91
-25.72
-23.54
-22.51
-23.61
-27.28
-33.20
-40.36
-47.41
-53.21
-57.03
-58.55
-57.57
-53.78
-46.83
-36.73
-24.26
-11.11
0.31
7.81
10.11
7.19
0.21
-9.21
-19.52
-29.46
-38.02
-44.17
-46.85
-45.24
-39.18
-29.52
-18.00
-6.56
3.55
12.31
20.99
31.36
44.74
61.15
79.23
96.66
111.07
120.79
125.14
124.19
118.33
107.96
93.57
76.06
56.97
38.44
22.72
11.53
5.49
3.92
5.08
6.57
6.12
2.19
-5.60
-16.32
-28.10
-38.69
-46.20
-49.61
-48.83
-44.45
-37.40
-28.63
-19.06
-9.63
-1.31
5.15
9.52
12.30
14.58
17.62
22.12
27.97
34.13
39.09
41.42
40.09
34.62
25.00
11.72
-4.23
-21.21
-37.17
-50.10
-58.72
-62.76
-62.97
-60.56
-56.63
-51.82
-46.25
-39.78
-32.08
-22.74
-11.27
2.60
18.52
35.13
50.08
60.76
65.35
63.67
57.23
48.58
40.10
33.25
28.46
25.58
24.49
25.37
28.50
33.73
40.24
46.78
52.26
56.58
60.74
66.22
73.80
82.41
89.09
89.95
81.95
64.59
40.34
13.80
-10.39
-29.45
-43.45
-54.51
-65.18
-76.72
-88.37
-98.01
-103.50
-103.92
-99.89
-93.15
-85.58
-78.43
-72.26
-67.00
-62.32
-57.55
-51.55
-42.71
-29.54
-11.71
9.32
30.29
47.09
56.06
55.36
45.34
28.39
8.04
-11.99
-28.52
-39.45
-44.00
-42.70
-37.13
-29.53
-22.08
-16.24
-12.55
-10.55
-9.20
-7.15
-3.15
3.83
14.36
28.49
45.45
63.65
80.94
94.89
103.47
105.60
101.54
92.70
81.16
68.92
57.29
46.67
36.72
26.87
16.68
6.07
-4.63
-14.85
-24.07
-31.94
-38.46
-43.88
-48.65
-53.10
-57.42
-61.58
-65.51
-69.29
-73.22
-77.71
-82.98
-88.85
-94.47
-98.56
-99.58
-96.14
-87.27
-72.62
-52.63
-28.66
-3.06
21.09
40.57
52.80
56.67
52.82
43.48
31.63
20.08
10.62
3.76
-1.03
-4.86
-8.62
-12.68
-16.78
-20.52
-23.80
-27.32
-32.59
-41.30
-54.37
-70.87
-87.96
-101.59
-108.25
-106.36
-96.89
-82.50
-65.81
-47.97
-28.20
-4.96
22.38
52.30
81.48
106.27
124.75
137.70
147.91
158.47
170.99
185.10
199.23
211.91
222.41
230.43
235.38
236.12
231.51
221.40
206.99
189.65
169.88
146.65
118.84
87.18
55.18
27.73
7.71
-6.57
-20.80
-40.76
-67.94
-97.99
-123.33
-138.38
-143.13
-142.57
-142.47
-144.90
-147.15
-144.46
-134.26
-118.34
-101.38
-87.14
-75.86
-64.79
-51.26
-35.71
-22.10
-15.40
-17.83
-27.27
-38.25
-45.08
-44.70
-37.76
-27.55
-17.85
-11.25
-8.46
-8.91
-11.44
-15.00
-19.05
-23.25
-27.45
-31.37
-34.58
-36.61
-37.25
-36.77
-35.80
-35.18
-35.34
-36.07
-36.24
-34.21
-28.43
-18.24
-4.55
10.20
22.56
29.38
28.95
21.76
10.28
-2.09
-12.32
-18.81
-21.48
-21.33
-19.55
-17.01
-14.21
-11.62
-10.02
-10.34
-13.30
-18.95
-26.52
-34.77
-42.54
-49.34
-55.38
-61.33
-67.77
-74.69
-81.25
-85.97
-87.26
-84.00
-75.94
-63.80
-48.99
-33.07
-17.29
-2.34
11.56
24.25
35.48
44.74
51.52
55.51
56.88
56.22
54.30
51.81
49.11
46.27
43.12
39.55
35.49
30.99
26.20
21.32
16.62
12.35
8.75
5.80
3.27
0.64
-2.73
-7.32
-13.26
-20.10
-26.94
-32.50
-35.51
-34.99
-30.49
-22.28
-11.21
1.45
14.41
26.60
37.41
46.59
54.14
60.05
64.28
66.79
67.55
66.73
64.58
61.44
57.62
53.34
48.76
43.99
39.17
34.42
29.87
25.59
21.63
17.97
14.55
11.21
7.67
3.61
-1.34
-7.47
-14.85
-23.23
-31.91
-39.79
-45.48
-47.71
-45.69
-39.40
-29.64
-17.70
-5.00
7.38
18.78
28.98
37.86
45.35
51.22
55.28
57.41
57.68
56.39
53.95
50.92
47.84
45.14
42.97
41.24
39.66
37.86
35.61
32.80
29.40
25.25
20.05
13.41
5.06
-4.93
-16.05
-27.45
-38.20
-47.50
-54.76
-59.55
-61.46
-59.97
-54.67
-45.55
-33.21
-18.94
-4.42
8.77
19.58
27.79
33.76
38.21
41.72
44.55
46.66
47.87
48.16
47.60
46.43
44.83
42.82
40.31
37.15
33.33
28.95
24.33
19.73
15.36
11.29
7.49
3.94
0.68
-2.22
-4.75
-7.03
-9.44
-12.49
-16.74
-22.51
-29.63
-37.31
-44.14
-48.49
-48.99
-45.10
-37.38
-27.35
-16.91
-7.64
-0.29
5.32
9.90
14.21
18.55
22.74
26.31
28.75
29.94
29.99
29.30
28.27
27.14
26.03
24.90
23.68
22.26
20.51
18.28
15.50
12.19
8.55
4.90
1.67
-0.78
-2.35
-3.26
-4.09
-5.57
-8.32
-12.66
-18.30
-24.39
-29.69
-32.86
-32.88
-29.37
-22.71
-13.90
-4.27
5.00
13.09
19.74
25.13
29.53
33.15
35.98
37.94
38.94
39.05
38.40
37.10
35.11
32.31
28.65
24.28
19.72
15.52
12.12
9.55
7.46
5.27
2.42
-1.31
-5.83
-10.78
-15.77
-20.44
-24.48
-27.63
-29.52
-29.77
-28.09
-24.44
-19.10
-12.72
-6.09
0.10
5.48
10.12
14.33
18.46
22.56
26.36
29.37
31.11
31.44
30.50
28.79
26.80
24.90
23.19
21.60
19.97
18.14
16.09
13.85
11.56
9.39
7.49
5.92
4.64
3.41
1.93
-0.06
-2.77
-6.21
-10.34
-15.05
-20.11
-25.23
-29.81
-33.10
-34.26
-32.75
-28.59
-22.38
-15.26
-8.35
-2.46
2.26
6.11
9.61
13.03
16.19
18.55
19.52
18.87
16.90
14.39
12.20
10.91
10.53
10.58
10.41
9.46
7.53
4.77
1.55
-1.75
-4.90
-7.77
-10.42
-12.91
-15.39
-17.99
-20.81
-23.90
-27.20
-30.56
-33.66
-36.08
-37.24
-36.61
-33.82
-28.82
-21.96
-13.92
-5.59
2.30
9.18
14.88
19.39
22.74
24.95
25.93
25.70
24.40
22.45
20.31
18.37
16.77
15.27
13.56
11.29
8.43
5.29
2.35
0.05
-1.45
-2.39
-3.28
-4.57
-6.45
-8.66
-10.73
-12.31
-13.53
-15.00
-17.45
-21.14
-25.57
-29.57
-31.72
-30.81
-25.98
-16.47
-1.55
19.37
46.05
76.86
108.84
138.58
163.69
183.77
200.31
215.22
228.99
239.40
241.94
231.63
205.46
164.14
112.06
55.86
2.01
-44.99
-83.31
-113.24
-135.98
-152.54
-163.34
-168.46
-168.16
-163.35
-155.43
-145.95
-136.08
-126.25
-116.18
-104.99
-91.49
-74.41
-52.73
-26.07
4.96
38.51
71.57
100.27
120.56
129.34
125.90
112.75
95.35
80.22
72.01
71.03
72.64
69.57
55.98
31.39
1.76
-22.85
-33.25
-25.96
-5.17
18.90
34.07
30.70
4.40
-43.20
-105.54
-172.87
-234.40
-280.46
-304.50
-304.52
-283.07
-245.99
-200.23
-151.84
-104.85
-61.56
-23.01
10.59
40.15
67.85
96.73
129.52
167.31
208.87
251.05
290.11
322.97
348.02
365.33
376.02
381.62
383.35
381.68
376.09
365.36
348.28
324.48
295.18
263.16
232.02
204.91
183.41
167.15
154.30
142.72
130.73
117.73
103.97
90.14
76.67
63.54
50.23
36.02
20.41
3.36
-14.59
-32.70
-50.34
-67.46
-84.78
-103.30
-123.78
-146.16
-169.42
-191.77
-211.21
-225.87
-234.07
-234.53
-226.46
-210.30
-188.19
-164.08
-142.71
-128.04
-121.76
-122.55
-127.13
-131.77
-134.26
-134.53
-134.22
-135.40
-139.22
-145.56
-153.15
-160.52
-166.71
-171.72
-176.11
-180.55
-185.28
-189.77
-193.08
-194.18
-192.67
-188.76
-183.35
-177.51
-172.26
-168.57
-167.34
-169.38
-174.80
-182.39
-188.91
-189.55
-179.37
-155.28
-117.93
-71.92
-24.88
14.72
39.56
45.08
30.20
-2.32
-45.79
-90.35
-124.24
-136.49
-119.41
-70.69
5.76
100.47
200.26
290.95
360.13
399.93
408.79
391.56
357.58
317.32
278.86
245.74
217.10
189.55
159.69
125.53
86.93
45.56
4.44
-32.43
-60.94
-78.12
-83.15
-77.09
-61.84
-38.67
-8.06
29.24
70.12
108.19
134.95
142.71
127.96
92.78
43.63
-11.39
-65.08
-111.86
-147.37
-168.21
-173.07
-164.32
-148.78
-135.92
-134.17
-147.18
-171.83
-200.03
-223.15
-236.23
-240.09
-239.70
-240.74
-246.07
-254.44
-261.23
-260.81
-248.99
-224.61
-189.95
-150.40
-112.91
-83.69
-66.47
-61.46
-65.88
-75.53
-86.33
-95.15
-99.48
-96.52
-83.10
-56.57
-16.53
33.83
88.35
139.89
182.67
213.95
234.01
244.74
248.25
245.60
236.86
221.61
199.79
172.33
141.58
111.10
84.68
65.24
53.71
48.77
47.50
46.87
45.17
42.56
40.55
40.78
43.94
49.29
55.23
60.15
63.05
63.74
62.48
59.66
55.56
50.55
45.25
40.45
36.88
34.81
33.87
33.12
31.51
28.15
22.70
15.31
6.59
-2.62
-11.39
-18.73
-23.82
-26.00
-24.99
-21.04
-14.90
-7.81
-1.12
3.90
6.60
7.08
6.21
5.22
5.11
6.20
7.80
8.79
8.17
5.76
2.31
-0.88
-2.70
-2.92
-2.19
-1.67
-2.21
-3.98
-6.45
-8.83
-10.53
-11.45
-11.78
-11.70
-11.28
-10.48
-9.46
-8.68
-8.77
-10.29
-13.32
-17.29
-21.18
-23.99
-25.09
-24.45
-22.59
-20.14
-17.64
-15.21
-12.65
-9.65
-6.13
-2.40
0.96
3.21
3.96
3.30
1.79
0.19
-0.89
-1.35
-1.51
-1.89
-2.91
-4.64
-6.80
-8.88
-10.50
-11.48
-11.96
-12.22
-12.48
-12.83
-13.23
-13.64
-14.12
-14.89
-16.24
-18.25
-20.67
-22.79
-23.67
-22.49
-18.96
-13.50
-7.06
-0.83
4.26
7.78
9.86
10.93
11.52
12.03
12.61
13.29
14.00
14.70
15.33
15.84
16.04
15.81
14.99
13.49
11.35
8.74
5.94
3.23
0.90
-0.95
-2.37
-3.49
-4.53
-5.56
-6.63
-7.80
-9.29
-11.40
-14.36
-18.03
-21.66
-24.12
-24.18
-21.30
-15.86
-9.18
-2.90
1.81
4.74
6.62
8.45
10.89
13.68
15.95
16.72
15.56
12.87
9.60
6.72
4.66
3.23
1.87
0.12
-2.03
-4.22
-5.90
-6.75
-6.82
-6.45
-6.02
-5.76
-5.79
-6.10
-6.83
-8.17
-10.29
-12.98
-15.59
-17.11
-16.65
-13.86
-9.14
-3.48
2.09
6.91
10.81
13.98
16.58
18.44
19.16
18.47
16.45
13.65
10.83
8.55
6.97
5.83
4.75
3.51
2.17
0.96
0.00
-0.76
-1.64
-2.88
-4.49
-6.16
-7.45
-8.06
-8.03
-7.72
-7.60
-8.09
-9.33
-11.13
-13.09
-14.67
-15.34
-14.61
-12.34
-8.67
-4.19
0.28
4.01
6.62
8.23
9.34
10.48
11.82
13.16
13.98
13.80
12.49
10.31
7.86
5.70
4.24
3.49
3.33
3.47
3.68
3.80
3.65
3.14
2.25
1.07
-0.16
-1.22
-1.97
-2.56
-3.32
-4.71
-6.94
-9.88
-12.91
-15.17
-15.93
-14.76
-11.83
-7.61
-2.70
2.46
7.70
12.95
18.09
22.68
26.13
27.81
27.60
25.89
23.54
21.50
20.36
20.20
20.56
20.78
20.29
18.91
16.88
14.78
13.27
12.87
13.94
16.38
19.79
23.13
25.03
23.91
18.63
9.15
-2.86
-13.97
-20.01
-17.79
-6.69
10.91
30.40
46.82
56.55
57.93
50.96
36.39
15.15
-11.25
-39.82
-65.68
-82.91
-86.69
-75.60
-52.29
-22.61
6.90
31.35
48.58
58.80
63.37
63.76
61.13
56.77
52.34
49.40
48.62
48.72
46.71
39.35
25.13
5.63
-14.52
-29.58
-35.11
-29.92
-16.54
-0.13
13.85
21.63
22.19
16.95
8.58
-0.38
-8.30
-14.52
-18.85
-21.05
-20.76
-17.76
-12.51
-6.54
-1.98
-0.80
-3.96
-10.78
-19.18
-26.45
-30.31
-29.91
-26.14
-21.09
-17.22
-16.22
-18.45
-22.90
-27.88
-31.62
-32.78
-30.46
-24.36
-14.92
-3.60
6.98
13.79
14.42
8.37
-2.52
-14.70
-24.53
-29.86
-30.66
-28.53
-25.36
-22.11
-18.52
-13.79
-7.66
-1.09
3.99
5.77
3.61
-1.37
-6.84
-10.42
-10.94
-8.90
-5.96
-3.95
-3.72
-4.95
-6.48
-7.28
-6.96
-5.90
-4.86
-4.29
-4.22
-4.26
-4.08
-3.66
-3.35
-3.62
-4.68
-6.33
-7.99
-9.10
-9.40
-9.10
-8.74
-8.93
-9.99
-11.72
-13.50
-14.53
-14.23
-12.43
-9.44
-5.81
-2.11
1.25
4.11
6.46
8.40
9.96
11.15
11.93
12.20
11.96
11.24
10.17
8.93
7.63
6.34
4.92
3.23
1.15
-1.16
-3.36
-4.94
-5.58
-5.29
-4.41
-3.50
-2.91
-2.67
-2.39
-1.61
-0.03
2.24
4.73
6.88
8.27
8.83
8.67
7.96
6.67
4.60
1.53
-2.69
-7.92
-13.82
-19.76
-25.00
-28.75
-30.35
-29.49
-26.45
-22.07
-17.50
-13.82
-11.50
-10.38
-9.88
-9.40
-8.82
-8.45
-8.89
-10.48
-13.07
-16.02
-18.40
-19.56
-19.29
-18.01
-16.40
-15.11
-14.43
-14.24
-14.22
-14.15
-14.18
-14.68
-16.04
-18.31
-21.01
-23.22
-23.87
-22.18
-17.96
-11.75
-4.63
2.07
7.25
10.38
11.64
11.82
11.83
12.23
12.89
13.15
12.24
9.85
6.43
2.91
0.32
-0.96
-1.24
-1.34
-2.04
-3.59
-5.64
-7.51
-8.65
-8.82
-8.31
-7.55
-6.94
-6.63
-6.55
-6.55
-6.49
-6.28
-5.76
-4.70
-2.75
0.29
4.41
9.19
13.95
18.05
21.02
22.93
24.19
25.42
27.14
29.44
32.05
34.50
36.38
37.53
38.12
38.40
38.58
38.58
38.11
36.86
34.62
31.37
27.19
22.16
16.33
9.68
2.39
-5.19
-12.62
-19.52
-25.77
-31.50
-36.91
-41.97
-46.36
-49.54
-51.02
-50.47
-47.79
-43.03
-36.34
-28.27
-19.82
-12.43
-7.54
-6.03
-8.08
-13.26
-21.23
-31.99
-45.85
-62.52
-80.55
-97.11
-108.80
-113.17
-109.87
-101.23
-91.11
-83.17
-78.90
-76.83
-73.39
-65.08
-50.66
-32.02
-13.15
2.26
12.81
19.98
26.53
34.11
41.86
46.89
46.61
40.96
32.86
26.62
25.42
29.93
38.73
50.19
63.71
79.89
99.27
121.18
143.45
163.30
178.78
189.31
195.20
196.29
191.26
177.87
154.30
120.56
79.10
34.55
-7.43
-41.18
-62.32
-68.60
-60.52
-41.29
-15.71
11.47
37.44
61.86
86.34
112.74
141.53
171.06
198.22
220.07
235.10
243.59
246.82
245.97
241.59
233.89
223.60
212.35
202.36
195.37
191.42
188.64
183.89
174.31
158.64
137.77
113.98
89.73
66.57
44.80
24.00
3.84
-15.63
-34.25
-52.45
-71.45
-92.63
-116.53
-142.05
-166.62
-187.30
-202.13
-210.86
-214.56
-214.72
-212.13
-206.69
-197.86
-185.35
-169.80
-152.74
-136.20
-121.99
-111.10
-103.43
-97.75
-92.10
-84.27
-72.51
-56.13
-35.63
-12.44
11.29
33.10
50.50
61.40
64.76
61.19
52.86
42.67
32.71
23.25
12.65
-1.02
-18.16
-36.56
-52.13
-61.27
-62.89
-59.03
-53.29
-48.50
-45.00
-41.40
-36.65
-32.12
-31.67
-39.23
-55.55
-76.22
-93.12
-98.46
-89.44
-70.25
-50.23
-39.04
-41.41
-55.07
-72.43
-85.05
-88.19
-82.68
-73.52
-66.40
-64.72
-68.38
-74.96
-81.72
-86.91
-89.79
-89.76
-85.59
-75.71
-59.63
-38.98
-17.76
-1.05
6.88
4.36
-7.04
-22.96
-37.47
-44.86
-41.22
-25.67
-0.86
27.56
52.75
69.11
74.38
70.47
62.19
54.79
51.31
51.45
52.24
49.75
41.27
26.33
6.93
-13.35
-30.46
-41.23
-44.18
-39.77
-29.97
-17.47
-4.84
6.26
15.04
21.38
25.23
26.46
24.95
20.76
14.36
6.19
-3.41
-14.37
-26.27
-37.76
-46.13
-47.60
-38.86
-18.61
10.67
42.78
69.36
83.09
80.86
65.23
43.36
23.57
11.81
9.27
12.89
17.68
19.59
17.35
12.07
5.86
-0.16
-6.36
-14.05
-23.92
-34.95
-44.58
-49.80
-49.07
-42.93
-33.97
-25.38
-19.41
-16.53
-15.40
-14.00
-10.46
-4.11
4.72
14.80
24.55
32.39
36.87
37.09
32.53
23.52
10.89
-3.93
-19.10
-32.51
-41.93
-45.67
-43.11
-35.36
-24.94
-15.05
-8.33
-5.74
-6.33
-7.64
-7.06
-2.81
5.33
16.26
28.09
38.74
46.20
48.66
45.33
37.15
27.67
22.55
27.65
46.38
77.23
113.67
145.94
164.94
165.33
146.94
113.83
71.88
26.65
-17.90
-58.82
-93.63
-119.50
-133.70
-134.53
-122.28
-99.74
-71.62
-43.52
-20.24
-4.83
2.23
2.69
-0.09
-2.19
-0.42
7.06
19.94
36.01
51.58
62.62
66.19
61.45
50.04
35.07
20.13
7.97
0.38
-1.84
1.04
7.51
14.16
16.50
9.95
-7.67
-34.79
-66.04
-93.97
-112.17
-117.51
-111.24
-97.61
-81.91
-68.28
-58.91
-54.07
-52.82
-53.93
-56.13
-58.89
-62.33
-67.34
-75.14
-86.23
-99.68
-112.60
-120.89
-120.21
-107.43
-81.37
-43.25
3.39
53.14
99.15
134.62
154.24
156.26
143.37
122.10
100.51
84.95
77.78
76.62
76.42
72.17
61.50
45.30
26.40
7.36
-11.30
-30.83
-53.03
-78.34
-105.06
-130.18
-151.06
-166.64
-177.16
-182.78
-181.91
-171.38
-148.04
-111.22
-64.38
-14.29
31.27
66.67
89.89
102.40
107.11
106.70
102.95
97.14
91.30
88.36
91.47
102.26
119.53
138.86
153.91
158.89
150.65
129.98
100.68
67.65
34.51
2.64
-28.20
-58.22
-85.92
-108.27
-122.09
-126.34
-123.24
-117.43
-113.65
-114.01
-116.83
-117.27
-109.73
-90.14
-57.41
-13.47
37.44
89.51
136.29
171.32
189.61
188.83
170.50
