1515717729.00
64.000000
-0.00
-0.00
-0.00
-0.00
-0.00
-0.00
-0.00
-0.00
-0.00
-0.00
0.00
0.01
0.01
-0.00
-0.03
-0.05
-0.05
0.00
0.13
0.36
0.66
1.01
1.37
1.72
2.06
2.40
2.79
3.24
3.80
4.42
5.06
5.66
6.20
6.68
7.15
7.68
8.31
9.14
10.09
11.04
11.88
12.56
13.14
13.76
14.65
15.96
17.91
20.32
22.90
25.38
27.58
29.57
31.68
34.32
37.81
42.54
48.15
54.10
59.83
64.97
69.58
74.14
79.34
85.71
93.76
103.00
112.62
121.73
129.77
136.75
143.30
150.75
157.77
166.64
177.95
191.79
206.97
220.57
228.25
225.36
208.53
176.87
132.76
80.05
23.07
-34.94
-92.44
-149.16
-205.23
-260.37
-313.74
-363.87
-409.83
-450.91
-486.50
-515.74
-537.23
-549.22
-549.96
-538.37
-514.21
-478.67
-433.88
-382.45
-327.02
-269.84
-212.63
-156.66
-102.95
-52.37
-5.90
35.58
71.43
101.35
125.50
144.38
158.69
169.15
176.37
180.75
182.57
182.07
179.51
175.23
169.65
163.18
156.15
148.81
141.30
133.69
126.02
118.33
110.69
103.16
95.80
88.68
81.83
75.25
68.95
62.95
57.25
51.86
46.78
42.03
37.59
33.45
29.61
26.07
22.81
19.83
17.11
14.67
12.48
10.54
8.83
7.35
6.07
4.97
4.05
3.27
2.62
2.09
1.65
1.30
1.01
0.79
0.61
0.47
0.37
0.28
0.22
0.18
0.14
0.12
0.10
0.10
0.10
0.11
0.12
0.14
0.17
0.20
0.24
0.27
0.32
0.36
0.40
0.45
0.50
0.55
0.60
0.66
0.71
0.77
0.84
0.91
0.99
1.08
1.17
1.28
1.40
1.54
1.69
1.86
2.05
2.26
2.49
2.75
3.04
3.35
3.69
4.07
4.48
4.93
5.42
5.94
6.50
7.10
7.75
8.44
9.18
9.96
10.79
11.66
12.58
13.54
14.56
15.65
16.80
18.01
19.28
20.57
21.85
23.06
24.09
24.86
25.21
25.05
24.26
22.76
20.52
17.59
13.99
9.88
5.44
0.85
-3.65
-7.86
-11.59
-14.70
-17.09
-18.71
-19.58
-19.76
-19.33
-18.41
-17.09
-15.48
-13.67
-11.75
-9.80
-7.84
-5.93
-4.10
-2.31
-0.53
1.31
3.20
5.17
7.21
9.36
11.53
13.68
15.86
18.15
20.58
23.18
25.94
28.85
31.95
35.03
38.04
41.08
44.28
47.78
51.57
55.58
59.71
63.94
67.89
71.49
74.97
78.62
82.64
87.01
91.46
95.58
99.12
101.39
102.24
101.93
100.78
98.82
95.41
89.07
77.32
62.30
44.34
24.06
2.41
-19.51
-40.91
-61.47
-81.43
-101.36
-122.01
-144.90
-171.11
-200.95
-233.28
-265.21
-292.29
-309.70
-313.80
-303.52
-281.39
-251.90
-220.11
-189.89
-163.24
-140.34
-120.51
-102.99
-87.35
-73.80
-62.25
-52.33
-43.34
-34.70
-26.09
-17.65
-9.85
-3.23
1.65
4.75
6.38
7.25
7.98
8.95
10.11
11.11
11.70
11.88
12.16
13.29
15.92
20.24
25.79
31.71
36.95
40.85
43.15
44.16
44.35
44.28
44.24
44.26
44.15
43.54
42.25
40.23
37.74
35.12
32.75
30.80
29.19
27.74
26.13
24.23
22.03
19.70
17.44
15.38
13.52
11.69
9.63
7.06
3.92
0.35
-3.14
-5.89
-7.28
-6.92
-4.88
-1.59
2.24
6.00
9.27
11.99
14.28
16.29
18.09
19.59
20.66
21.15
21.13
20.70
20.05
19.35
18.59
17.83
16.99
16.15
15.36
14.69
14.14
13.59
12.91
11.83
10.29
8.24
5.87
3.45
1.27
-0.51
-1.98
-3.40
-5.20
-7.62
-10.69
-13.97
-16.82
-18.50
-18.45
-16.58
-13.13
-8.75
-4.08
0.27
4.02
7.12
9.69
11.92
13.82
15.38
16.48
17.10
17.28
17.21
17.07
16.89
16.67
16.24
15.58
14.73
13.93
13.47
13.51
14.00
14.57
14.83
14.34
13.01
10.97
8.59
6.27
4.25
2.62
1.19
-0.23
-1.90
-3.93
-6.36
-9.08
-11.87
-14.42
-16.27
-17.13
-16.74
-15.09
-12.31
-8.67
-4.56
-0.37
3.48
6.68
9.06
10.70
11.82
12.73
13.68
14.68
15.62
16.23
16.40
16.10
15.56
14.99
14.59
14.40
14.31
14.22
13.99
13.62
13.06
12.30
11.27
9.85
8.05
5.90
3.61
1.35
-0.68
-2.46
-4.07
-5.72
-7.64
-9.93
-12.57
-15.20
-17.36
-18.43
-18.01
-16.00
-12.65
-8.58
-4.34
-0.49
2.79
5.51
7.77
9.64
11.05
11.88
12.02
11.60
10.82
10.04
9.54
9.43
9.63
9.96
10.26
10.41
10.49
10.52
10.54
10.43
9.97
9.02
7.55
5.80
4.04
2.61
1.62
0.99
0.49
-0.22
-1.37
-3.19
-5.64
-8.59
-11.57
-13.98
-15.17
-14.66
-12.39
-8.73
-4.46
-0.31
3.06
5.51
7.15
8.27
9.17
9.95
10.61
11.00
11.10
10.86
10.39
9.78
9.10
8.43
7.69
6.95
6.17
5.49
4.95
4.61
4.40
4.15
3.74
3.04
2.10
0.98
-0.16
-1.30
-2.49
-3.84
-5.51
-7.54
-9.92
-12.41
-14.70
-16.33
-16.89
-16.09
-13.86
-10.52
-6.51
-2.48
1.15
4.07
6.27
7.92
9.17
10.16
10.84
11.22
11.23
10.97
10.58
10.23
10.07
10.09
10.20
10.20
9.94
9.33
8.42
7.37
6.34
5.43
4.59
3.73
2.68
1.41
-0.07
-1.70
-3.46
-5.41
-7.55
-9.86
-12.04
-13.69
-14.32
-13.63
-11.60
-8.53
-4.95
-1.42
1.56
3.84
5.41
6.51
7.38
8.16
8.89
9.42
9.59
9.25
8.48
7.46
6.51
5.87
5.61
5.66
5.77
5.76
5.50
5.05
4.52
4.02
3.61
3.15
2.54
1.60
0.37
-1.08
-2.56
-4.00
-5.43
-6.96
-8.71
-10.56
-12.21
-13.15
-12.92
-11.30
-8.44
-4.86
-1.21
1.88
4.16
5.61
6.52
7.19
7.81
8.41
8.78
8.79
8.34
7.58
6.73
6.08
5.74
5.66
5.65
5.43
4.91
4.01
2.85
1.57
0.31
-0.78
-1.68
-2.31
-2.80
-3.20
-3.71
-4.39
-5.32
-6.50
-7.91
-9.54
-11.23
-12.78
-13.75
-13.80
-12.64
-10.31
-7.17
-3.71
-0.47
2.29
4.45
6.17
7.56
8.68
9.48
9.80
9.58
8.78
7.61
6.31
5.18
4.46
4.22
4.43
4.87
5.35
5.60
5.52
5.01
4.14
3.06
1.95
1.00
0.24
-0.34
-0.93
-1.67
-2.71
-4.12
-5.90
-8.03
-10.31
-12.46
-14.00
-14.52
-13.68
-11.55
-8.51
-5.15
-2.06
0.48
2.41
3.99
5.39
6.72
7.91
8.78
9.25
9.27
8.97
8.44
7.83
7.19
6.62
6.19
5.89
5.73
5.51
5.12
4.41
3.41
2.25
1.08
0.00
-1.06
-2.18
-3.52
-5.07
-6.80
-8.58
-10.30
-11.83
-12.99
-13.57
-13.29
-12.02
-9.79
-6.88
-3.72
-0.78
1.61
3.40
4.68
5.75
6.73
7.67
8.44
8.85
8.77
8.19
7.33
6.39
5.62
5.10
4.80
4.61
4.39
4.09
3.64
3.14
2.60
2.10
1.63
1.17
0.68
0.04
-0.78
-1.82
-3.04
-4.45
-6.03
-7.82
-9.78
-11.74
-13.43
-14.40
-14.31
-12.97
-10.53
-7.41
-4.16
-1.25
1.10
2.89
4.34
5.64
6.96
8.28
9.49
10.43
10.93
10.98
10.60
10.03
9.46
9.11
9.02
9.10
9.21
9.15
8.89
8.39
7.74
6.94
5.94
4.67
3.11
1.34
-0.54
-2.29
-3.84
-5.11
-6.21
-7.30
-8.54
-10.10
-11.95
-13.91
-15.57
-16.49
-16.28
-14.83
-12.30
-9.02
-5.48
-2.06
0.94
3.43
5.38
6.89
8.06
8.96
9.71
10.25
10.59
10.68
10.56
10.30
10.02
9.79
9.59
9.35
8.96
8.43
7.78
7.19
6.75
6.52
6.50
6.52
6.42
6.01
5.21
3.99
2.46
0.75
-1.01
-2.65
-4.16
-5.47
-6.65
-7.72
-8.83
-10.12
-11.68
-13.54
-15.50
-17.19
-18.13
-17.95
-16.49
-13.93
-10.69
-7.29
-4.20
-1.65
0.29
1.76
2.86
3.71
4.31
4.66
4.80
4.75
4.67
4.61
4.68
4.88
5.18
5.56
5.96
6.35
6.67
6.97
7.21
7.44
7.66
7.82
7.86
7.61
7.01
6.01
4.75
3.44
2.27
1.36
0.64
-0.02
-0.80
-1.73
-2.77
-3.80
-4.74
-5.61
-6.48
-7.54
-8.92
-10.70
-12.81
-15.04
-17.02
-18.33
-18.58
-17.58
-15.49
-12.62
-9.50
-6.53
-3.95
-1.72
0.26
2.10
3.81
5.24
6.31
6.88
7.02
6.90
6.76
6.82
7.18
7.85
8.65
9.41
9.96
10.29
10.45
10.52
10.55
10.45
10.18
9.60
8.81
7.88
6.99
6.29
5.79
5.41
4.94
4.31
3.43
2.43
1.41
0.54
-0.13
-0.70
-1.30
-2.17
-3.37
-4.90
-6.52
-8.02
-9.22
-10.10
-10.89
-11.85
-13.30
-15.21
-17.33
-19.08
-19.84
-19.17
-16.98
-13.67
-9.82
-6.16
-3.14
-0.93
0.63
1.81
2.84
3.81
4.63
5.23
5.52
5.59
5.59
5.68
5.96
6.43
7.06
7.69
8.22
8.55
8.65
8.54
8.31
8.08
7.90
7.85
7.82
7.77
7.56
7.17
6.61
5.92
5.18
4.33
3.36
2.12
0.62
-1.09
-2.81
-4.29
-5.38
-6.03
-6.42
-6.73
-7.20
-7.92
-8.85
-9.92
-11.01
-12.14
-13.36
-14.70
-15.99
-16.92
-17.01
-15.88
-13.43
-9.94
-6.06
-2.45
0.32
2.13
3.17
3.83
4.42
5.01
5.56
5.91
6.07
6.08
6.10
6.20
6.31
6.36
6.24
6.00
5.71
5.50
5.41
5.40
5.38
5.25
5.02
4.65
4.21
3.68
3.08
2.47
1.88
1.41
1.06
0.76
0.33
-0.34
-1.33
-2.54
-3.78
-4.88
-5.74
-6.44
-7.12
-8.00
-9.18
-10.72
-12.52
-14.36
-15.97
-16.97
-17.10
-16.15
-14.19
-11.46
-8.42
-5.50
-3.03
-1.16
0.17
1.09
1.81
2.44
3.05
3.61
4.04
4.32
4.40
4.38
4.29
4.28
4.36
4.57
4.88
5.22
5.61
5.97
6.32
6.56
6.66
6.55
6.20
5.65
4.84
3.84
2.61
1.24
-0.21
-1.57
-2.73
-3.60
-4.15
-4.47
-4.65
-4.91
-5.40
-6.30
-7.65
-9.28
-10.88
-11.98
-12.20
-11.28
-9.31
-6.57
-3.57
-0.72
1.66
3.47
4.75
5.50
5.81
5.68
5.28
4.79
4.51
4.62
5.10
5.77
6.29
6.47
6.27
5.88
5.54
5.39
5.44
5.50
5.43
5.09
4.53
3.80
3.01
2.21
1.39
0.58
-0.27
-1.13
-2.07
-3.11
-4.31
-5.71
-7.32
-9.17
-11.12
-13.00
-14.46
-15.16
-14.81
-13.37
-11.04
-8.22
-5.40
-2.88
-0.83
0.80
2.11
3.22
4.16
4.91
5.48
5.83
6.05
6.15
6.23
6.27
6.29
6.24
6.05
5.69
5.16
4.54
3.90
3.36
2.97
2.67
2.39
1.96
1.35
0.50
-0.52
-1.65
-2.82
-3.96
-5.03
-6.01
-6.96
-7.96
-9.20
-10.79
-12.77
-14.98
-17.08
-18.68
-19.34
-18.89
-17.30
-14.84
-11.82
-8.66
-5.67
-3.06
-0.91
0.84
2.25
3.51
4.66
5.73
6.65
7.31
7.64
7.61
7.36
6.97
6.61
6.35
6.21
6.17
6.17
6.21
6.25
6.28
6.23
6.00
5.52
4.72
3.64
2.40
1.17
0.05
-0.89
-1.69
-2.45
-3.32
-4.45
-5.96
-8.02
-10.57
-13.47
-16.34
-18.69
-20.01
-19.97
-18.58
-16.07
-12.95
-9.65
-6.56
-3.84
-1.53
0.43
2.11
3.55
4.76
5.69
6.33
6.63
6.66
6.53
6.42
6.51
6.84
7.37
7.91
8.28
8.35
8.16
7.87
7.60
7.43
7.27
6.97
6.38
5.50
4.42
3.29
2.23
1.20
0.10
-1.23
-2.78
-4.53
-6.30
-8.03
-9.71
-11.45
-13.38
-15.49
-17.60
-19.26
-20.01
-19.45
-17.49
-14.42
-10.80
-7.41
-4.78
-3.17
-2.31
-1.67
-0.61
1.29
4.02
7.20
10.20
12.44
13.57
13.67
13.10
12.42
12.15
12.58
13.74
15.38
17.16
18.71
19.77
20.25
20.35
20.62
22.00
25.79
33.16
44.76
60.10
77.49
94.23
107.40
114.75
115.24
109.31
98.37
84.28
68.62
52.48
36.48
21.01
6.52
-6.50
-17.57
-26.51
-33.42
-38.64
-42.51
-45.02
-45.92
-44.72
-41.17
-35.42
-28.19
-20.51
-13.53
-8.06
-4.41
-2.46
-1.65
-1.38
-1.11
-0.61
0.13
0.86
1.29
1.31
0.99
0.65
0.66
1.30
2.56
4.19
5.75
6.74
6.85
5.97
4.28
2.11
-0.20
-2.45
-4.61
-6.91
-9.67
-13.12
-17.32
-22.00
-26.65
-30.54
-32.97
-33.44
-31.70
-27.95
-22.61
-16.31
-9.54
-2.58
4.52
11.76
18.91
25.46
30.60
33.61
34.09
32.24
28.76
24.60
20.61
17.31
14.84
13.13
12.05
11.47
11.30
11.29
11.06
10.19
8.28
5.21
1.09
-3.73
-8.80
-13.69
-18.02
-21.54
-24.15
-25.98
-27.28
-28.42
-29.69
-31.18
-32.75
-34.16
-35.22
-35.91
-36.41
-36.82
-37.16
-37.11
-36.21
-34.08
-30.62
-26.15
-21.25
-16.62
-12.77
-9.92
-7.96
-6.57
-5.33
-3.92
-2.22
-0.35
1.37
2.64
3.22
3.11
2.62
2.32
2.96
5.13
9.11
14.53
20.44
25.57
28.76
29.49
28.05
25.45
22.89
21.34
21.14
22.09
23.62
25.14
26.26
26.72
26.51
25.71
24.55
23.27
22.04
20.90
19.66
18.05
15.89
13.25
10.44
7.94
6.18
5.35
5.40
6.04
6.89
7.59
7.96
7.94
7.69
7.43
7.28
7.30
7.37
7.43
7.46
7.57
7.90
8.53
9.37
10.17
10.66
10.58
9.89
8.61
6.83
4.62
1.99
-1.06
-4.61
-8.65
-13.19
-18.11
-23.27
-28.45
-33.45
-38.20
-42.66
-46.95
-51.07
-55.06
-58.80
-62.13
-64.85
-66.69
-67.36
-66.59
-64.24
-60.36
-55.37
-49.81
-44.41
-39.67
-35.86
-32.98
-30.75
-28.89
-27.13
-25.40
-23.72
-22.24
-21.15
-20.47
-20.13
-19.91
-19.52
-18.76
-17.51
-15.76
-13.60
-11.14
-8.48
-5.80
-3.27
-1.11
0.57
1.75
2.59
3.30
4.08
5.10
6.39
7.99
9.79
11.72
13.61
15.24
16.38
16.78
16.32
14.92
12.70
9.82
6.67
3.73
1.58
0.75
1.50
3.83
7.30
11.33
15.26
18.65
21.32
23.27
24.56
25.12
24.94
23.96
22.39
20.64
19.21
18.51
18.59
19.25
20.02
20.46
20.25
19.26
17.42
14.69
11.17
7.13
3.13
-0.22
-2.45
-3.55
-3.94
-4.25
-4.98
-6.16
-7.48
-8.38
-8.52
-7.80
-6.42
-4.72
-3.02
-1.71
-1.19
-1.97
-4.33
-8.30
-13.44
-18.91
-23.76
-27.26
-29.17
-29.71
-29.42
-28.79
-28.10
-27.29
-26.12
-24.32
-21.86
-18.95
-15.99
-13.44
-11.63
-10.67
-10.48
-10.81
-11.45
-12.17
-12.83
-13.30
-13.49
-13.33
-12.85
-12.21
-11.55
-11.06
-10.78
-10.72
-10.85
-11.14
-11.60
-12.17
-12.74
-13.18
-13.48
-13.76
-14.33
-15.40
-17.02
-18.96
-20.84
-22.48
-23.95
-25.58
-27.60
-29.89
-31.77
-32.33
-30.80
-26.93
-21.12
-14.07
-6.58
0.97
8.40
15.73
22.77
29.03
33.75
36.10
35.57
32.05
25.98
18.32
10.36
3.50
-1.13
-2.90
-1.98
0.80
4.14
6.86
8.15
7.83
6.24
3.87
1.23
-1.43
-3.92
-6.16
-8.00
-9.35
-10.16
-10.47
-10.44
-10.19
-9.87
-9.54
-9.25
-8.88
-8.21
-6.88
-4.52
-1.01
3.47
8.31
12.87
16.63
19.39
21.34
22.75
23.87
24.68
25.07
24.88
24.13
23.00
21.80
20.90
20.59
21.11
22.47
24.46
26.55
28.09
28.46
27.33
24.87
21.54
18.02
14.80
12.12
9.86
7.83
5.84
3.85
1.93
0.05
-1.87
-4.05
-6.67
-9.83
-13.49
-17.45
-21.53
-25.41
-28.72
-30.99
-31.74
-30.64
-27.69
-23.33
-18.25
-13.22
-8.71
-4.92
-1.71
1.16
3.79
6.21
8.31
10.10
11.62
13.03
14.44
15.90
17.34
18.63
19.63
20.23
20.40
20.22
19.92
19.76
20.00
20.74
21.82
22.96
23.81
24.18
24.06
23.57
22.84
21.91
20.77
19.42
18.00
16.63
15.41
14.26
12.89
11.02
8.45
5.33
1.98
-1.08
-3.39
-4.63
-4.72
-3.89
-2.64
-1.71
-1.73
-3.09
-5.62
-8.70
-11.55
-13.60
-14.79
-15.49
-16.19
-17.15
-18.31
-19.35
-20.02
-20.26
-20.13
-19.76
-19.28
-19.04
-19.66
-21.99
-26.59
-33.26
-40.67
-46.74
-49.49
-47.88
-42.51
-35.27
-28.60
-24.45
-23.73
-26.18
-30.66
-35.56
-39.08
-39.61
-36.04
-28.37
-17.96
-7.49
-0.17
1.51
-3.22
-13.01
-24.89
-35.31
-41.47
-42.03
-37.24
-28.50
-17.53
-5.98
4.96
14.39
21.74
26.59
28.78
28.57
26.51
23.49
20.34
17.61
15.35
13.19
10.54
7.06
2.87
-1.39
-4.76
-6.46
-6.20
-4.34
-1.81
0.34
1.29
0.72
-1.17
-3.82
-6.63
-9.22
-11.52
-13.84
-16.61
-20.21
-24.70
-29.71
-34.44
-37.84
-38.96
-37.25
-32.82
-26.24
-18.48
-10.45
-2.82
4.08
10.19
15.54
20.20
24.12
27.32
29.82
31.74
33.23
34.44
35.42
36.12
36.41
36.15
35.36
34.17
32.88
31.77
31.03
30.57
30.07
29.19
27.57
25.19
22.18
18.86
15.52
12.22
8.85
5.04
0.43
-5.30
-12.17
-19.93
-27.94
-35.26
-40.90
-43.94
-43.92
-40.88
-35.50
-28.71
-21.52
-14.67
-8.50
-3.02
1.97
6.59
10.89
14.73
18.02
20.65
22.64
24.08
25.05
25.69
26.07
26.25
26.31
26.28
26.24
26.16
26.02
25.71
25.09
23.96
22.20
19.73
16.64
13.16
9.59
6.22
3.18
0.41
-2.36
-5.46
-9.22
-13.87
-19.32
-25.24
-30.87
-35.30
-37.53
-36.88
-33.22
-27.01
-19.25
-11.05
-3.36
3.35
9.04
14.02
18.61
22.91
26.87
30.15
32.51
33.78
34.08
33.67
32.94
32.23
31.71
31.39
31.07
30.54
29.62
28.31
26.71
25.02
23.31
21.51
19.38
16.68
13.37
9.62
5.85
2.45
-0.36
-2.71
-4.96
-7.57
-10.93
-15.15
-20.05
-25.17
-29.77
-33.04
-34.21
-32.84
-28.93
-22.99
-15.82
-8.34
-1.25
5.05
10.40
14.83
18.39
21.16
23.17
24.52
25.34
25.77
26.05
26.28
26.61
27.00
27.31
27.31
26.85
25.90
24.59
23.21
21.97
21.00
20.17
19.32
18.18
16.60
14.50
11.87
8.80
5.39
1.89
-1.48
-4.51
-7.20
-9.76
-12.57
-16.05
-20.38
-25.46
-30.68
-35.19
-38.03
-38.46
-36.24
-31.60
-25.25
-18.05
-10.84
-4.17
1.71
6.76
11.02
14.50
17.19
19.06
20.23
20.83
21.07
21.11
21.01
20.78
20.36
19.77
19.05
18.29
17.51
16.73
15.87
14.86
13.67
12.29
10.77
9.08
7.24
5.24
3.12
0.98
-1.13
-3.13
-5.09
-7.11
-9.37
-12.02
-15.16
-18.70
-22.39
-25.78
-28.22
-29.17
-28.22
-25.35
-20.90
-15.52
-9.86
-4.46
0.39
4.60
8.14
11.05
13.30
14.86
15.78
16.11
16.02
15.65
15.26
15.03
15.09
15.44
15.89
16.20
16.09
15.50
14.49
13.30
12.13
11.04
9.92
8.48
6.54
4.05
1.28
-1.42
-3.69
-5.39
-6.64
-7.78
-9.23
-11.28
-14.09
-17.50
-21.17
-24.51
-26.83
-27.48
-26.10
-22.75
-17.90
-12.35
-6.81
-1.79
2.54
6.28
9.55
12.43
14.82
16.62
17.72
18.15
18.04
17.58
16.99
16.38
15.85
15.38
14.99
14.65
14.38
14.23
14.15
14.06
13.75
13.05
11.76
9.90
7.63
5.18
2.84
0.77
-0.92
-2.30
-3.51
-4.74
-6.18
-7.98
-10.23
-12.92
-16.02
-19.28
-22.34
-24.61
-25.46
-24.41
-21.33
-16.60
-10.94
-5.32
-0.44
3.30
6.05
8.17
10.09
12.01
13.83
15.36
16.30
16.61
16.39
15.89
15.36
14.95
14.68
14.48
14.33
14.16
14.00
13.80
13.48
12.93
12.01
10.63
8.78
6.55
4.07
1.53
-0.87
-3.02
-4.85
-6.42
-7.82
-9.21
-10.70
-12.40
-14.28
-16.33
-18.48
-20.63
-22.63
-24.18
-24.95
-24.56
-22.83
-19.80
-15.82
-11.41
-7.08
-3.21
0.09
2.84
5.20
7.23
8.94
10.25
11.08
11.41
11.29
10.90
10.45
10.19
10.30
10.82
11.63
12.45
13.02
13.12
12.77
12.11
11.36
10.68
10.03
9.30
8.29
6.98
5.39
3.77
2.28
1.04
0.03
-0.93
-1.97
-3.28
-4.92
-6.97
-9.42
-12.24
-15.30
-18.28
-20.71
-22.02
-21.80
-19.87
-16.45
-12.01
-7.18
-2.55
1.42
4.50
6.66
8.02
8.85
9.37
9.79
10.18
10.46
10.52
10.27
9.77
9.19
8.75
8.59
8.64
8.73
8.60
8.12
7.25
6.16
5.08
4.24
3.72
3.46
3.29
2.93
2.23
1.06
-0.51
-2.38
-4.39
-6.39
-8.30
-10.11
-11.94
-13.87
-16.07
-18.54
-21.16
-23.59
-25.38
-26.11
-25.46
-23.44
-20.28
-16.42
-12.38
-8.58
-5.33
-2.73
-0.75
0.78
2.02
3.11
4.07
4.84
5.37
5.62
5.71
5.71
5.77
5.93
6.19
6.46
6.69
6.88
6.97
6.99
6.89
6.67
6.30
5.78
5.13
4.32
3.37
2.23
0.96
-0.38
-1.65
-2.70
-3.40
-3.71
-3.73
-3.62
-3.72
-4.29
-5.48
-7.11
-8.71
-9.59
-9.13
-7.04
-3.47
0.91
5.33
9.08
11.82
13.54
14.39
14.53
13.96
12.64
10.55
7.93
5.18
2.73
0.92
-0.20
-0.78
-1.12
-1.44
-1.87
-2.32
-2.61
-2.57
-2.07
-1.16
0.04
1.23
2.13
2.52
2.32
1.62
0.61
-0.53
-1.67
-2.76
-3.88
-5.09
-6.47
-8.11
-10.08
-12.44
-15.12
-17.90
-20.31
-21.75
-21.73
-20.04
-16.88
-12.83
-8.66
-4.93
-2.00
0.21
1.92
3.37
4.66
5.77
6.61
7.15
7.50
7.77
8.10
8.51
8.94
9.31
9.52
9.58
9.46
9.24
8.90
8.48
7.97
7.36
6.66
5.82
4.82
3.63
2.31
0.93
-0.40
-1.61
-2.70
-3.69
-4.72
-5.85
-7.18
-8.72
-10.46
-12.35
-14.28
-16.10
-17.54
-18.32
-18.13
-16.83
-14.43
-11.21
-7.59
-4.01
-0.91
1.54
3.32
4.62
5.63
6.54
7.40
8.17
8.79
9.13
9.18
8.97
8.67
8.44
8.39
8.52
8.63
8.51
7.91
6.85
5.50
4.18
3.21
2.71
2.60
2.59
2.42
1.87
0.94
-0.27
-1.60
-2.91
-4.18
-5.43
-6.82
-8.47
-10.50
-12.89
-15.49
-18.03
-20.12
-21.42
-21.63
-20.70
-18.65
-15.75
-12.35
-8.83
-5.58
-2.80
-0.60
1.13
2.54
3.76
4.83
5.67
6.18
6.31
6.12
5.71
5.24
4.78
4.34
3.88
3.42
3.02
2.71
2.54
2.40
2.19
1.76
1.08
0.22
-0.72
-1.59
-2.42
-3.20
-4.02
-4.85
-5.63
-6.27
-6.75
-7.19
-7.80
-8.83
-10.38
-12.43
-14.72
-16.86
-18.43
-19.06
-18.53
-16.80
-14.04
-10.62
-6.99
-3.57
-0.67
1.61
3.33
4.63
5.70
6.54
7.17
7.51
7.56
7.40
7.18
7.10
7.23
7.55
7.98
8.45
8.87
9.22
9.50
9.62
9.49
8.98
8.10
6.88
5.53
4.20
3.00
1.97
1.01
0.10
-0.83
-1.74
-2.68
-3.71
-4.93
-6.40
-8.00
-9.52
-10.56
-10.78
-9.99
-8.22
-5.74
-2.91
-0.12
2.38
4.40
5.92
6.95
7.61
7.99
8.18
8.24
8.16
7.94
7.62
7.35
7.23
7.35
7.66
7.97
8.09
7.90
7.51
7.07
6.75
6.57
6.35
5.89
5.01
3.72
2.18
0.64
-0.75
-1.93
-2.94
-3.90
-4.97
-6.32
-8.07
-10.27
-12.77
-15.20
-17.02
-17.70
-16.91
-14.68
-11.43
-7.67
-3.99
-0.74
1.95
4.11
5.83
7.16
8.17
8.87
9.35
9.70
10.02
10.33
10.56
10.68
10.56
10.24
9.70
9.06
8.38
7.75
7.25
6.89
6.68
6.53
6.33
5.91
5.18
4.10
2.79
1.42
0.14
-0.96
-1.98
-2.99
-4.20
-5.72
-7.61
-9.90
-12.45
-15.02
-17.15
-18.40
-18.41
-17.08
-14.64
-11.56
-8.33
-5.25
-2.44
0.27
3.05
6.01
9.09
12.04
14.58
16.34
17.16
16.98
16.02
14.66
13.29
12.17
11.30
10.45
9.27
7.61
5.57
3.54
1.95
1.04
0.72
0.64
0.43
-0.13
-0.96
-1.83
-2.55
-3.17
-3.98
-5.31
-7.40
-10.18
-13.38
-16.57
-19.38
-21.55
-22.94
-23.50
-23.17
-21.94
-19.81
-16.91
-13.45
-9.69
-5.88
-2.17
1.32
4.53
7.30
9.46
10.79
11.19
10.75
9.79
8.79
8.13
8.07
8.54
9.32
10.12
10.69
10.92
10.76
10.27
9.51
8.63
7.74
6.96
6.33
5.77
5.15
4.28
3.14
1.76
0.35
-0.85
-1.65
-2.00
-2.02
-1.92
-1.99
-2.41
-3.27
-4.42
-5.61
-6.49
-6.76
-6.31
-5.20
-3.75
-2.26
-1.08
-0.29
0.17
0.53
1.02
1.68
2.44
3.01
3.23
3.04
2.64
2.37
2.53
3.28
4.44
5.70
6.62
6.99
6.78
6.14
5.33
4.45
3.52
2.45
1.19
-0.22
-1.69
-3.11
-4.43
-5.61
-6.71
-7.74
-8.74
-9.69
-10.66
-11.69
-12.79
-14.00
-15.19
-16.28
-17.08
-17.42
-17.05
-15.86
-13.83
-11.12
-8.10
-5.02
-2.00
1.31
5.64
11.93
21.11
33.56
48.91
65.78
82.13
95.65
104.43
107.47
104.85
97.59
87.11
74.95
62.33
50.29
39.67
31.27
25.71
23.16
23.26
25.03
27.31
29.09
29.89
29.75
29.12
28.42
27.76
27.02
25.82
23.90
21.16
17.74
13.84
9.66
5.36
0.96
-3.51
-8.12
-12.85
-17.63
-22.12
-25.77
-27.82
-27.48
-24.27
-18.27
-10.37
-2.09
4.73
8.55
8.65
5.32
-0.21
-6.39
-11.90
-16.11
-19.07
-21.23
-23.01
-24.54
-25.82
-26.89
-28.03
-29.70
-32.28
-35.80
-39.96
-44.21
-48.07
-51.31
-53.90
-55.97
-57.58
-58.78
-59.60
-60.15
-60.65
-61.25
-61.96
-62.43
-62.15
-60.56
-57.34
-52.63
-46.99
-41.39
-36.83
-34.14
-33.63
-35.00
-37.36
-39.65
-40.98
-40.93
-39.73
-37.90
-36.05
-34.47
-33.10
-31.72
-30.11
-28.32
-26.54
-25.00
-23.71
-22.46
-20.95
-19.01
-16.84
-14.90
-13.70
-13.43
-13.84
-14.19
-13.69
-11.82
-8.49
-4.14
0.60
5.15
9.15
12.40
14.75
16.04
16.20
15.44
14.22
13.20
12.83
13.11
13.51
13.24
11.67
8.70
4.87
1.10
-1.58
-2.47
-1.36
1.43
5.23
9.14
12.30
14.13
14.37
13.29
11.41
9.42
7.82
6.81
6.27
5.81
5.03
3.60
1.51
-1.00
-3.41
-5.16
-5.80
-5.19
-3.68
-1.95
-0.87
-1.11
-2.87
-5.69
-8.66
-10.67
-10.88
-8.99
-5.27
-0.48
4.49
8.82
11.99
13.80
14.30
13.78
12.58
11.19
10.03
9.48
9.67
10.50
11.64
12.63
13.08
12.74
11.62
9.93
8.01
6.18
4.62
3.36
2.26
1.19
-0.00
-1.26
-2.50
-3.59
-4.46
-5.19
-5.96
-7.01
-8.46
-10.34
-12.43
-14.37
-15.77
-16.25
-15.67
-14.00
-11.45
-8.30
-4.91
-1.57
1.48
4.07
6.17
7.83
9.21
10.47
11.73
12.93
13.84
14.12
13.45
11.71
9.00
5.74
2.39
-0.64
-3.19
-5.30
-7.19
-9.14
-11.26
-13.52
-15.64
-17.19
-17.76
-17.06
-15.17
-12.47
-9.65
-7.44
-6.45
-6.95
-8.85
-11.73
-14.84
-17.37
-18.38
-17.18
-13.39
-7.20
0.65
8.98
16.55
22.40
26.04
27.56
27.37
26.07
24.28
22.56
21.38
21.16
22.12
24.16
26.81
29.25
30.66
30.49
28.71
25.89
22.89
20.56
19.23
18.72
18.27
17.12
14.79
11.39
7.64
4.48
2.71
2.57
3.69
5.16
6.00
5.52
3.56
0.57
-2.61
-4.85
-4.90
-1.59
5.66
16.24
27.94
37.22
40.42
35.28
22.32
4.81
-12.40
-24.94
-30.69
-30.24
-26.07
-20.87
-16.29
-12.58
-9.23
-5.90
-2.92
-1.12
-1.25
-3.40
-6.79
-10.24
-12.63
-13.41
-12.78
-11.52
-10.58
-10.63
-11.87
-13.89
-15.97
-17.37
-17.69
-16.90
-15.32
-13.40
-11.48
-9.75
-8.28
-7.08
-6.12
-5.26
-4.09
-1.97
1.78
7.60
15.30
23.92
31.96
37.82
40.33
39.05
34.33
27.02
18.23
8.98
0.19
-7.34
-12.89
-15.93
-16.28
-14.28
-10.74
-6.73
-3.29
-1.08
-0.24
-0.36
-0.70
-0.45
0.88
3.20
5.90
8.04
8.81
7.98
5.94
3.57
1.72
0.94
1.29
2.64
4.78
7.46
10.22
12.30
12.75
10.85
6.59
0.77
-5.25
-10.25
-13.63
-15.54
-16.54
-17.06
-17.15
-16.50
-14.92
-12.60
-10.21
-8.55
-8.17
-9.07
-10.77
-12.54
-13.67
-13.77
-12.76
-10.87
-8.53
-6.27
-4.64
-4.04
-4.68
-6.46
-9.12
-12.19
-15.14
-17.33
-18.04
-16.55
-12.30
-5.22
4.13
14.56
24.72
33.46
40.26
45.19
48.61
50.83
51.79
51.26
48.98
45.02
39.77
33.77
27.47
21.00
14.33
7.37
0.27
-6.58
-12.59
-17.23
-20.22
-21.62
-21.88
-21.58
-21.41
-21.85
-23.20
-25.45
-28.29
-31.15
-33.15
-33.37
-31.06
-26.01
-18.79
-10.69
-3.34
1.92
4.44
4.52
3.05
1.11
-0.56
-1.64
-2.07
-1.85
-0.76
1.49
4.98
9.32
13.67
16.96
18.36
17.56
14.87
11.04
6.88
3.10
-0.00
-2.35
-4.08
-5.41
-6.57
-7.84
-9.56
-12.02
-15.19
-18.58
-21.08
-21.26
-17.92
-10.74
-0.67
10.25
19.48
25.00
25.93
22.74
16.88
9.97
3.33
-2.41
-7.05
-10.55
-12.81
-13.67
-13.10
-11.30
-8.80
-6.22
-4.07
-2.59
-1.62
-0.83
0.20
1.71
3.67
5.67
7.15
7.48
6.21
3.37
-0.45
-4.14
-6.41
-6.27
-3.46
1.42
7.07
12.05
15.38
16.77
16.67
15.82
14.92
14.40
14.38
14.86
15.77
16.93
17.93
18.16
16.92
13.83
8.98
3.05
-2.98
-8.15
-11.90
-14.13
-15.09
-15.26
-15.11
-15.15
-15.80
-17.25
-19.27
-21.06
-21.42
-19.33
-14.64
-8.42
-2.68
0.48
-0.05
-3.81
-8.99
-13.33
-15.19
-14.14
-10.83
-6.34
-1.48
3.53
8.75
14.12
19.07
22.68
24.12
23.15
20.26
16.47
12.90
10.29
8.75
7.85
6.98
5.64
3.64
1.06
-1.98
-5.28
-8.57
-11.35
-12.93
-12.61
-10.25
-6.50
-2.63
-0.06
0.40
-1.06
-3.33
-4.94
-4.76
-2.37
1.91
7.39
13.29
18.87
23.29
25.64
25.04
20.99
13.78
4.51
-5.10
-13.29
-18.74
-21.03
-20.63
-18.63
-16.32
-14.72
-14.39
-15.36
-17.35
-19.92
-22.58
-24.77
-25.89
-25.40
-23.03
-18.94
-13.77
-8.38
-3.46
0.63
3.96
6.84
9.52
12.12
14.59
16.82
18.66
19.90
20.21
19.27
16.96
13.59
9.89
6.80
5.05
4.74
5.42
6.17
6.21
5.06
2.82
0.01
-2.62
-4.22
-4.04
-1.62
2.91
8.70
14.23
17.73
17.89
14.43
8.40
1.80
-3.07
-4.51
-1.90
4.21
12.43
21.07
28.45
33.28
34.71
32.42
26.67
18.34
8.79
-0.48
-8.07
-13.13
-15.41
-15.34
-13.67
-11.34
-9.12
-7.54
-6.82
-6.90
-7.56
-8.42
-9.08
-9.32
-9.15
-8.89
-9.11
-10.36
-12.90
-16.49
-20.32
-23.21
-23.99
-21.92
-16.94
-9.73
-1.50
6.40
12.83
17.17
19.34
19.71
18.90
17.45
15.73
13.79
11.53
8.82
5.78
2.87
0.84
0.60
2.89
8.11
16.05
25.77
35.66
43.73
48.04
47.28
41.28
31.03
18.51
6.03
-4.38
-11.42
-14.57
-13.95
-10.15
-4.03
3.23
10.21
15.39
17.52
15.99
11.07
3.84
-4.16
-11.41
-16.88
-20.23
-21.73
-21.99
-21.66
-21.23
-20.96
-21.03
-21.44
-22.14
-22.93
-23.54
-23.72
-23.42
-22.81
-22.21
-21.89
-21.82
-21.76
-21.25
-19.83
-17.21
-13.28
-8.12
-1.94
4.79
11.41
17.10
21.17
23.29
23.65
22.81
21.41
19.77
17.81
15.20
11.62
7.21
2.55
-1.45
-3.86
-3.97
-1.45
3.52
10.34
17.89
24.80
29.63
31.33
29.59
24.93
18.59
12.06
6.63
2.98
1.28
1.27
2.50
4.46
6.59
8.25
8.79
7.72
4.89
0.66
-4.22
-8.78
-12.20
-14.09
-14.53
-14.01
-13.15
-12.53
-12.54
-13.37
-15.01
-17.20
-19.58
-21.65
-22.97
-23.26
-22.41
-20.46
-17.46
-13.53
-8.75
-3.40
2.10
7.17
11.28
14.05
15.40
15.51
14.70
13.32
11.73
10.32
9.48
9.56
10.67
12.63
14.92
16.86
17.82
17.39
15.45
12.10
7.57
2.23
-3.36
-8.45
-12.18
-13.79
-13.01
-10.22
-6.25
-2.16
1.33
3.95
5.91
7.58
9.21
10.78
12.06
12.76
12.68
11.68
9.55
6.10
1.22
-4.87
-11.48
-17.46
-21.49
-22.59
-20.48
-15.79
-9.85
-4.29
-0.41
1.11
0.31
-2.27
-5.85
-9.45
-12.00
-12.39
-9.83
-4.40
2.71
9.44
13.71
14.37
11.72
7.30
2.92
-0.30
-2.33
-3.93
-5.86
-8.21
-10.29
-11.12
-10.04
-7.17
-3.31
0.49
3.41
5.10
5.77
5.89
6.01
6.50
7.49
8.84
10.29
11.54
12.37
12.71
12.62
12.35
12.27
12.78
14.06
15.93
17.75
18.59
17.64
14.59
9.90
4.61
0.01
-2.98
-4.02
-3.39
-1.76
0.21
2.02
3.44
4.33
4.52
3.78
1.88
-1.24
-5.45
-10.37
-15.52
-20.33
-24.31
-27.06
-28.26
-27.77
-25.63
-22.11
-17.73
-13.26
-9.53
-7.37
-7.28
-9.17
-12.20
-14.84
-15.36
-12.45
-5.88
3.32
13.08
21.12
25.78
26.52
23.95
19.37
14.23
9.80
7.02
6.56
8.72
13.15
18.72
23.74
26.41
25.58
21.19
14.16
5.95
-2.22
-9.63
-16.15
-21.79
-26.40
-29.57
-30.83
-29.89
-26.72
-21.52
-14.59
-6.55
1.63
8.52
12.60
12.92
9.60
3.98
-1.90
-6.21
-8.06
-7.79
-6.53
-5.41
-4.98
-5.08
-5.12
-4.67
-3.74
-2.76
-2.21
-2.33
-2.98
-3.75
-4.27
-4.36
-4.22
-4.17
-4.48
-5.14
-5.88
-6.29
-6.08
-5.23
-3.97
-2.68
-1.63
-0.89
-0.30
0.41
1.46
2.91
4.57
6.19
7.49
8.30
8.58
8.40
7.89
7.16
6.36
5.57
4.91
4.48
4.39
4.75
5.61
6.96
8.60
10.19
11.26
11.36
10.24
7.96
4.95
1.77
-1.02
-3.12
-4.51
-5.44
-6.20
-7.12
-8.43
-10.19
-12.39
-14.79
-17.05
-18.71
-19.36
-18.71
-16.79
-13.85
-10.35
-6.86
-3.83
-1.59
-0.18
0.48
0.64
0.45
0.00
-0.75
-1.85
-3.21
-4.58
-5.60
-6.01
-5.75
-5.04
-4.24
-3.64
-3.43
-3.48
-3.63
-3.69
-3.57
-3.28
-2.92
-2.59
-2.41
-2.55
-3.13
-4.27
-5.93
-7.92
-9.86
-11.31
-11.84
-11.20
-9.40
-6.67
-3.45
-0.19
2.70
4.98
6.54
7.43
7.79
7.78
7.61
7.39
7.22
7.08
6.87
6.52
5.99
5.34
4.65
4.01
3.44
2.94
2.46
1.93
1.31
0.53
-0.42
-1.53
-2.72
-3.90
-4.92
-5.75
-6.46
-7.19
-8.17
-9.53
-11.30
-13.24
-14.91
-15.72
-15.17
-13.05
-9.52
-5.22
-0.89
2.68
5.07
6.25
6.54
6.37
6.05
5.70
5.24
4.62
3.88
3.23
2.91
3.05
3.60
4.28
4.78
4.87
4.52
3.79
2.83
1.69
0.38
-1.07
-2.57
-3.95
-5.07
-5.85
-6.35
-6.79
-7.38
-8.42
-9.99
-12.06
-14.36
-16.44
-17.72
-17.69
-16.06
-12.91
-8.73
-4.21
-0.10
3.13
5.31
6.61
7.27
7.50
7.38
6.82
5.85
4.56
3.25
2.25
1.80
1.89
2.30
2.66
2.66
2.24
1.51
0.70
-0.06
-0.72
-1.39
-2.18
-3.10
-4.07
-4.97
-5.80
-6.70
-7.94
-9.73
-12.07
-14.64
-16.84
-18.00
-17.59
-15.45
-11.74
-6.95
-1.71
3.35
7.71
11.02
13.10
13.96
13.74
12.75
11.33
9.83
8.51
7.49
6.82
6.45
6.36
6.51
6.83
7.22
7.50
7.50
7.04
6.09
4.69
3.03
1.31
-0.27
-1.63
-2.87
-4.18
-5.85
-8.05
-10.82
-13.89
-16.73
-18.66
-19.02
-17.45
-13.97
-9.08
-3.53
1.85
6.41
9.79
11.91
12.96
13.15
12.71
11.75
10.36
8.62
6.69
4.83
3.36
2.54
2.57
3.62
5.70
8.76
12.47
16.16
18.86
19.59
17.73
13.31
7.16
0.50
-5.47
-10.08
-13.32
-15.61
-17.43
-18.86
-19.60
-19.04
-16.71
-12.48
-6.73
-0.23
6.13
11.53
15.55
18.21
19.95
21.40
23.15
25.54
28.55
31.91
35.21
38.09
40.35
41.96
42.97
43.45
43.40
42.80
41.69
40.26
38.93
38.26
38.85
41.08
44.96
50.13
55.91
61.62
66.75
71.22
75.29
79.48
84.39
90.48
97.97
106.66
115.86
124.40
130.94
134.40
134.48
131.77
127.53
123.16
119.54
116.90
114.97
113.41
112.20
111.68
112.30
114.23
117.22
120.57
123.51
125.36
125.82
124.93
123.04
120.55
117.46
113.25
106.73
96.61
82.05
63.28
41.61
19.04
-2.40
-21.21
-36.37
-47.34
-53.80
-55.89
-54.41
-51.00
-47.78
-46.49
-47.76
-50.82
-54.11
-56.15
-56.48
-55.82
-55.55
-56.96
-60.42
-65.26
-69.93
-72.74
-72.39
-68.54
-61.80
-53.39
-44.57
-36.16
-28.48
-21.59
-15.90
-12.35
-12.30
-16.67
-25.00
-35.05
-43.27
-46.22
-42.01
-31.41
-17.34
-3.57
6.96
13.28
16.17
17.25
17.50
16.55
12.88
4.81
-8.28
-25.44
-44.47
-63.22
-80.65
-97.35
-114.85
-134.37
-155.57
-176.22
-193.11
-203.53
-206.81
-204.60
-200.13
-196.55
-195.46
-196.43
-197.61
-197.14
-194.16
-189.20
-183.34
-177.35
-170.96
-163.02
-152.35
-138.54
-122.49
-105.94
-90.90
-78.61
-69.37
-62.56
-57.20
-52.71
-49.11
-46.96
-46.45
-46.73
-45.62
-40.40
-29.28
-12.69
6.14
22.41
31.63
31.75
23.81
11.30
-1.75
-12.40
-19.63
-23.93
-26.29
-27.38
-27.32
-26.00
-23.44
-19.90
-15.86
-11.76
-7.96
-4.58
-1.64
0.96
3.36
5.60
7.56
8.90
9.27
8.47
6.76
4.73
3.14
2.62
3.30
4.78
6.22
6.72
5.64
2.95
-0.79
-4.63
-7.61
-9.19
-9.35
-8.69
-8.03
-8.14
-9.42
-11.91
-15.24
-18.87
-22.11
-24.19
-24.42
-22.31
-17.81
-11.34
-3.74
3.98
10.97
16.66
20.88
23.62
25.02
25.17
24.26
22.53
20.38
18.28
16.60
15.54
14.99
14.65
14.11
13.10
11.58
9.75
8.02
6.62
5.66
4.86
3.75
1.86
-1.16
-5.32
-10.30
-15.45
-19.95
-22.96
-23.81
-22.16
-18.15
-12.30
-5.43
1.59
8.04
13.44
17.57
20.37
21.88
22.19
21.52
20.17
18.49
16.88
15.58
14.70
14.15
13.73
13.20
12.35
11.14
9.56
7.77
5.92
4.14
2.46
0.69
-1.46
-4.42
-8.39
-13.29
-18.51
-23.05
-25.73
-25.62
-22.34
-16.23
-8.32
0.18
8.17
15.03
20.58
24.95
28.26
30.47
31.41
30.91
29.14
26.51
23.71
21.38
19.87
19.16
18.82
18.38
17.37
15.68
13.44
11.01
8.72
6.69
4.80
2.67
-0.06
-3.68
-8.17
-13.29
-18.49
-23.04
-26.19
-27.23
-25.74
-21.60
-15.24
-7.43
0.82
8.60
15.28
20.64
24.78
27.84
29.89
30.82
30.56
29.21
27.18
25.11
23.62
23.03
23.18
23.55
23.54
22.72
21.03
18.66
15.97
13.23
10.65
8.21
5.86
3.47
0.84
-2.27
-6.08
-10.68
-15.88
-21.02
-25.19
-27.30
-26.54
-22.67
-16.10
-7.91
0.65
8.39
14.65
19.28
22.55
24.85
26.49
27.59
28.13
28.13
27.67
26.98
26.27
25.73
25.37
25.06
24.63
23.93
22.87
21.46
19.75
17.82
15.74
13.56
11.30
8.91
6.27
3.29
-0.19
-4.23
-8.84
-13.88
-19.01
-23.63
-26.92
-28.08
-26.48
-21.97
-14.94
-6.30
2.83
11.40
18.67
24.32
28.31
30.84
32.13
32.42
31.95
30.96
29.75
28.54
27.56
26.90
26.56
26.42
26.33
26.13
25.68
24.87
23.61
21.88
19.70
17.20
14.54
11.87
9.23
6.52
3.56
0.09
-4.07
-8.97
-14.39
-19.82
-24.42
-27.25
-27.50
-24.76
-19.31
-11.94
-3.86
3.86
10.44
15.60
19.45
22.18
24.06
25.13
25.46
25.08
24.12
22.82
21.46
20.33
19.55
19.15
18.95
18.70
18.11
17.02
15.43
13.41
11.15
8.75
6.28
3.78
1.28
-1.17
-3.49
-5.70
-7.95
-10.48
-13.62
-17.50
-21.92
-26.14
-29.11
-29.72
-27.25
-21.75
-14.02
-5.38
2.83
9.64
14.76
18.37
20.89
22.68
23.82
24.23
23.80
22.62
20.97
19.24
17.82
16.91
16.50
16.35
16.19
15.75
14.91
13.65
12.06
10.28
8.34
6.31
4.17
1.98
-0.24
-2.44
-4.61
-6.86
-9.40
-12.49
-16.25
-20.55
-24.78
-28.02
-29.24
-27.68
-23.21
-16.41
-8.41
-0.46
6.42
11.79
15.68
18.40
20.27
21.39
21.78
21.39
20.34
18.87
17.32
15.97
15.01
14.46
14.24
14.27
14.35
14.36
14.06
13.26
11.83
9.74
7.16
4.32
1.58
-0.88
-2.94
-4.74
-6.52
-8.62
-11.32
-14.71
-18.62
-22.55
-25.73
-27.31
-26.62
-23.40
-17.91
-10.92
-3.43
3.59
9.44
13.80
16.71
18.41
19.18
19.31
18.98
18.42
17.76
17.15
16.63
16.22
15.86
15.47
15.01
14.38
13.57
12.47
11.07
9.32
7.29
5.12
2.97
0.97
-0.89
-2.65
-4.43
-6.31
-8.41
-10.82
-13.63
-16.84
-20.18
-23.18
-25.09
-25.20
-23.09
-18.84
-13.03
-6.58
-0.45
4.75
8.68
11.37
12.99
13.75
13.80
13.32
12.50
11.54
10.64
9.88
9.31
8.92
8.72
8.71
8.86
9.08
9.16
8.92
8.18
6.92
5.18
3.14
0.99
-1.11
-3.04
-4.84
-6.58
-8.47
-10.71
-13.44
-16.62
-19.92
-22.81
-24.58
-24.70
-22.83
-19.10
-13.99
-8.20
-2.50
2.54
6.51
9.32
11.01
11.74
11.73
11.23
10.50
9.73
9.08
8.62
8.39
8.35
8.48
8.70
8.87
8.81
8.33
7.31
5.75
3.84
1.77
-0.20
-1.93
-3.43
-4.77
-6.09
-7.49
-9.13
-11.12
-13.53
-16.24
-18.91
-20.99
-21.82
-20.96
-18.26
-14.06
-8.93
-3.63
1.21
5.18
8.09
9.98
10.96
11.24
11.02
10.53
9.98
9.54
9.31
9.33
9.60
10.03
10.55
11.05
11.45
11.66
11.63
11.28
10.57
9.53
8.18
6.66
5.03
3.41
1.82
0.20
-1.57
-3.73
-6.45
-9.82
-13.57
-17.15
-19.72
-20.45
-18.88
-15.07
-9.73
-3.85
1.58
5.98
9.21
11.47
13.06
14.13
14.71
14.75
14.29
13.52
12.74
12.17
11.91
11.88
11.87
11.74
11.38
10.80
10.00
9.02
7.83
6.43
4.84
3.12
1.38
-0.33
-1.91
-3.39
-4.80
-6.21
-7.80
-9.70
-12.00
-14.56
-16.98
-18.57
-18.72
-17.02
-13.58
-9.01
-4.17
0.10
3.33
5.47
6.77
7.52
7.90
7.94
7.59
6.90
6.01
5.18
4.61
4.46
4.72
5.28
6.00
6.63
7.01
6.95
6.40
5.42
4.19
2.90
1.71
0.68
-0.25
-1.16
-2.14
-3.23
-4.52
-6.10
-8.04
-10.35
-12.76
-14.80
-15.83
-15.36
-13.15
-9.42
-4.77
0.03
4.26
7.41
9.28
10.01
9.85
9.13
8.16
7.13
6.21
5.47
4.98
4.74
4.72
4.80
4.87
4.84
4.64
4.26
3.71
2.99
2.08
1.03
-0.15
-1.38
-2.59
-3.78
-4.93
-6.14
-7.47
-9.06
-11.02
-13.40
-16.13
-18.87
-21.11
-22.18
-21.58
-19.16
-15.23
-10.46
-5.67
-1.53
1.61
3.68
4.89
5.49
5.77
6.00
6.50
7.46
8.97
10.97
13.20
15.37
17.23
18.66
19.66
20.25
20.44
20.19
19.48
18.26
16.60
14.59
12.32
9.93
7.50
5.13
2.84
0.64
-1.57
-3.88
-6.38
-9.07
-11.78
-14.14
-15.66
-15.91
-14.61
-11.89
-8.17
-4.12
-0.38
2.64
4.74
5.99
6.54
6.56
6.17
5.49
4.65
3.79
3.06
2.48
2.05
1.70
1.32
0.81
0.11
-0.76
-1.72
-2.64
-3.42
-3.99
-4.45
-4.92
-5.58
-6.54
-7.75
-8.98
-9.89
-10.16
-9.61
-8.35
-6.76
-5.39
-4.70
-4.85
-5.60
-6.37
-6.60
-5.87
-4.19
-1.84
0.76
3.28
5.52
7.39
8.83
9.70
9.90
9.36
8.16
6.53
4.70
2.93
1.27
-0.18
-1.34
-1.96
-1.65
-0.05
2.97
7.11
11.75
16.02
19.14
20.61
20.30
18.38
15.20
11.12
6.45
1.44
-3.68
-8.62
-12.96
-16.05
-17.09
-15.40
-10.66
-3.34
5.27
13.17
18.35
19.33
15.77
8.60
-0.42
-9.23
-16.24
-20.51
-21.85
-20.48
-16.80
-11.39
-5.02
1.14
5.81
7.89
7.00
3.69
-0.68
-4.51
-6.61
-6.59
-4.88
-2.40
-0.10
1.41
1.91
1.48
0.31
-1.40
-3.44
-5.56
-7.38
-8.50
-8.64
-7.82
-6.32
-4.48
-2.51
-0.28
2.46
5.89
9.71
13.18
15.30
15.28
12.93
8.63
3.22
-2.43
-7.67
-12.10
-15.50
-17.78
-18.95
-19.13
-18.68
-17.95
-17.28
-16.77
-16.29
-15.65
-14.68
-13.38
-11.88
-10.42
-9.27
-8.69
-8.82
-9.68
-11.10
-12.58
-13.45
-13.00
-10.72
-6.49
-0.71
5.88
12.44
18.24
22.85
26.18
28.42
29.81
30.64
31.16
31.59
32.12
32.95
34.21
35.97
38.26
41.17
44.87
49.65
55.69
62.91
70.66
77.96
83.72
87.30
88.82
89.26
90.08
92.69
97.99
106.19
116.88
129.19
142.02
154.18
164.47
171.85
175.61
175.62
172.26
166.33
158.70
150.00
140.41
129.82
118.14
105.65
93.15
81.75
72.34
65.06
59.11
53.04
45.40
35.38
23.13
9.53
-4.25
-17.10
-28.17
-36.89
-42.98
-46.64
-48.69
-50.57
-53.84
-59.58
-67.80
-77.35
-86.30
-92.72
-95.44
-94.34
-90.36
-84.97
-79.65
-75.37
-72.40
-70.38
-68.69
-66.82
-64.56
-61.96
-58.87
-54.62
-47.97
-37.65
-23.09
-4.99
14.67
33.38
48.83
59.68
65.62
66.92
64.08
57.49
47.71
35.65
22.66
10.02
-1.52
-12.17
-22.75
-33.87
-45.24
-55.35
-62.10
-63.90
-60.45
-53.11
-44.21
-36.11
-30.24
-26.91
-25.41
-24.76
-24.04
-22.71
-20.67
-18.11
-15.58
-13.72
-13.09
-13.89
-15.80
-18.06
-19.74
-20.13
-18.87
-16.10
-12.18
-7.65
-3.06
0.94
3.61
4.25
2.38
-1.93
-7.91
-14.19
-19.23
-21.85
-21.75
-19.74
-17.37
-16.42
-18.07
-22.50
-28.96
-36.20
-43.15
-49.30
-54.81
-60.15
-65.74
-71.66
-77.64
-83.24
-88.11
-92.11
-95.32
-97.92
-100.01
-101.57
-102.51
-102.74
-102.33
-101.51
-100.67
-100.24
-100.50
-101.52
-103.05
-104.63
-105.71
-105.79
-104.53
-101.86
-97.91
-92.95
-87.33
-81.42
-75.49
-69.69
-64.13
-58.82
-53.82
-49.30
-45.51
-42.76
-41.23
-40.86
-41.21
-41.61
-41.37
-40.11
-37.92
-35.31
-32.93
-31.21
-30.20
-29.52
-28.72
-27.54
-26.14
-24.91
-24.27
-24.45
-25.40
-26.95
-28.81
-30.75
-32.42
-33.30
-32.75
-30.28
-25.82
-19.84
-13.26
-7.11
-2.25
0.97
2.58
2.96
2.55
1.72
0.78
-0.13
-0.90
-1.43
-1.69
-1.64
-1.35
-0.97
-0.78
-0.98
-1.74
-2.96
-4.40
-5.72
-6.69
-7.25
-7.55
-7.90
-8.56
-9.70
-11.30
-13.14
-14.81
-15.77
-15.49
-13.65
-10.34
-6.08
-1.60
2.40
5.57
7.99
9.98
11.81
13.51
14.78
15.27
14.76
13.47
11.86
10.48
9.71
9.57
9.80
10.04
10.03
9.65
8.98
8.17
7.31
6.44
5.44
4.15
2.36
-0.06
-3.06
-6.38
-9.55
-11.95
-13.00
-12.32
-9.83
-5.82
-0.84
4.41
9.19
12.93
15.35
16.54
16.87
16.86
16.93
17.21
17.57
17.73
17.48
16.80
15.86
14.86
13.89
12.84
11.53
9.90
8.02
6.22
4.78
3.79
3.07
2.16
0.55
-2.12
-5.76
-9.87
-13.59
-16.04
-16.55
-14.99
-11.70
-7.41
-2.91
1.27
4.86
7.98
10.84
13.60
16.22
18.44
19.97
20.59
20.34
19.44
18.28
17.17
16.28
15.56
14.76
13.60
11.86
9.61
7.04
4.51
2.32
0.59
-0.84
-2.33
-4.30
-7.08
-10.66
-14.61
-18.07
-20.03
-19.63
-16.56
-11.19
-4.51
2.22
7.86
11.71
13.67
14.01
13.19
11.67
9.77
7.83
6.23
5.41
5.67
7.00
9.02
10.94
11.98
11.51
9.43
6.08
2.13
-1.72
-5.06
-7.74
-9.96
-12.06
-14.42
-17.31
-20.98
-25.52
-30.84
-36.55
-41.89
-45.87
-47.46
-46.00
-41.42
-34.36
-25.95
-17.44
-9.86
-3.64
1.19
4.93
7.83
9.96
11.26
11.67
11.39
10.83
10.50
10.79
11.73
12.94
13.84
13.88
12.80
10.74
8.06
5.24
2.65
0.42
-1.49
-3.30
-5.25
-7.65
-10.77
-14.87
-19.97
-25.77
-31.56
-36.31
-38.94
-38.73
-35.56
-29.94
-22.81
-15.13
-7.56
-0.38
6.46
12.99
19.14
24.55
28.71
31.16
31.68
30.38
27.65
24.17
20.61
17.60
15.52
14.45
14.25
14.60
15.17
15.68
15.94
15.77
14.98
13.34
10.76
7.25
2.96
-1.90
-7.23
-13.00
-19.11
-25.15
-30.26
-33.23
-32.89
-28.59
-20.51
-9.64
2.51
14.41
24.91
33.30
39.26
42.72
43.73
42.52
39.53
35.47
31.17
27.49
25.03
24.07
24.55
26.06
28.02
29.80
30.83
30.70
29.21
26.43
22.61
18.21
13.64
9.19
4.95
0.71
-3.83
-9.03
-15.07
-21.81
-28.65
-34.61
-38.49
-39.13
-35.78
-28.42
-17.80
-5.31
7.45
19.13
28.85
36.40
41.97
45.94
48.58
50.01
50.24
49.31
47.47
45.11
42.78
40.91
39.69
38.98
38.39
37.43
35.73
33.12
29.68
25.63
21.24
16.81
12.55
8.53
4.68
0.70
-3.87
-9.49
-16.39
-24.29
-32.28
-38.96
-42.75
-42.40
-37.41
-28.19
-15.96
-2.38
10.97
22.85
32.61
40.03
45.26
48.50
50.01
50.02
48.81
46.75
44.29
41.84
39.68
37.91
36.35
34.75
32.82
30.40
27.54
24.40
21.18
18.03
14.94
11.78
8.32
4.34
-0.37
-5.92
-12.36
-19.52
-26.94
-33.74
-38.70
-40.57
-38.41
-32.08
-22.19
-10.15
2.44
14.10
23.89
31.46
36.85
40.34
42.16
42.49
41.47
39.38
36.63
33.75
31.26
29.53
28.64
28.36
28.26
27.90
26.96
25.33
23.10
20.40
17.37
14.06
10.48
6.67
2.68
-1.44
-5.75
-10.42
-15.65
-21.52
-27.68
-33.28
-37.01
-37.56
-34.01
-26.28
-15.28
-2.58
9.95
20.82
29.15
34.73
37.79
38.76
38.08
36.17
33.52
30.65
28.11
26.30
25.33
25.06
25.14
25.21
25.02
24.42
23.32
21.68
19.43
16.55
13.09
9.22
5.15
1.09
-2.83
-6.68
-10.65
-15.05
-20.08
-25.63
-31.12
-35.53
-37.62
-36.31
-31.17
-22.61
-11.85
-0.56
9.71
17.98
23.88
27.65
29.76
30.62
30.47
29.52
27.93
26.03
24.14
22.57
21.52
21.03
20.99
21.25
21.50
21.46
20.85
19.49
17.35
14.59
11.52
8.52
5.84
3.52
1.36
-1.09
-4.34
-8.73
-14.21
-20.28
-25.96
-30.03
-31.43
-29.58
-24.58
-17.18
-8.53
0.19
8.03
14.47
19.33
22.70
24.70
25.52
25.26
24.14
22.41
20.37
18.41
16.83
15.83
15.43
15.42
15.41
14.94
13.62
11.35
8.35
5.15
2.27
0.08
-1.46
-2.69
-4.07
-6.00
-8.71
-12.19
-16.28
-20.61
-24.62
-27.59
-28.77
-27.60
-23.89
-18.02
-10.78
-3.20
3.75
9.43
13.47
15.86
16.73
16.38
15.13
13.41
11.61
10.09
9.11
8.70
8.72
8.87
8.78
8.19
7.01
5.35
3.52
1.80
0.35
-0.86
-2.01
-3.33
-4.97
-7.06
-9.62
-12.72
-16.34
-20.36
-24.41
-27.86
-29.90
-29.86
-27.43
-22.80
-16.63
-9.78
-3.03
3.04
8.07
11.85
14.21
15.10
14.58
12.95
10.70
8.40
6.57
5.47
5.13
5.30
5.58
5.57
4.98
3.75
2.01
0.04
-1.87
-3.55
-4.97
-6.33
-7.77
-9.49
-11.62
-14.22
-17.23
-20.41
-23.34
-25.41
-25.96
-24.52
-21.01
-15.80
-9.64
-3.39
2.21
6.70
9.91
11.83
12.60
12.37
11.33
9.71
7.86
6.18
4.96
4.40
4.41
4.68
4.79
4.39
3.39
1.92
0.34
-1.05
-2.12
-3.01
-4.03
-5.50
-7.54
-10.11
-13.01
-15.97
-18.71
-20.91
-22.20
-22.21
-20.69
-17.62
-13.28
-8.24
-3.19
1.27
4.77
7.23
8.74
9.47
9.52
8.94
7.74
6.09
4.26
2.67
1.66
1.40
1.74
2.29
2.57
2.24
1.23
-0.26
-1.85
-3.19
-4.16
-4.87
-5.65
-6.81
-8.55
-10.85
-13.48
-16.03
-18.02
-19.01
-18.66
-16.84
-13.66
-9.48
-4.84
-0.31
3.61
6.63
8.65
9.76
10.06
9.71
8.78
7.38
5.71
4.00
2.53
1.50
0.95
0.74
0.57
0.17
-0.65
-1.86
-3.29
-4.66
-5.80
-6.64
-7.30
-8.03
-9.07
-10.58
-12.56
-14.85
-17.06
-18.70
-19.16
-17.97
-14.98
-10.43
-5.03
0.32
4.81
8.03
10.07
11.34
12.24
12.92
13.19
12.74
11.43
9.48
7.40
5.79
5.04
5.14
5.75
6.38
6.59
6.15
5.05
3.45
1.56
-0.42
-2.30
-3.96
-5.40
-6.65
-7.83
-9.07
-10.42
-11.82
-13.11
-14.00
-14.23
-13.61
-12.16
-9.97
-7.34
-4.53
-1.80
0.66
2.74
4.34
5.38
5.77
5.49
4.58
3.29
1.99
1.07
0.81
1.17
1.85
2.38
2.33
1.51
0.11
-1.45
-2.72
-3.39
-3.56
-3.58
-3.96
-5.08
-7.06
-9.63
-12.32
-14.60
-16.04
-16.44
-15.76
-14.15
-11.77
-8.84
-5.63
-2.39
0.57
3.03
4.84
5.98
6.52
6.51
6.12
5.50
4.80
4.13
3.57
3.13
2.83
2.68
2.64
2.66
2.55
2.17
1.42
0.36
-0.85
-1.96
-2.83
-3.49
-4.06
-4.80
-5.92
-7.53
-9.56
-11.73
-13.63
-14.72
-14.58
-13.05
-10.35
-6.97
-3.53
-0.57
1.68
3.26
4.33
5.05
5.50
5.63
5.41
4.92
4.33
3.90
3.79
4.03
4.50
4.98
5.28
5.31
5.05
4.57
3.92
3.16
2.31
1.42
0.51
-0.43
-1.47
-2.76
-4.39
-6.40
-8.64
-10.85
-12.69
-13.85
-14.10
-13.28
-11.38
-8.53
-5.00
-1.20
2.40
5.43
7.68
9.15
9.98
10.37
10.45
10.25
9.74
8.92
7.88
6.79
5.86
5.19
4.79
4.53
4.30
4.05
3.80
3.59
3.45
3.30
2.99
2.37
1.41
0.22
-1.03
-2.22
-3.31
-4.47
-5.88
-7.64
-9.63
-11.52
-12.81
-13.05
-11.97
-9.60
-6.27
-2.53
1.01
3.86
5.76
6.71
6.97
6.87
6.69
6.60
6.62
6.64
6.57
6.34
5.98
5.62
5.36
5.25
5.21
5.10
4.74
4.04
3.04
1.88
0.76
-0.22
-1.04
-1.75
-2.39
-3.01
-3.63
-4.33
-5.24
-6.45
-7.97
-9.55
-10.78
-11.19
-10.45
-8.53
-5.69
-2.44
0.74
3.39
5.30
6.44
6.93
6.91
6.54
5.94
5.17
4.30
3.44
2.74
2.32
2.26
2.51
2.91
3.26
3.36
3.12
2.51
1.63
0.61
-0.45
-1.45
-2.38
-3.24
-4.10
-5.04
-6.16
-7.48
-8.96
-10.45
-11.66
-12.32
-12.14
-10.97
-8.85
-6.02
-2.87
0.14
2.62
4.33
5.22
5.44
5.26
4.93
4.66
4.49
4.33
4.06
3.64
3.15
2.73
2.48
2.42
2.41
2.30
1.98
1.48
0.93
0.48
0.17
-0.05
-0.33
-0.76
-1.39
-2.20
-3.17
-4.31
-5.61
-7.01
-8.30
-9.20
-9.38
-8.64
-7.00
-4.70
-2.16
0.21
2.13
3.50
4.38
4.92
5.23
5.35
5.24
4.90
4.40
3.89
3.54
3.40
3.40
3.35
3.05
2.40
1.51
0.57
-0.22
-0.74
-1.07
-1.33
-1.72
-2.28
-3.00
-3.75
-4.42
-4.98
-5.49
-6.13
-6.96
-7.94
-8.84
-9.35
-9.19
-8.18
-6.40
-4.04
-1.44
1.09
3.23
4.81
5.74
6.05
5.84
5.26
4.53
3.82
3.30
3.05
3.03
3.19
3.41
3.62
3.80
4.01
4.24
4.44
4.46
4.12
3.34
2.24
1.05
0.01
-0.71
-1.15
-1.49
-1.96
-2.72
-3.84
-5.31
-6.94
-8.55
-9.84
-10.49
-10.26
-9.05
-6.95
-4.26
-1.42
1.07
2.82
3.70
3.84
3.56
3.31
3.31
3.58
3.88
3.90
3.47
2.62
1.66
0.98
0.89
1.41
2.27
3.02
3.24
2.75
1.65
0.27
-0.99
-1.82
-2.20
-2.29
-2.38
-2.72
-3.40
-4.40
-5.56
-6.73
-7.76
-8.54
-8.94
-8.80
-8.01
-6.52
-4.38
-1.82
0.84
3.25
5.14
6.37
6.99
7.15
7.10
7.00
6.90
6.74
6.39
5.78
4.96
4.09
3.36
2.90
2.64
2.39
1.92
1.15
0.17
-0.79
-1.49
-1.85
-2.00
-2.18
-2.61
-3.35
-4.26
-5.16
-5.92
-6.62
-7.44
-8.49
-9.68
-10.59
-10.71
-9.62
-7.29
-4.12
-0.78
1.99
3.78
4.52
4.51
4.21
3.96
3.91
4.02
4.18
4.26
4.31
4.42
4.69
5.09
5.46
5.61
5.38
4.78
3.95
3.04
2.20
1.41
0.59
-0.32
-1.28
-2.16
-2.79
-3.11
-3.21
-3.37
-3.91
-5.02
-6.65
-8.46
-9.90
-10.40
-9.60
-7.49
-4.45
-1.16
1.74
3.74
4.75
4.97
4.76
4.46
4.22
3.98
3.64
3.15
2.59
2.20
2.16
2.56
3.26
3.99
4.46
4.50
4.15
3.55
2.91
2.35
1.91
1.53
1.17
0.82
0.44
0.04
-0.41
-1.01
-1.80
-2.79
-3.87
-4.84
-5.52
-5.76
-5.53
-4.88
-3.90
-2.73
-1.44
-0.13
1.10
2.15
2.86
3.13
2.88
2.22
1.36
0.57
0.08
-0.04
0.11
0.32
0.35
0.06
-0.54
-1.35
-2.24
-3.09
-3.86
-4.51
-4.98
-5.21
-5.17
-4.91
-4.56
-4.32
-4.40
-4.93
-5.94
-7.32
-8.80
-10.02
-10.54
-10.08
-8.52
-6.07
-3.17
-0.37
1.86
3.33
4.09
4.38
4.44
4.42
4.33
4.16
3.92
3.65
3.46
3.39
3.41
3.44
3.42
3.33
3.18
3.02
2.84
2.60
2.25
1.74
1.08
0.30
-0.52
-1.32
-2.04
-2.67
-3.28
-3.94
-4.77
-5.84
-7.09
-8.33
-9.25
-9.51
-8.84
-7.22
-4.82
-2.02
0.72
2.99
4.54
5.31
5.40
5.02
4.42
3.82
3.36
3.17
3.27
3.62
4.10
4.56
4.85
4.89
4.73
4.49
4.31
4.21
4.05
3.62
2.70
1.31
-0.34
-1.91
-3.09
-3.75
-3.99
-4.05
-4.21
-4.69
-5.55
-6.66
-7.77
-8.54
-8.60
-7.75
-5.97
-3.48
-0.73
1.83
3.82
5.08
5.65
5.68
5.32
4.70
3.93
3.12
2.39
1.86
1.58
1.56
1.70
1.90
2.06
2.14
2.10
1.92
1.63
1.23
0.82
0.45
0.16
-0.06
-0.32
-0.72
-1.32
-2.09
-2.94
-3.76
-4.52
-5.27
-6.09
-6.95
-7.77
-8.29
-8.25
-7.45
-5.85
-3.61
-1.08
1.30
3.15
4.26
4.63
4.44
3.94
3.36
2.82
2.35
1.97
1.68
1.51
1.51
1.73
2.14
2.68
3.23
3.66
3.89
3.85
3.58
3.11
2.52
1.82
0.99
0.03
-1.04
-2.08
-3.00
-3.71
-4.33
-5.04
-6.01
-7.22
-8.36
-8.94
-8.50
-6.92
-4.44
-1.60
1.03
3.05
4.40
5.23
5.69
5.89
5.76
5.24
4.31
3.17
2.11
1.41
1.23
1.56
2.27
3.12
3.96
4.58
4.83
4.62
3.89
2.74
1.39
0.12
-0.84
-1.37
-1.57
-1.66
-1.93
-2.61
-3.80
-5.44
-7.27
-8.97
-10.11
-10.37
-9.56
-7.72
-5.13
-2.21
0.51
2.66
4.08
4.84
5.14
5.20
5.10
4.81
4.26
3.43
2.42
1.44
0.74
0.40
0.35
0.35
0.18
-0.28
-0.97
-1.69
-2.25
-2.52
-2.52
-2.40
-2.32
-2.46
-2.85
-3.44
-4.13
-4.85
-5.56
-6.26
-6.89
-7.30
-7.27
-6.58
-5.14
-3.09
-0.71
1.58
3.45
4.73
5.41
5.60
5.45
5.07
4.53
3.94
3.45
3.25
3.55
4.40
5.66
6.98
7.91
8.07
7.29
5.72
3.70
1.65
-0.14
-1.54
-2.55
-3.28
-3.85
-4.34
-4.89
-5.62
-6.67
-8.07
-9.72
-11.34
-12.53
-12.87
-12.08
-10.15
-7.29
-3.96
-0.71
2.00
3.87
4.86
5.16
5.04
4.70
4.26
3.71
2.98
2.04
0.94
-0.20
-1.21
-2.00
-2.53
-2.88
-3.13
-3.29
-3.28
-2.93
-2.07
-0.67
1.18
3.22
5.13
6.62
7.46
7.50
6.69
5.07
2.89
0.57
-1.31
-2.22
-1.85
-0.24
2.25
5.03
7.52
9.32
10.27
10.45
10.08
9.42
8.63
7.67
6.34
4.45
1.98
-0.80
-3.34
-5.11
-5.80
-5.59
-5.00
-4.76
-5.34
-6.83
-8.92
-11.07
-12.82
-13.94
-14.44
-14.46
-14.23
-13.90
-13.63
-13.56
-13.79
-14.32
-15.01
-15.47
-15.19
-13.65
-10.57
-5.99
-0.34
5.74
11.55
16.58
20.60
23.58
25.65
26.91
27.47
27.37
26.73
25.67
24.36
22.95
21.51
20.07
18.67
17.38
16.28
15.37
14.55
13.52
11.94
9.53
6.27
2.44
-1.43
-4.73
-6.95
-7.93
-7.90
-7.36
-6.91
-6.99
-7.75
-8.95
-10.14
-10.77
-10.40
-8.91
-6.49
-3.64
-0.99
0.91
1.73
1.48
0.46
-0.89
-2.11
-2.96
-3.38
-3.52
-3.64
-3.89
-4.37
-4.99
-5.55
-5.88
-5.83
-5.39
-4.70
-3.98
-3.48
-3.34
-3.52
-3.83
-3.99
-3.83
-3.34
-2.75
-2.40
-2.61
-3.50
-4.93
-6.47
-7.54
-7.54
-6.07
-3.05
1.10
5.56
9.25
11.23
11.02
8.81
5.47
2.10
-0.38
-1.56
-1.63
-1.15
-0.65
-0.45
-0.48
-0.53
-0.40
-0.05
0.42
0.89
1.26
1.51
1.62
1.58
1.38
1.13
1.06
1.48
2.61
4.40
6.36
7.80
7.99
6.47
3.29
-1.13
-6.05
-10.73
-14.51
-16.89
-17.52
-16.27
-13.32
-9.17
-4.68
-0.77
1.85
2.95
2.91
2.44
2.28
2.79
3.86
4.92
5.33
4.64
2.81
0.15
-2.77
-5.49
-7.74
-9.55
-11.18
-12.91
-14.89
-17.05
-19.05
-20.43
-20.74
-19.81
-17.80
-15.20
-12.57
-10.37
-8.69
-7.30
-5.73
-3.55
-0.57
3.08
7.00
10.70
13.74
15.92
17.23
17.82
17.89
17.56
16.88
15.82
14.41
12.78
11.22
10.09
9.63
9.83
10.36
10.72
10.36
8.99
6.60
3.49
0.11
-3.06
-5.62
-7.33
-8.11
-8.06
-7.51
-6.82
-6.31
-6.08
-5.92
-5.40
-4.12
-1.94
0.90
3.92
6.57
8.52
9.77
10.55
11.16
11.80
12.49
13.06
13.27
12.87
11.67
9.59
6.76
3.53
0.40
-2.19
-4.00
-5.06
-5.62
-5.86
-5.72
-4.90
-3.01
0.23
4.77
10.27
16.13
21.69
26.31
29.52
31.02
30.84
29.32
27.02
24.51
22.16
19.98
17.77
15.28
12.48
9.61
7.05
5.15
3.98
3.35
2.90
2.25
1.16
-0.40
-2.30
-4.41
-6.61
-8.92
-11.49
-14.37
-17.51
-20.58
-23.10
-24.61
-24.83
-23.89
-22.20
-20.37
-18.99
-18.44
-18.83
-19.99
-21.53
-22.86
-23.35
-22.44
-19.91
-15.94
-11.18
-6.54
-2.89
-0.79
-0.27
-0.97
-2.30
-3.66
-4.69
-5.20
-5.25
-4.99
-4.62
-4.42
-4.62
-5.35
-6.59
-8.11
-9.54
-10.58
-11.02
-10.90
-10.40
-9.83
-9.49
-9.59
-10.26
-11.41
-12.80
-14.00
-14.57
-14.14
-12.58
-10.10
-7.09
-4.08
-1.50
0.43
1.75
2.66
3.39
4.10
4.78
5.30
5.54
5.49
5.30
5.22
5.41
5.91
6.57
7.15
7.47
7.49
7.32
7.10
6.92
6.79
6.58
6.18
5.46
4.38
2.93
1.17
-0.78
-2.76
-4.53
-5.86
-6.53
-6.47
-5.71
-4.41
-2.78
-1.08
0.49
1.82
2.80
3.39
3.56
3.33
2.81
2.19
1.70
1.52
1.68
2.04
2.35
2.37
1.94
1.10
-0.00
-1.12
-2.14
-3.02
-3.88
-4.89
-6.18
-7.76
-9.53
-11.32
-12.97
-14.33
-15.27
-15.72
-15.55
-14.69
-13.13
-11.01
-8.55
-6.03
-3.70
-1.65
0.07
1.50
2.60
3.24
3.35
2.90
2.03
1.01
0.14
-0.39
-0.52
-0.37
-0.17
-0.13
-0.41
-0.96
-1.66
-2.37
-3.00
-3.56
-4.19
-5.08
-6.34
-8.04
-10.07
-12.23
-14.23
-15.68
-16.28
-15.82
-14.28
-11.89
-8.99
-5.95
-3.03
-0.37
2.03
4.12
5.80
6.95
7.47
7.43
7.00
6.47
6.05
5.88
5.92
6.03
6.00
5.63
4.84
3.66
2.27
0.95
-0.10
-0.80
-1.29
-1.87
-2.90
-4.65
-7.19
-10.29
-13.50
-16.18
-17.74
-17.73
-16.03
-12.94
-8.99
-4.86
-1.08
2.05
4.51
6.40
7.91
9.06
9.82
10.11
9.89
9.27
8.43
7.62
7.05
6.86
7.04
7.44
7.85
8.06
7.96
7.55
6.94
6.25
5.53
4.75
3.73
2.36
0.52
-1.75
-4.33
-7.04
-9.62
-11.76
-13.09
-13.25
-11.96
-9.15
-5.00
0.05
5.38
10.38
14.57
17.72
19.86
21.24
22.18
22.87
23.37
23.56
23.32
22.63
21.63
20.61
19.79
19.24
18.80
18.14
16.94
15.02
12.43
9.39
6.18
3.00
-0.05
-3.02
-5.98
-9.07
-12.40
-16.04
-19.91
-23.75
-27.13
-29.56
-30.59
-29.99
-27.81
-24.36
-20.03
-15.24
-10.27
-5.37
-0.75
3.29
6.47
8.57
9.61
9.88
9.89
10.22
11.31
13.31
16.03
19.06
21.82
23.84
24.84
24.81
23.95
22.56
20.85
18.84
16.31
12.80
7.78
0.78
-8.29
-18.94
-30.01
-39.79
-46.43
-48.45
-45.37
-37.96
-28.14
-18.37
-10.86
-6.78
-5.89
-6.70
-7.10
-5.23
-0.11
8.07
18.15
28.56
37.84
45.04
49.81
52.28
52.76
51.63
49.17
45.54
40.90
35.42
29.40
23.21
17.20
11.63
6.58
1.92
-2.58
-7.15
-11.93
-16.93
-22.07
-27.17
-31.96
-36.05
-38.95
-40.25
-39.73
-37.58
-34.30
-30.54
-26.75
-22.89
-18.57
-13.24
-6.71
0.63
7.86
13.89
17.95
19.81
19.81
18.54
16.65
14.60
12.72
11.31
10.60
10.77
11.73
13.17
14.55
15.49
15.76
15.43
14.71
13.68
12.26
10.15
7.11
3.09
-1.48
-5.77
-8.75
-9.48
-7.52
-3.11
2.83
9.05
14.39
18.15
20.25
21.07
21.25
21.29
21.52
22.05
22.99
24.48
26.65
29.42
32.35
34.70
35.71
35.06
33.06
30.68
28.99
28.67
29.51
30.41
29.83
26.46
19.87
10.74
0.66
-8.53
-15.36
-19.19
-20.27
-19.41
-17.58
-15.48
-13.52
-12.11
-11.78
-13.07
-15.90
-19.15
-20.60
-17.89
-9.74
2.92
17.07
28.79
35.11
35.38
31.39
26.22
22.49
21.20
21.57
21.99
21.16
18.81
15.53
12.10
8.87
5.54
1.40
-4.14
-11.15
-18.97
-26.56
-32.81
-37.02
-39.08
-39.56
-39.41
-39.55
-40.52
-42.23
-44.03
-44.95
-44.27
-41.76
-37.87
-33.57
-29.82
-27.27
-25.91
-25.16
-24.06
-21.60
-17.07
-10.29
-1.80
7.28
15.44
21.38
24.40
24.77
23.64
22.59
23.08
25.77
30.46
35.95
40.72
43.32
42.90
39.44
33.59
26.54
19.55
13.72
9.73
7.84
7.84
9.13
10.84
11.92
11.48
8.95
4.39
-1.66
-8.25
-14.45
-19.56
-23.22
-25.39
-26.15
-25.59
-23.60
-20.08
-15.04
-8.79
-2.10
3.93
8.11
9.60
8.15
4.25
-1.15
-6.96
-12.37
-17.03
-20.95
-24.28
-26.95
-28.71
-29.18
-28.14
-25.76
-22.55
-19.30
-16.65
-14.97
-14.15
-13.82
-13.53
-13.03
-12.43
-12.04
-12.30
-13.44
-15.44
-17.92
-20.31
-21.98
-22.49
-21.67
-19.62
-16.70
-13.32
-9.99
-7.14
-5.02
-3.60
-2.44
-0.78
2.20
6.86
12.80
18.65
22.49
22.58
18.18
10.08
0.42
-7.95
-12.57
-12.13
-6.91
1.50
10.86
18.98
24.32
26.14
24.59
20.36
14.55
8.40
3.13
-0.33
-1.51
-0.51
1.99
4.97
7.33
8.21
7.29
4.82
1.60
-1.34
-3.00
-2.89
-1.12
1.51
3.85
4.76
3.56
0.25
-4.55
-9.74
-14.15
-16.83
-17.27
-15.51
-12.01
-7.60
-3.19
0.37
2.58
3.38
3.14
2.53
2.19
2.51
3.42
4.48
5.11
4.92
3.92
2.50
1.26
0.63
0.75
1.41
2.31
3.28
4.38
5.91
8.04
10.70
13.38
15.39
16.05
15.06
12.50
8.84
4.76
0.86
-2.33
-4.50
-5.54
-5.61
-5.13
-4.69
-4.86
-6.00
-8.10
-10.73
-13.19
-14.68
-14.59
-12.65
-9.11
-4.73
-0.65
1.95
2.28
0.21
-3.54
-7.74
-11.12
-12.83
-12.78
-11.47
-9.77
-8.40
-7.79
-8.06
-9.15
-11.06
-13.75
-17.21
-21.20
-25.30
-28.95
-31.62
-32.97
-32.86
-31.34
-28.49
-24.36
-18.99
-12.57
-5.49
1.60
7.96
12.97
16.37
18.30
19.23
19.69
20.02
20.30
20.42
20.24
19.83
19.40
19.24
19.44
19.78
19.76
18.85
16.71
13.43
9.51
5.63
2.43
0.19
-1.20
-2.16
-3.27
-5.07
-7.99
-12.17
-17.41
-23.08
-28.07
-31.03
-30.71
-26.46
-18.56
-8.36
2.14
10.89
16.48
18.53
17.65
15.00
11.75
8.73
6.22
4.14
2.30
0.62
-0.88
-2.02
-2.66
-2.73
-2.24
-1.27
0.04
1.52
2.93
3.92
4.11
3.21
1.08
-2.16
-6.15
-10.39
-14.36
-17.65
-20.06
-21.61
-22.43
-22.65
-22.29
-21.19
-19.14
-15.99
-11.81
-6.94
-1.96
2.45
5.70
7.45
7.64
6.53
4.63
2.55
0.86
-0.04
0.02
0.94
2.44
4.18
5.80
7.05
7.68
7.60
6.84
5.60
4.22
3.10
2.50
2.46
2.82
3.25
3.43
3.14
2.26
0.83
-1.09
-3.29
-5.48
-7.20
-7.95
-7.27
-5.01
-1.42
2.90
7.17
10.78
13.38
15.05
16.04
16.66
17.08
17.30
17.20
16.65
15.64
14.21
12.54
10.80
9.10
7.54
6.11
4.85
3.83
3.21
3.13
3.66
4.71
6.00
7.17
7.93
8.15
7.86
7.24
6.42
5.46
4.35
3.11
1.84
0.76
0.15
0.28
1.38
3.47
6.40
9.81
13.19
16.03
17.93
18.78
18.76
18.26
17.79
17.70
18.16
19.10
20.26
21.26
21.70
21.23
19.61
16.80
12.96
8.50
3.98
0.03
-2.88
-4.56
-5.10
-4.86
-4.27
-3.77
-3.62
-3.92
-4.61
-5.51
-6.36
-6.89
-6.91
-6.30
-5.11
-3.47
-1.61
0.19
1.68
2.67
3.04
2.79
2.04
1.04
0.02
-0.81
-1.42
-1.90
-2.40
-3.03
-3.84
-4.73
-5.60
-6.30
-6.74
-6.87
-6.69
-6.31
-5.94
-5.91
-6.53
-7.93
-9.86
-11.70
-12.70
-12.27
-10.31
-7.23
-3.77
-0.61
1.88
3.70
5.09
6.20
6.99
7.21
6.66
5.39
3.79
2.40
1.71
1.87
2.64
3.52
3.99
3.73
2.73
1.24
-0.39
-1.91
-3.22
-4.39
-5.52
-6.70
-7.91
-9.10
-10.25
-11.37
-12.55
-13.85
-15.24
-16.55
-17.58
-18.23
-18.52
-18.70
-18.93
-19.23
-19.28
-18.63
-16.86
-13.94
-10.33
-6.78
-4.08
-2.68
-2.51
-3.10
-3.86
-4.32
-4.37
-4.17
-4.02
-4.15
-4.61
-5.23
-5.75
-5.93
-5.76
-5.40
-5.16
-5.36
-6.13
-7.37
-8.79
-10.07
-10.96
-11.42
-11.59
-11.68
-11.93
-12.48
-13.44
-14.80
-16.53
-18.45
-20.23
-21.45
-21.65
-20.53
-18.10
-14.66
-10.75
-6.96
-3.70
-1.19
0.62
1.91
2.88
3.69
4.37
4.89
5.22
5.31
5.15
4.80
4.28
3.63
2.88
2.04
1.18
0.42
-0.07
-0.18
0.14
0.76
1.48
2.04
2.26
2.09
1.61
0.98
0.31
-0.34
-1.06
-1.88
-2.78
-3.57
-3.94
-3.60
-2.41
-0.47
1.91
4.33
6.43
8.03
9.09
9.72
10.07
10.20
10.19
10.01
9.67
9.20
8.68
8.16
7.71
7.33
6.96
6.54
6.03
5.47
4.92
4.47
4.14
3.91
3.72
3.49
3.21
2.88
2.53
2.16
1.73
1.17
0.39
-0.67
-1.99
-3.41
-4.66
-5.35
-5.14
-3.86
-1.57
1.40
4.59
7.53
9.93
11.63
12.67
13.13
13.14
12.77
12.09
11.19
10.17
9.18
8.36
7.83
7.58
7.55
7.59
7.55
7.33
6.89
6.24
5.38
4.32
3.07
1.68
0.24
-1.14
-2.35
-3.33
-4.17
-4.99
-6.01
-7.41
-9.23
-11.32
-13.36
-14.89
-15.52
-15.04
-13.53
-11.32
-8.86
-6.56
-4.69
-3.34
-2.45
-1.91
-1.61
-1.42
-1.29
-1.16
-0.96
-0.67
-0.27
0.19
0.66
1.02
1.22
1.23
1.12
0.97
0.85
0.73
0.50
0.02
-0.78
-1.88
-3.17
-4.50
-5.77
-6.91
-7.92
-8.83
-9.64
-10.37
-11.04
-11.65
-12.10
-12.25
-11.88
-10.81
-8.97
-6.45
-3.47
-0.34
2.61
5.08
6.90
7.97
8.35
8.17
7.68
7.12
6.72
6.57
6.64
6.79
6.84
6.69
6.32
5.82
5.33
4.93
4.58
4.18
3.61
2.85
1.97
1.12
0.44
-0.02
-0.33
-0.63
-1.05
-1.68
-2.48
-3.40
-4.36
-5.26
-6.00
-6.45
-6.38
-5.63
-4.11
-1.96
0.52
2.93
4.89
6.23
6.98
7.31
7.43
7.47
7.44
7.26
6.82
6.07
4.99
3.68
2.26
0.88
-0.32
-1.25
-1.84
-2.07
-1.95
-1.51
-0.82
0.00
0.75
1.20
1.19
0.65
-0.35
-1.61
-2.94
-4.18
-5.26
-6.19
-6.99
-7.63
-7.97
-7.83
-7.03
-5.51
-3.37
-0.88
1.61
3.80
5.47
6.64
7.40
7.85
8.03
7.87
7.30
6.33
5.12
3.93
3.02
2.58
2.61
3.00
3.52
3.95
4.11
3.86
3.16
2.05
0.69
-0.67
-1.78
-2.47
-2.70
-2.62
-2.46
-2.48
-2.91
-3.86
-5.29
-6.98
-8.52
-9.43
-9.29
-7.90
-5.42
-2.34
0.67
3.00
4.32
4.68
4.43
4.05
3.86
3.99
4.31
4.58
4.61
4.32
3.78
3.16
2.69
2.62
3.12
4.26
5.90
7.65
8.99
9.42
8.65
6.76
4.11
1.23
-1.42
-3.58
-5.25
-6.55
-7.62
-8.56
-9.44
-10.20
-10.79
-11.04
-10.77
-9.82
-8.20
-6.09
-3.86
-1.94
-0.65
-0.06
-0.03
-0.31
-0.67
-1.00
-1.26
-1.46
-1.53
-1.35
-0.87
-0.11
0.81
1.76
2.64
3.37
3.92
4.22
4.15
3.64
2.80
1.91
1.34
1.32
1.77
2.25
2.11
0.81
-1.82
-5.38
-9.04
-11.73
-12.53
-11.02
-7.40
-2.52
2.36
5.93
7.24
6.11
3.32
0.58
0.09
3.82
12.84
26.72
43.55
60.47
74.57
83.76
87.36
85.98
81.00
73.81
65.38
56.16
46.37
36.37
26.82
18.49
12.04
7.68
5.26
4.39
4.68
5.85
7.65
9.78
11.81
13.27
13.83
13.38
12.05
10.07
7.71
5.15
2.55
0.05
-2.20
-4.18
-6.02
-8.04
-10.62
-14.03
-18.26
-22.90
-27.36
-31.00
-33.45
-34.72
-35.16
-35.27
-35.48
-36.01
-36.79
-37.58
-38.08
-38.07
-37.44
-36.22
-34.53
-32.59
-30.60
-28.72
-27.06
-25.61
-24.31
-23.06
-21.77
-20.39
-18.87
-17.21
-15.45
-13.64
-11.87
-10.24
-8.87
-7.88
-7.32
-7.16
-7.32
-7.67
-8.04
-8.31
-8.40
-8.35
-8.25
-8.25
-8.48
-9.04
-9.88
-10.85
-11.75
-12.38
-12.64
-12.57
-12.35
-12.20
-12.25
-12.54
-12.98
-13.41
-13.64
-13.55
-13.03
-12.05
-10.57
-8.61
-6.30
-3.79
-1.32
0.91
2.70
3.92
4.48
4.42
3.84
2.97
2.10
1.50
1.32
1.54
1.95
2.21
1.99
1.07
-0.62
-2.88
-5.29
-7.16
-7.71
-6.30
-2.72
2.59
8.56
13.79
16.99
17.47
15.37
11.56
7.23
3.45
0.81
-0.62
-1.12
-1.00
-0.43
0.60
2.16
4.21
6.45
8.41
9.62
9.80
8.94
7.37
5.56
3.93
2.74
2.01
1.58
1.23
0.85
0.47
0.22
0.23
0.49
0.88
1.14
1.04
0.43
-0.66
-2.12
-3.77
-5.41
-6.82
-7.73
-7.89
-7.11
-5.40
-3.04
-0.46
1.92
3.79
5.08
5.84
6.16
6.09
5.67
4.97
4.15
3.43
3.05
3.11
3.61
4.38
5.28
6.07
6.59
6.72
6.43
5.80
5.01
4.25
3.59
2.99
2.28
1.28
-0.06
-1.66
-3.32
-4.77
-5.77
-6.17
-5.92
-5.10
-3.84
-2.33
-0.69
1.09
3.02
5.14
7.24
8.95
9.75
9.23
7.37
4.54
1.49
-1.05
-2.57
-3.01
-2.71
-2.19
-1.92
-2.09
-2.57
-3.02
-3.10
-2.65
-1.75
-0.69
0.17
0.50
0.18
-0.72
-1.93
-3.06
-3.77
-3.79
-3.07
-1.78
-0.26
1.14
2.15
2.72
2.98
3.14
3.44
4.03
5.03
6.44
8.22
10.19
12.05
13.44
14.00
13.52
11.99
9.60
6.70
3.64
0.76
-1.69
-3.54
-4.78
-5.54
-6.10
-6.79
-7.82
-9.23
-10.73
-11.89
-12.23
-11.50
-9.76
-7.37
-4.81
-2.51
-0.64
0.87
2.22
3.57
4.88
5.97
6.63
6.72
6.29
5.53
4.71
4.02
3.54
3.25
3.11
3.05
3.03
3.03
2.97
2.78
2.41
1.80
0.94
-0.22
-1.69
-3.43
-5.32
-7.10
-8.47
-9.14
-8.97
-7.98
-6.35
-4.32
-2.18
-0.14
1.65
3.11
4.24
5.10
5.76
6.25
6.56
6.62
6.34
5.77
4.98
4.17
3.51
3.11
2.94
2.90
2.84
2.63
2.25
1.77
1.26
0.78
0.31
-0.24
-0.98
-1.98
-3.26
-4.71
-6.16
-7.35
-8.04
-8.01
-7.12
-5.45
-3.22
-0.83
1.35
3.03
4.12
4.69
4.91
4.92
4.78
4.52
4.17
3.80
3.52
3.40
3.44
3.56
3.67
3.66
3.50
3.14
2.61
1.90
1.06
0.18
-0.58
-1.12
-1.43
-1.67
-2.11
-2.98
-4.34
-6.01
-7.54
-8.46
-8.36
-7.12
-4.92
-2.15
0.70
3.20
5.09
6.29
6.91
7.14
7.12
6.95
6.60
6.03
5.24
4.32
3.47
2.90
2.72
2.87
3.15
3.31
3.19
2.83
2.41
2.09
1.93
1.81
1.47
0.69
-0.58
-2.23
-4.00
-5.61
-6.84
-7.55
-7.61
-6.95
-5.56
-3.57
-1.29
0.92
2.72
3.94
4.62
4.89
4.90
4.71
4.33
3.79
3.20
2.74
2.51
2.54
2.70
2.80
2.71
2.39
1.90
1.36
0.86
0.43
0.10
-0.17
-0.40
-0.68
-1.08
-1.74
-2.69
-3.91
-5.24
-6.46
-7.26
-7.40
-6.75
-5.36
-3.46
-1.38
0.49
1.87
2.67
2.94
2.86
2.60
2.31
2.04
1.80
1.56
1.32
1.15
1.09
1.19
1.51
2.02
2.64
3.26
3.73
3.92
3.81
3.45
2.97
2.47
1.99
1.43
0.59
-0.70
-2.57
-4.88
-7.32
-9.43
-10.74
-10.96
-10.03
-8.14
-5.65
-2.97
-0.40
1.83
3.68
5.10
6.10
6.67
6.84
6.66
6.21
5.57
4.84
4.10
3.51
3.23
3.37
3.91
4.68
5.37
5.65
5.38
4.59
3.53
2.46
1.60
0.95
0.37
-0.33
-1.29
-2.50
-3.86
-5.23
-6.49
-7.56
-8.35
-8.75
-8.59
-7.74
-6.13
-3.93
-1.47
0.89
2.84
4.30
5.36
6.15
6.77
7.20
7.36
7.20
6.79
6.26
5.74
5.22
4.62
3.82
2.81
1.66
0.55
-0.40
-1.15
-1.75
-2.27
-2.78
-3.30
-3.83
-4.40
-5.04
-5.77
-6.56
-7.34
-8.04
-8.61
-9.02
-9.24
-9.20
-8.81
-7.96
-6.58
-4.67
-2.34
0.23
2.83
5.23
7.25
8.81
9.92
10.65
11.02
11.04
10.67
9.92
8.89
7.79
6.81
6.06
5.51
5.04
4.51
3.84
3.03
2.11
1.12
0.05
-1.06
-2.15
-3.12
-3.88
-4.48
-5.05
-5.81
-6.92
-8.44
-10.25
-12.08
-13.58
-14.36
-14.11
-12.69
-10.21
-7.01
-3.62
-0.55
1.81
3.32
4.08
4.31
4.23
3.92
3.45
2.86
2.25
1.84
1.80
2.23
3.04
3.97
4.72
5.03
4.81
4.12
3.17
2.22
1.47
0.97
0.67
0.39
-0.05
-0.76
-1.76
-3.00
-4.35
-5.58
-6.44
-6.64
-6.01
-4.54
-2.48
-0.20
1.94
3.70
5.14
6.45
7.80
9.17
10.32
10.97
10.97
10.43
9.62
8.80
8.09
7.39
6.56
5.47
4.20
2.90
1.77
0.83
-0.08
-1.19
-2.73
-4.69
-6.89
-8.96
-10.53
-11.33
-11.28
-10.49
-9.25
-7.93
-6.83
-6.16
-5.98
-6.11
-6.26
-6.04
-5.17
-3.49
-1.10
1.67
4.34
6.43
7.55
7.51
6.36
4.37
2.00
-0.24
-1.86
-2.57
-2.38
-1.54
-0.57
0.06
0.05
-0.60
-1.64
-2.68
-3.37
-3.55
-3.21
-2.49
-1.54
-0.55
0.35
1.05
1.47
1.61
1.49
1.18
0.70
0.07
-0.72
-1.62
-2.45
-3.02
-3.06
-2.49
-1.32
0.25
1.99
3.65
5.10
6.24
7.01
7.38
7.29
6.75
5.84
4.75
3.70
2.94
2.60
2.72
3.21
3.88
4.50
4.85
4.76
4.19
3.18
1.88
0.42
-1.05
-2.41
-3.63
-4.70
-5.66
-6.61
-7.64
-8.77
-9.91
-10.83
-11.27
-11.01
-9.94
-8.15
-5.90
-3.48
-1.16
0.83
2.35
3.32
3.71
3.60
3.16
2.64
2.20
1.92
1.78
1.68
1.57
1.41
1.24
1.07
0.86
0.59
0.21
-0.23
-0.62
-0.87
-0.91
-0.87
-0.93
-1.32
-2.20
-3.56
-5.24
-6.97
-8.42
-9.31
-9.44
-8.73
-7.22
-5.04
-2.45
0.26
2.79
4.95
6.64
7.85
8.63
8.99
8.92
8.37
7.37
6.03
4.61
3.36
2.49
2.06
1.97
2.04
2.05
1.88
1.49
0.94
0.34
-0.19
-0.65
-1.08
-1.60
-2.34
-3.36
-4.65
-6.12
-7.59
-8.87
-9.69
-9.85
-9.20
-7.71
-5.52
-2.88
-0.17
2.30
4.28
5.68
6.54
6.92
6.93
6.65
6.18
5.63
5.11
4.73
4.55
4.54
4.58
4.52
4.25
3.75
3.06
2.30
1.57
0.93
0.36
-0.19
-0.82
-1.62
-2.62
-3.85
-5.23
-6.67
-8.04
-9.15
-9.84
-9.94
-9.34
-8.00
-6.02
-3.62
-1.09
1.25
3.14
4.44
5.13
5.29
5.06
4.56
3.91
3.17
2.39
1.65
1.04
0.62
0.39
0.31
0.26
0.17
0.01
-0.21
-0.43
-0.66
-0.93
-1.32
-1.88
-2.62
-3.52
-4.52
-5.62
-6.82
-8.11
-9.36
-10.28
-10.51
-9.77
-8.01
-5.41
-2.41
0.52
2.93
4.63
5.62
6.03
6.03
5.77
5.32
4.76
4.13
3.54
3.11
2.98
3.17
3.67
4.32
4.93
5.29
5.23
4.72
3.84
2.73
1.55
0.41
-0.64
-1.63
-2.57
-3.54
-4.53
-5.61
-6.74
-7.87
-8.83
-9.36
-9.17
-8.06
-6.03
-3.32
-0.34
2.46
4.75
6.42
7.54
8.25
8.61
8.63
8.31
7.69
6.94
6.33
6.05
6.13
6.42
6.65
6.57
6.07
5.22
4.21
3.25
2.48
1.93
1.54
1.19
0.71
-0.02
-1.07
-2.42
-3.95
-5.47
-6.75
-7.55
-7.70
-7.12
-5.81
-3.87
-1.51
0.99
3.30
5.16
6.38
6.91
6.84
6.33
5.59
4.79
4.13
3.71
3.61
3.80
4.19
4.64
4.95
5.00
4.70
4.05
3.15
2.10
1.06
0.14
-0.61
-1.23
-1.81
-2.52
-3.46
-4.66
-6.02
-7.29
-8.18
-8.37
-7.65
-5.97
-3.47
-0.48
2.53
5.12
6.99
8.02
8.28
7.92
7.17
6.19
5.14
4.16
3.39
2.96
2.87
3.08
3.41
3.65
3.62
3.27
2.63
1.85
1.07
0.40
-0.16
-0.66
-1.23
-1.94
-2.86
-3.97
-5.24
-6.58
-7.87
-8.92
-9.45
-9.21
-8.04
-5.98
-3.29
-0.39
2.29
4.47
6.06
7.13
7.84
8.26
8.38
8.15
7.50
6.48
5.23
3.97
2.89
2.11
1.63
1.35
1.12
0.80
0.32
-0.33
-1.10
-1.91
-2.70
-3.41
-4.01
-4.51
-4.93
-5.35
-5.87
-6.62
-7.63
-8.77
-9.70
-9.98
-9.28
-7.46
-4.78
-1.68
1.27
3.66
5.32
6.34
6.92
7.19
7.23
7.00
6.50
5.81
5.09
4.52
4.18
4.04
3.95
3.71
3.23
2.52
1.68
0.84
0.08
-0.58
-1.13
-1.61
-2.01
-2.34
-2.61
-2.88
-3.21
-3.69
-4.38
-5.26
-6.27
-7.26
-8.00
-8.22
-7.70
-6.37
-4.35
-1.92
0.54
2.70
4.36
5.46
6.04
6.19
5.95
5.39
4.59
3.67
2.80
2.14
1.74
1.53
1.37
1.08
0.60
-0.07
-0.80
-1.42
-1.88
-2.16
-2.38
-2.65
-3.07
-3.63
-4.25
-4.83
-5.33
-5.79
-6.30
-7.01
-7.92
-8.91
-9.72
-10.00
-9.48
-8.07
-5.91
-3.30
-0.65
1.73
3.66
5.07
6.02
6.54
6.69
6.49
6.01
5.37
4.73
4.26
4.04
4.09
4.32
4.61
4.82
4.86
4.67
4.27
3.69
3.02
2.30
1.60
0.96
0.38
-0.10
-0.51
-0.88
-1.30
-1.89
-2.73
-3.80
-4.93
-5.80
-6.05
-5.40
-3.80
-1.48
1.16
3.65
5.61
6.88
7.47
7.53
7.29
6.90
6.51
6.19
6.01
6.00
6.18
6.50
6.82
7.02
6.99
6.63
5.97
5.06
4.04
2.95
1.83
0.65
-0.63
-1.96
-3.23
-4.29
-5.03
-5.49
-5.80
-6.22
-6.95
-8.05
-9.37
-10.59
-11.28
-11.12
-9.90
-7.71
-4.86
-1.83
0.93
3.06
4.48
5.37
5.98
6.60
7.32
8.05
8.61
8.85
8.74
8.39
7.96
7.58
7.29
7.03
6.76
6.49
6.29
6.20
6.19
6.10
5.73
4.90
3.57
1.84
-0.09
-1.99
-3.71
-5.24
-6.65
-8.07
-9.57
-11.05
-12.30
-13.00
-12.93
-11.96
-10.24
-8.08
-5.91
-4.07
-2.74
-1.92
-1.42
-1.06
-0.67
-0.19
0.37
0.94
1.39
1.66
1.70
1.55
1.32
1.16
1.22
1.53
2.04
2.59
2.95
2.92
2.43
1.49
0.29
-0.95
-2.03
-2.83
-3.41
-3.93
-4.56
-5.44
-6.58
-7.89
-9.20
-10.30
-10.96
-10.95
-10.10
-8.38
-5.93
-3.05
-0.19
2.27
4.09
5.21
5.77
5.94
5.87
5.63
5.23
4.68
4.02
3.26
2.47
1.66
0.82
-0.02
-0.82
-1.45
-1.86
-2.01
-2.00
-1.98
-2.11
-2.42
-2.87
-3.36
-3.78
-4.16
-4.54
-5.03
-5.69
-6.50
-7.42
-8.41
-9.41
-10.27
-10.79
-10.69
-9.77
-8.03
-5.69
-3.21
-0.99
0.71
1.88
2.71
3.42
4.11
4.78
5.30
5.55
5.52
5.28
4.95
4.63
4.41
4.29
4.27
4.35
4.50
4.68
4.86
4.94
4.79
4.26
3.23
1.73
-0.10
-2.00
-3.74
-5.14
-6.22
-7.08
-7.86
-8.65
-9.42
-10.04
-10.33
-10.11
-9.27
-7.78
-5.73
-3.25
-0.58
2.01
4.24
5.95
7.04
7.59
7.81
7.93
8.11
8.40
8.66
8.69
8.38
7.72
6.86
6.03
5.40
5.04
4.89
4.78
4.54
4.07
3.35
2.44
1.42
0.38
-0.60
-1.47
-2.16
-2.67
-3.03
-3.35
-3.82
-4.57
-5.64
-6.82
-7.73
-7.94
-7.15
-5.34
-2.83
-0.13
2.23
3.94
4.93
5.32
5.29
4.97
4.41
3.65
2.79
2.05
1.65
1.70
2.14
2.73
3.16
3.24
2.99
2.57
2.23
2.06
2.03
1.92
1.54
0.79
-0.23
-1.30
-2.24
-2.94
-3.47
-3.98
-4.65
-5.54
-6.58
-7.55
-8.17
-8.18
-7.47
-6.07
-4.15
-1.94
0.33
2.44
4.24
5.61
6.47
6.80
6.68
6.21
5.59
4.97
4.48
4.12
3.85
3.60
3.35
3.13
2.99
2.98
3.06
3.13
3.08
2.82
2.36
1.77
1.15
0.53
-0.12
-0.90
-1.84
-2.90
-3.94
-4.84
-5.56
-6.19
-6.89
-7.75
-8.67
-9.37
-9.44
-8.65
-6.98
-4.73
-2.33
-0.20
1.45
2.64
3.51
4.21
4.78
5.18
5.31
5.10
4.62
3.98
3.32
2.77
2.39
2.15
1.97
1.73
1.37
0.86
0.25
-0.37
-0.94
-1.46
-1.99
-2.62
-3.40
-4.29
-5.18
-5.98
-6.63
-7.18
-7.74
-8.42
-9.23
-10.09
-10.78
-11.07
-10.75
-9.70
-8.00
-5.84
-3.52
-1.31
0.59
2.09
3.22
4.02
4.52
4.72
4.62
4.28
3.82
3.39
3.09
2.94
2.85
2.77
2.65
2.50
2.37
2.27
2.15
1.94
1.58
1.09
0.52
-0.07
-0.59
-1.00
-1.32
-1.52
-1.71
-1.99
-2.50
-3.29
-4.25
-5.16
-5.66
-5.49
-4.53
-2.91
-0.93
1.01
2.65
3.85
4.64
5.11
5.38
5.51
5.52
5.41
5.17
4.84
4.44
4.05
3.74
3.61
3.71
4.07
4.63
5.21
5.63
5.68
5.30
4.50
3.41
2.21
1.02
-0.06
-1.02
-1.91
-2.78
-3.71
-4.75
-5.87
-6.96
-7.84
-8.24
-7.97
-6.96
-5.29
-3.21
-1.03
0.99
2.67
3.92
4.76
5.22
5.40
5.39
5.26
5.05
4.80
4.50
4.19
3.93
3.78
3.77
3.87
4.00
4.00
3.77
3.29
2.61
1.86
1.13
0.50
-0.05
-0.60
-1.25
-2.07
-3.08
-4.22
-5.39
-6.51
-7.50
-8.32
-8.88
-9.03
-8.62
-7.56
-5.93
-3.92
-1.89
-0.11
1.24
2.16
2.71
3.01
3.10
3.01
2.81
2.59
2.44
2.43
2.53
2.63
2.64
2.53
2.35
2.16
1.98
1.78
1.46
0.93
0.14
-0.89
-2.07
-3.24
-4.26
-5.07
-5.67
-6.18
-6.76
-7.54
-8.52
-9.53
-10.29
-10.51
-10.00
-8.74
-6.91
-4.76
-2.57
-0.58
1.01
2.09
2.67
2.81
2.64
2.31
1.89
1.45
0.99
0.50
0.06
-0.28
-0.49
-0.56
-0.52
-0.45
-0.45
-0.55
-0.77
-1.10
-1.48
-1.87
-2.25
-2.62
-3.04
-3.55
-4.18
-4.89
-5.64
-6.36
-7.00
-7.48
-7.68
-7.47
-6.68
-5.28
-3.39
-1.26
0.79
2.49
3.67
4.34
4.59
4.59
4.48
4.36
4.29
4.27
4.30
4.35
4.44
4.59
4.82
5.12
5.40
5.55
5.43
4.97
4.21
3.22
2.14
1.08
0.11
-0.71
-1.37
-1.89
-2.36
-2.88
-3.58
-4.48
-5.45
-6.22
-6.47
-5.94
-4.56
-2.53
-0.23
1.96
3.75
5.00
5.78
6.18
6.33
6.27
6.01
5.56
4.93
4.24
3.60
3.11
2.80
2.65
2.56
2.45
2.24
1.88
1.40
0.82
0.23
-0.33
-0.86
-1.36
-1.89
-2.47
-3.15
-3.94
-4.87
-5.93
-7.06
-8.08
-8.74
-8.76
-7.94
-6.27
-3.95
-1.35
1.22
3.51
5.46
7.06
8.31
9.13
9.45
9.24
8.60
7.75
6.93
6.31
5.90
5.64
5.40
5.15
4.87
4.58
4.28
3.89
3.33
2.56
1.56
0.38
-0.89
-2.17
-3.38
-4.48
-5.46
-6.30
-6.99
-7.40
-7.45
-7.00
-6.04
-4.61
-2.87
-1.01
0.78
2.41
3.82
4.95
5.77
6.18
6.11
5.54
4.58
3.43
2.36
1.63
1.35
1.48
1.83
2.17
2.29
2.09
1.57
0.78
-0.22
-1.39
-2.65
-3.89
-5.00
-5.93
-6.74
-7.57
-8.56
-9.73
-10.87
-11.65
-11.69
-10.76
-8.90
-6.39
-3.66
-1.11
1.07
2.87
4.43
5.89
7.29
8.50
9.31
9.56
9.25
8.52
7.65
6.90
6.42
6.19
6.08
5.88
5.40
4.56
3.38
2.00
0.57
-0.81
-2.10
-3.28
-4.39
-5.41
-6.31
-7.03
-7.53
-7.79
-7.77
-7.40
-6.65
-5.52
-4.12
-2.57
-1.04
0.35
1.53
2.49
3.25
3.79
4.12
4.23
4.17
3.98
3.74
3.50
3.33
3.27
3.35
3.56
3.82
4.02
4.02
3.80
3.40
2.93
2.52
2.19
1.87
1.40
0.66
-0.49
-2.00
-3.75
-5.51
-7.01
-8.00
-8.32
-7.92
-6.90
-5.41
-3.67
-1.86
-0.14
1.36
2.56
3.34
3.62
3.40
2.78
1.94
1.11
0.46
0.09
-0.05
-0.00
0.14
0.31
0.42
0.40
0.21
-0.19
-0.73
-1.36
-1.97
-2.52
-3.02
-3.56
-4.25
-5.20
-6.38
-7.65
-8.75
-9.39
-9.31
-8.45
-6.90
-4.91
-2.80
-0.85
0.83
2.20
3.30
4.17
4.82
5.26
5.49
5.55
5.51
5.44
5.42
5.44
5.50
5.57
5.59
5.56
5.44
5.27
5.08
4.90
4.70
4.47
4.12
3.61
2.87
1.88
0.68
-0.67
-2.00
-3.13
-3.86
-4.06
-3.71
-2.91
-1.81
-0.61
0.59
1.73
2.78
3.73
4.47
4.94
5.04
4.76
4.19
3.48
2.81
2.32
2.08
2.05
2.11
2.18
2.18
2.10
1.96
1.78
1.50
1.05
0.34
-0.63
-1.78
-2.92
-3.85
-4.44
-4.67
-4.64
-4.48
-4.32
-4.21
-4.07
-3.78
-3.19
-2.21
-0.89
0.60
1.97
2.94
3.33
3.12
2.46
1.62
0.87
0.40
0.27
0.39
0.61
0.80
0.87
0.79
0.61
0.38
0.14
-0.07
-0.28
-0.50
-0.78
-1.19
-1.78
-2.61
-3.69
-4.96
-6.25
-7.29
-7.74
-7.32
-5.93
-3.75
-1.16
1.33
3.28
4.44
4.79
4.51
3.87
3.12
2.46
2.02
1.90
2.10
2.59
3.19
3.71
3.95
3.79
3.22
2.33
1.25
0.11
-0.99
-1.99
-2.90
-3.74
-4.55
-5.34
-6.07
-6.64
-6.92
-6.75
-6.05
-4.87
-3.35
-1.70
-0.14
1.20
2.27
3.08
3.64
3.93
3.97
3.77
3.43
3.04
2.69
2.37
2.11
1.90
1.76
1.72
1.78
1.88
1.88
1.69
1.24
0.64
0.00
-0.57
-1.07
-1.57
-2.16
-2.84
-3.50
-3.93
-3.96
-3.49
-2.60
-1.40
-0.04
1.36
2.76
4.11
5.36
6.42
7.19
7.61
7.69
7.46
7.02
6.44
5.80
5.13
4.51
3.98
3.53
3.15
2.75
2.27
1.69
1.05
0.39
-0.28
-1.01
-1.86
-2.88
-4.02
-5.16
-6.08
-6.56
-6.44
-5.69
-4.38
-2.70
-0.89
0.82
2.22
3.20
3.70
3.75
3.42
2.83
2.13
1.47
0.95
0.63
0.53
0.55
0.62
0.64
0.53
0.23
-0.27
-0.98
-1.83
-2.75
-3.72
-4.71
-5.74
-6.83
-7.93
-8.85
-9.36
-9.28
-8.52
-7.26
-5.79
-4.47
-3.52
-3.00
-2.78
-2.67
-2.56
-2.45
-2.46
-2.65
-3.08
-3.61
-4.09
-4.35
-4.31
-4.01
-3.58
-3.23
-3.10
-3.26
-3.66
-4.19
-4.77
-5.35
-5.96
-6.63
-7.35
-7.98
-8.31
-8.11
-7.27
-5.81
-3.87
-1.70
0.47
2.42
4.03
5.19
5.82
5.92
5.55
4.89
4.19
3.69
3.54
3.71
4.02
4.23
4.18
3.88
3.52
3.28
3.22
3.23
3.06
2.49
1.43
0.02
-1.51
-2.91
-3.97
-4.61
-4.74
-4.34
-3.39
-1.98
-0.31
1.30
2.58
3.37
3.68
3.67
3.50
3.32
3.16
3.00
2.81
2.54
2.19
1.80
1.41
1.06
0.79
0.60
0.47
0.34
0.18
-0.04
-0.30
-0.57
-0.86
-1.17
-1.53
-1.89
-2.15
-2.16
-1.83
-1.13
-0.16
0.91
1.90
2.70
3.26
3.59
3.68
3.52
3.08
2.37
1.48
0.55
-0.22
-0.69
-0.83
-0.70
-0.45
-0.23
-0.13
-0.16
-0.30
-0.49
-0.71
-0.94
-1.19
-1.49
-1.88
-2.36
-2.92
-3.48
-3.91
-4.05
-3.74
-2.93
-1.67
-0.14
1.41
2.75
3.71
4.23
4.36
4.19
3.82
3.34
2.86
2.45
2.17
2.00
1.88
1.72
1.42
0.97
0.45
-0.01
-0.29
-0.34
-0.25
-0.16
-0.18
-0.38
-0.72
-1.17
-1.71
-2.34
-3.01
-3.60
-3.94
-3.81
-3.13
-1.94
-0.51
0.84
1.83
2.34
2.37
2.08
1.60
1.02
0.43
-0.12
-0.53
-0.70
-0.55
-0.12
0.48
1.06
1.42
1.48
1.25
0.85
0.46
0.20
0.11
0.11
0.07
-0.10
-0.39
-0.75
-1.03
-1.13
-1.01
-0.67
-0.19
0.39
1.02
1.69
2.32
2.86
3.20
3.26
3.04
2.56
1.93
1.27
0.71
0.26
-0.06
-0.33
-0.60
-0.89
-1.19
-1.47
-1.69
-1.84
-1.90
-1.89
-1.83
-1.78
-1.86
-2.21
-2.88
-3.77
-4.64
-5.17
-5.12
-4.43
-3.19
-1.62
0.06
1.65
2.99
3.95
4.44
4.42
3.99
3.31
2.61
2.04
1.67
1.45
1.25
0.99
0.64
0.22
-0.20
-0.56
-0.80
-0.93
-1.00
-1.08
-1.27
-1.61
-2.09
-2.59
-3.05
-3.41
-3.68
-3.87
-3.96
-3.85
-3.40
-2.56
-1.42
-0.19
0.89
1.64
2.05
2.20
2.19
2.06
1.74
1.18
0.40
-0.43
-1.10
-1.40
-1.28
-0.84
-0.25
0.27
0.60
0.67
0.53
0.25
-0.11
-0.48
-0.84
-1.18
-1.57
-2.07
-2.73
-3.51
-4.28
-4.88
-5.10
-4.84
-4.06
-2.87
-1.41
0.13
1.57
2.77
3.61
4.05
4.07
3.74
3.14
2.43
1.74
1.22
1.03
1.18
1.64
2.21
2.66
2.79
2.53
1.96
1.25
0.59
0.11
-0.20
-0.45
-0.76
-1.25
-1.99
-3.00
-4.22
-5.47
-6.52
-7.04
-6.77
-5.60
-3.68
-1.35
0.94
2.78
4.01
4.64
4.83
4.77
4.59
4.31
3.96
3.57
3.20
2.89
2.65
2.45
2.18
1.78
1.22
0.52
-0.25
-1.00
-1.67
-2.24
-2.72
-3.18
-3.65
-4.18
-4.74
-5.30
-5.87
-6.42
-6.95
-7.39
-7.62
-7.48
-6.85
-5.70
-4.14
-2.37
-0.59
1.00
2.32
3.29
3.87
4.03
3.75
3.10
2.24
1.39
0.78
0.57
0.80
1.36
2.03
2.55
2.71
2.40
1.70
0.80
-0.08
-0.74
-1.12
-1.29
-1.42
-1.74
-2.38
-3.40
-4.66
-5.96
-7.04
-7.66
-7.64
-6.92
-5.53
-3.63
-1.46
0.69
2.51
3.80
4.45
4.54
4.23
3.71
3.15
2.63
2.16
1.73
1.31
0.90
0.49
0.07
-0.40
-0.91
-1.44
-1.88
-2.11
-2.04
-1.69
-1.21
-0.79
-0.67
-0.97
-1.73
-2.88
-4.28
-5.69
-6.83
-7.37
-7.07
-5.81
-3.72
-1.15
1.45
3.64
5.15
5.91
6.05
5.73
5.14
4.43
3.75
3.26
3.08
3.24
3.69
4.27
4.76
5.00
4.91
4.56
4.09
3.65
3.32
3.10
2.86
2.49
1.88
1.00
-0.10
-1.30
-2.46
-3.39
-3.91
-3.89
-3.25
-2.09
-0.60
0.94
2.30
3.40
4.36
5.38
6.62
8.08
9.49
10.47
10.70
10.04
8.67
6.90
5.13
3.58
2.35
1.37
0.58
-0.08
-0.61
-1.01
-1.30
-1.56
-1.92
-2.46
-3.26
-4.40
-5.88
-7.68
-9.67
-11.62
-13.20
-14.08
-14.01
-12.91
-10.89
-8.21
-5.21
-2.21
0.53
2.85
4.66
5.90
6.56
6.60
6.11
5.24
4.27
3.50
3.15
3.33
3.90
4.64
5.30
5.66
5.62
5.20
4.49
3.55
2.51
1.37
0.13
-1.24
-2.79
-4.54
-6.45
-8.39
-10.13
-11.34
-11.72
-11.04
-9.26
-6.58
-3.38
-0.12
2.80
5.10
6.70
7.68
8.17
8.30
8.17
7.83
7.35
6.84
6.38
6.07
5.94
5.95
6.01
5.99
5.78
5.28
4.49
3.47
2.34
1.21
0.15
-0.85
-1.93
-3.18
-4.66
-6.33
-7.98
-9.36
-10.14
-10.08
-9.04
-7.07
-4.37
-1.30
1.72
4.31
6.22
7.38
7.85
7.81
7.43
6.84
6.15
5.42
4.77
4.30
4.08
4.07
4.17
4.20
4.01
3.57
2.93
2.21
1.44
0.64
-0.30
-1.40
-2.65
-3.98
-5.32
-6.69
-8.17
-9.85
-11.64
-13.26
-14.25
-14.14
-12.68
-9.93
-6.36
-2.61
0.68
3.13
4.65
5.40
5.67
5.67
5.53
5.25
4.85
4.39
3.96
3.66
3.52
3.49
3.40
3.12
2.57
1.80
0.95
0.25
-0.17
-0.26
-0.14
-0.06
-0.23
-0.84
-1.90
-3.31
-4.92
-6.59
-8.17
-9.47
-10.26
-10.23
-9.21
-7.19
-4.42
-1.39
1.36
3.46
4.78
5.41
5.57
5.46
5.18
4.77
4.30
3.89
3.67
3.75
4.13
4.67
5.15
5.35
5.11
4.41
3.35
2.11
0.94
-0.02
-0.75
-1.34
-1.98
-2.81
-3.83
-4.97
-6.05
-6.92
-7.43
-7.47
-6.92
-5.68
-3.75
-1.28
1.44
4.00
6.08
7.53
8.39
8.85
9.06
9.14
9.05
8.76
8.26
7.69
7.22
7.03
7.14
7.38
7.46
7.10
6.20
4.88
3.44
2.21
1.41
1.07
1.02
1.00
0.71
0.01
-1.15
-2.67
-4.29
-5.73
-6.61
-6.65
-5.71
-3.88
-1.41
1.28
3.82
5.97
7.60
8.74
9.43
9.68
9.51
8.95
8.12
7.22
6.48
6.03
5.88
5.89
5.85
5.55
4.91
3.95
2.80
1.68
0.71
-0.00
-0.52
-0.94
-1.45
-2.16
-3.17
-4.46
-5.89
-7.28
-8.34
-8.82
-8.52
-7.35
-5.40
-2.88
-0.17
2.39
4.47
5.91
6.69
6.93
6.80
6.43
5.94
5.36
4.77
4.27
3.97
3.93
4.12
4.38
4.50
4.27
3.65
2.67
1.52
0.38
-0.62
-1.43
-2.08
-2.70
-3.40
-4.32
-5.54
-7.03
-8.60
-9.95
-10.75
-10.70
-9.68
-7.74
-5.13
-2.20
0.71
3.29
5.34
6.74
7.50
7.70
7.44
6.90
6.19
5.47
4.83
4.35
4.04
3.91
3.87
3.82
3.63
3.20
2.46
1.48
0.38
-0.67
-1.51
-2.07
-2.42
-2.70
-3.11
-3.77
-4.73
-5.95
-7.29
-8.58
-9.56
-10.01
-9.73
-8.66
-6.91
-4.76
-2.55
-0.57
1.02
2.20
2.99
3.47
3.64
3.54
3.24
2.84
2.48
2.20
2.02
1.86
1.65
1.33
0.95
0.59
0.32
0.22
0.27
0.39
0.46
0.35
0.03
-0.48
-1.10
-1.71
-2.27
-2.84
-3.55
-4.56
-5.90
-7.50
-9.08
-10.29
-10.79
-10.38
-9.04
-6.97
-4.50
-2.01
0.18
1.87
3.03
3.70
4.02
4.12
4.13
4.16
4.29
4.57
4.98
5.44
5.84
6.06
6.06
5.84
5.45
4.97
4.43
3.82
3.09
2.22
1.20
0.11
-0.99
-2.05
-3.04
-3.98
-4.89
-5.78
-6.68
-7.63
-8.61
-9.58
-10.36
-10.69
-10.30
-9.03
-6.95
-4.33
-1.59
0.92
2.95
4.46
5.50
6.14
6.40
6.29
5.85
5.20
4.51
3.93
3.57
3.44
3.47
3.58
3.67
3.68
3.54
3.20
2.64
1.88
0.99
0.08
-0.79
-1.58
-2.33
-3.11
-3.99
-4.99
-6.08
-7.17
-8.19
-9.07
-9.72
-10.06
-9.92
-9.17
-7.74
-5.70
-3.29
-0.88
1.19
2.74
3.79
4.51
5.11
5.68
6.15
6.38
6.22
5.68
4.90
4.12
3.52
3.18
3.02
2.93
2.82
2.64
2.41
2.15
1.83
1.36
0.74
-0.01
-0.79
-1.47
-2.01
-2.41
-2.77
-3.21
-3.83
-4.65
-5.58
-6.49
-7.16
-7.42
-7.13
-6.26
-4.87
-3.09
-1.08
0.96
2.79
4.22
5.04
5.18
4.72
3.90
2.97
2.18
1.60
1.19
0.85
0.49
0.15
-0.07
-0.07
0.20
0.66
1.15
1.46
1.44
1.06
0.41
-0.31
-0.94
-1.36
-1.59
-1.69
-1.82
-2.11
-2.60
-3.31
-4.17
-5.10
-5.94
-6.56
-6.76
-6.44
-5.54
-4.08
-2.24
-0.28
1.54
2.99
3.97
4.54
4.83
4.98
5.09
5.13
5.07
4.89
4.61
4.35
4.17
4.10
4.09
3.99
3.67
3.09
2.25
1.26
0.23
-0.69
-1.42
-1.93
-2.24
-2.47
-2.72
-3.05
-3.45
-3.91
-4.42
-5.06
-5.92
-7.00
-8.15
-9.00
-9.14
-8.32
-6.55
-4.18
-1.72
0.34
1.75
2.51
2.80
2.85
2.83
2.77
2.68
2.57
2.49
2.53
2.71
2.96
3.15
3.15
2.91
2.50
2.07
1.75
1.56
1.39
1.12
0.69
0.18
-0.24
-0.46
-0.52
-0.66
-1.20
-2.36
-4.13
-6.23
-8.25
-9.83
-10.77
-10.96
-10.43
-9.20
-7.32
-4.98
-2.42
0.03
2.04
3.43
4.19
4.41
4.28
3.93
3.46
2.94
2.41
1.92
1.50
1.17
0.93
0.80
0.75
0.71
0.60
0.31
-0.25
-1.04
-1.94
-2.75
-3.28
-3.43
-3.22
-2.79
-2.38
-2.20
-2.41
-3.04
-4.02
-5.18
-6.28
-7.10
-7.41
-7.10
-6.13
-4.63
-2.84
-1.02
0.52
1.63
2.28
2.58
2.69
2.77
2.87
2.94
2.89
2.60
2.00
1.07
-0.10
-1.41
-2.67
-3.69
-4.35
-4.58
-4.46
-4.13
-3.74
-3.37
-3.02
-2.67
-2.30
-1.99
-1.84
-2.00
-2.51
-3.41
-4.62
-5.98
-7.27
-8.17
-8.36
-7.60
-5.85
-3.32
-0.43
2.36
4.71
6.42
7.47
7.92
7.83
7.28
6.33
5.13
3.87
2.80
2.08
1.84
2.07
2.66
3.42
4.11
4.54
4.58
4.23
3.62
2.95
2.41
2.09
1.94
1.84
1.64
1.22
0.56
-0.31
-1.36
-2.56
-3.89
-5.27
-6.53
-7.38
-7.53
-6.80
-5.23
-3.08
-0.70
1.55
3.47
4.99
6.11
6.84
7.20
7.15
6.73
6.06
5.33
4.70
4.27
4.04
3.92
3.82
3.68
3.48
3.26
3.05
2.84
2.59
2.27
1.84
1.27
0.52
-0.43
-1.61
-3.07
-4.78
-6.65
-8.53
-10.19
-11.38
-11.88
-11.55
-10.40
-8.55
-6.25
-3.85
-1.65
0.10
1.29
1.92
2.07
1.83
1.30
0.57
-0.22
-0.92
-1.35
-1.37
-0.96
-0.27
0.52
1.18
1.56
1.65
1.52
1.30
1.07
0.90
0.74
0.50
0.08
-0.59
-1.54
-2.77
-4.21
-5.78
-7.38
-8.87
-10.08
-10.83
-10.94
-10.26
-8.79
-6.67
-4.18
-1.67
0.57
2.36
3.65
4.52
5.03
5.23
5.20
4.95
4.56
4.14
3.79
3.59
3.53
3.51
3.40
3.10
2.56
1.82
1.00
0.26
-0.29
-0.65
-0.91
-1.22
-1.73
-2.50
-3.52
-4.71
-5.94
-7.08
-7.93
-8.28
-7.93
-6.78
-4.94
-2.70
-0.47
1.36
2.58
3.23
3.45
3.43
3.27
2.97
2.52
1.96
1.43
1.12
1.17
1.54
2.05
2.44
2.54
2.30
1.88
1.47
1.23
1.18
1.19
1.07
0.66
-0.04
-0.97
-1.98
-3.00
-4.02
-5.14
-6.39
-7.67
-8.75
-9.27
-8.95
-7.68
-5.63
-3.18
-0.76
1.26
2.69
3.51
3.79
3.58
2.98
2.06
1.02
0.09
-0.46
-0.46
0.04
0.85
1.66
2.22
2.41
2.33
2.14
2.03
2.12
2.39
2.77
3.12
3.33
3.32
3.07
2.58
1.92
1.17
0.48
0.02
0.02
0.65
1.99
3.95
6.24
8.52
10.44
11.79
12.51
12.73
12.62
12.35
12.03
11.71
11.42
11.18
11.02
10.96
10.97
11.01
10.98
10.78
10.29
9.42
8.22
6.78
5.32
4.06
3.12
2.44
1.77
0.81
-0.75
-3.00
-5.84
-8.91
-11.75
-13.93
-15.09
-15.10
-13.97
-11.87
-9.09
-5.98
-2.89
-0.13
2.11
3.75
4.79
5.29
5.33
4.97
4.28
3.37
2.41
1.61
1.19
1.31
2.02
3.23
4.78
6.38
7.74
8.65
8.97
8.68
7.84
6.51
4.73
2.50
-0.18
-3.21
-6.41
-9.45
-11.90
-13.34
-13.50
-12.28
-9.85
-6.61
-3.08
0.26
3.02
5.00
6.15
6.53
6.22
5.31
3.97
2.41
0.90
-0.35
-1.20
-1.73
-2.12
-2.60
-3.30
-4.16
-5.00
-5.60
-5.85
-5.81
-5.70
-5.75
-6.12
-6.78
-7.60
-8.37
-8.93
-9.23
-9.29
-9.16
-8.93
-8.57
-8.00
-7.11
-5.81
-4.13
-2.23
-0.35
1.26
2.48
3.38
4.11
4.83
5.56
6.16
6.44
6.25
5.68
5.01
4.56
4.53
4.88
5.34
5.57
5.36
4.73
3.90
3.14
2.62
2.35
2.19
2.03
1.78
1.46
1.08
0.66
0.10
-0.62
-1.50
-2.36
-2.91
-2.89
-2.10
-0.59
1.40
3.50
5.36
6.76
7.62
8.01
8.03
7.78
7.33
6.72
6.02
5.29
4.63
4.10
3.74
3.52
3.42
3.38
3.34
3.28
3.19
3.10
3.00
2.88
2.65
2.18
1.37
0.13
-1.53
-3.50
-5.56
-7.47
-8.90
-9.54
-9.09
-7.40
-4.53
-0.79
3.28
7.06
10.01
11.84
12.55
12.32
11.45
10.23
8.91
7.67
6.70
6.16
6.12
6.52
7.06
7.35
6.99
5.83
3.96
1.79
-0.18
-1.58
-2.25
-2.35
-2.23
-2.26
-2.70
-3.57
-4.70
-5.78
-6.51
-6.67
-6.21
-5.23
-4.04
-3.03
-2.61
-3.10
-4.62
-7.00
-9.81
-12.45
-14.30
-14.90
-14.05
-11.85
-8.64
-4.86
-0.93
2.78
5.98
8.45
9.99
10.45
9.82
8.26
6.07
3.68
1.48
-0.24
-1.41
-2.13
-2.58
-2.94
-3.34
-3.83
-4.40
-5.02
-5.64
-6.17
-6.52
-6.61
-6.43
-6.06
-5.61
-5.17
-4.74
-4.26
-3.63
-2.85
-2.02
-1.32
-0.92
-0.88
-1.09
-1.39
-1.68
-1.94
-2.31
-2.98
-4.06
-5.51
-7.12
-8.65
-9.87
-10.68
-11.09
-11.20
-11.11
-10.88
-10.57
-10.18
-9.77
-9.37
-8.96
-8.46
-7.72
-6.55
-4.86
-2.66
-0.17
2.29
4.36
5.77
6.38
6.22
5.45
4.29
2.95
1.68
0.69
0.18
0.32
1.20
2.81
5.02
7.58
10.18
12.51
14.31
15.42
15.80
15.50
14.56
13.03
10.93
8.30
5.28
2.04
-1.14
-4.00
-6.29
-7.85
-8.55
-8.35
-7.25
-5.37
-2.98
-0.44
1.85
3.56
4.51
4.70
4.21
3.20
1.81
0.17
-1.57
-3.26
-4.68
-5.63
-5.95
-5.60
-4.68
-3.41
-2.10
-1.07
-0.52
-0.52
-0.98
-1.68
-2.43
-3.09
-3.65
-4.14
-4.58
-4.89
-4.93
-4.57
-3.77
-2.59
-1.12
0.58
2.50
4.55
6.43
7.63
7.54
5.78
2.43
-1.84
-6.05
-9.27
-11.02
-11.46
-11.13
-10.67
-10.46
-10.49
-10.50
-10.18
-9.45
-8.42
-7.37
-6.49
-5.87
-5.44
-5.05
-4.51
-3.69
-2.48
-0.78
1.41
4.04
6.92
9.80
12.39
14.47
15.86
16.45
16.19
15.10
13.33
11.17
9.04
7.34
6.35
6.10
6.40
6.96
7.55
8.06
8.53
9.05
9.67
10.30
10.80
11.01
10.90
10.58
10.31
10.40
11.12
12.54
14.50
16.54
17.95
18.04
16.36
13.00
8.52
3.71
-0.81
-4.90
-8.78
-12.75
-16.78
-20.34
-22.59
-22.82
-20.92
-17.40
-13.22
-9.19
-5.72
-2.55
0.90
5.19
10.52
16.52
22.43
27.36
30.57
31.69
30.76
28.02
23.83
18.41
11.99
4.86
-2.56
-9.64
-15.77
-20.49
-23.57
-25.06
-25.14
-24.03
-22.06
-19.62
-17.16
-15.21
-14.21
-14.40
-15.74
-17.86
-20.20
-22.09
-22.95
-22.41
-20.40
-17.20
-13.31
-9.33
-5.73
-2.78
-0.51
1.24
2.71
4.10
5.56
7.13
8.74
10.28
11.59
12.50
12.89
12.71
12.00
10.92
9.70
8.58
7.72
7.14
6.70
6.23
5.57
4.65
3.47
2.11
0.61
-0.98
-2.61
-4.21
-5.69
-6.93
-7.87
-8.50
-8.85
-9.00
-9.05
-9.11
-9.27
-9.56
-9.95
-10.31
-10.45
-10.16
-9.34
-8.03
-6.41
-4.84
-3.68
-3.16
-3.27
-3.75
-4.13
-3.92
-2.85
-0.93
1.57
4.28
6.87
9.18
11.16
12.77
13.83
14.06
13.15
10.94
7.57
3.48
-0.74
-4.55
-7.56
-9.63
-10.83
-11.26
-11.01
-10.03
-8.31
-5.88
-3.00
-0.10
2.31
3.81
4.21
3.62
2.43
1.17
0.33
0.23
0.88
2.00
3.15
3.91
3.98
3.39
2.36
1.21
0.27
-0.31
-0.43
-0.05
0.91
2.49
4.63
7.09
9.54
11.72
13.54
15.15
16.70
18.16
19.08
18.78
16.63
12.42
6.60
0.17
-5.78
-10.41
-13.53
-15.53
-17.11
-18.88
-21.13
-23.66
-26.04
-27.83
-28.75
-28.72
-27.71
-25.63
-22.28
-17.58
-11.73
-5.37
0.61
5.36
8.45
10.07
10.91
11.82
13.44
15.92
19.01
22.18
24.94
26.94
28.01
28.10
27.24
25.51
23.10
20.24
17.25
14.45
12.05
10.13
8.61
7.40
6.36
5.48
4.79
4.35
4.17
4.15
4.06
3.66
2.73
1.20
-0.87
-3.33
-6.00
-8.70
-11.28
-13.56
-15.32
-16.31
-16.36
-15.43
-13.70
-11.55
-9.46
-7.79
-6.70
-6.07
-5.58
-4.90
-3.84
-2.43
-1.03
-0.15
-0.41
-2.31
-6.08
-11.52
-17.93
-24.20
-29.02
-31.25
-30.27
-26.15
-19.69
-12.12
-4.73
1.45
5.97
8.85
10.42
11.11
11.18
10.76
9.86
8.56
7.00
5.44
4.15
3.30
2.93
2.94
3.20
3.57
3.97
4.34
4.63
4.75
4.56
3.95
2.87
1.40
-0.28
-1.89
-3.21
-4.09
-4.55
-4.69
-4.66
-4.62
-4.58
-4.50
-4.18
-3.46
-2.23
-0.58
1.23
2.83
3.93
4.40
4.40
4.28
4.41
5.03
6.14
7.60
9.18
10.70
12.04
13.14
13.95
14.44
14.69
14.85
15.14
15.70
16.50
17.22
17.36
16.42
14.10
10.52
6.18
1.84
-1.79
-4.30
-5.67
-6.28
-6.68
-7.37
-8.57
-10.15
-11.73
-12.84
-13.11
-12.42
-10.91
-8.93
-6.93
-5.30
-4.35
-4.23
-4.96
-6.45
-8.51
-10.90
-13.28
-15.32
-16.70
-17.19
-16.78
-15.59
-13.86
-11.84
-9.72
-7.63
-5.63
-3.81
-2.31
-1.24
-0.66
-0.49
-0.57
-0.74
-0.90
-1.10
-1.48
-2.11
-2.92
-3.72
-4.29
-4.46
-4.25
-3.78
-3.23
-2.67
-2.04
-1.13
0.34
2.60
5.69
9.45
13.50
17.37
20.62
22.96
24.31
24.86
25.12
25.78
27.63
31.37
37.32
45.24
54.30
63.18
70.46
74.98
76.02
73.50
67.82
59.74
50.15
39.94
29.85
20.39
11.79
4.05
-2.93
-9.33
-15.22
-20.64
-25.55
-29.87
-33.59
-36.82
-39.73
-42.52
-45.38
-48.34
-51.25
-53.85
-55.83
-56.99
-57.29
-56.80
-55.71
-54.19
-52.36
-50.27
-47.92
-45.30
-42.37
-39.06
-35.30
-31.01
-26.20
-21.04
-15.83
-10.99
-6.88
-3.73
-1.50
-0.01
1.06
2.00
3.04
4.37
6.07
8.19
10.71
13.50
16.36
19.03
21.33
23.14
24.45
25.29
25.68
25.61
25.11
24.24
23.13
21.91
20.63
19.27
17.71
15.86
13.67
11.29
8.94
6.88
5.30
4.27
3.73
3.53
3.53
3.59
3.60
3.44
2.97
2.03
0.54
-1.48
-3.84
-6.26
-8.42
-10.07
-11.15
-11.73
-12.04
-12.27
-12.56
-12.95
-13.39
-13.79
-14.12
-14.34
-14.48
-14.57
-14.62
-14.60
-14.47
-14.17
-13.60
-12.75
-11.62
-10.27
-8.78
-7.21
-5.62
-4.07
-2.58
-1.19
0.03
1.05
1.82
2.27
2.42
2.28
1.93
1.46
1.01
0.62
0.30
0.01
-0.30
-0.62
-0.87
-0.93
-0.72
-0.27
0.24
0.52
0.32
-0.51
-1.90
-3.57
-5.13
-6.21
-6.53
-5.99
-4.68
-2.82
-0.72
1.31
3.03
4.27
4.98
5.18
4.90
4.21
3.16
1.88
0.53
-0.68
-1.53
-1.88
-1.76
-1.32
-0.81
-0.44
-0.34
-0.48
-0.71
-0.89
-0.99
-1.10
-1.36
-1.89
-2.67
-3.54
-4.30
-4.78
-4.89
-4.67
-4.13
-3.27
-2.02
-0.39
1.53
3.50
5.22
6.40
6.90
6.74
6.13
5.33
4.56
4.00
3.72
3.73
3.95
4.24
4.44
4.41
4.10
3.57
2.99
2.49
2.13
1.85
1.50
1.01
0.33
-0.52
-1.48
-2.55
-3.70
-4.83
-5.71
-6.03
-5.55
-4.18
-2.09
0.34
2.72
4.72
6.17
7.03
7.36
7.25
6.80
6.18
5.57
5.12
4.95
5.08
5.39
5.70
5.84
5.74
5.40
4.94
4.42
3.88
3.26
2.47
1.47
0.31
-0.92
-2.08
-3.09
-3.89
-4.43
-4.58
-4.21
-3.18
-1.51
0.61
2.84
4.84
6.35
7.32
7.82
8.04
8.10
8.03
7.82
7.45
6.93
6.34
5.75
5.19
4.63
4.01
3.34
2.68
2.14
1.81
1.66
1.55
1.29
0.69
-0.35
-1.82
-3.63
-5.57
-7.35
-8.61
-9.02
-8.40
-6.78
-4.47
-1.86
0.65
2.80
4.51
5.76
6.53
6.78
6.52
5.88
5.14
4.59
4.45
4.72
5.23
5.70
5.91
5.74
5.25
4.56
3.85
3.25
2.79
2.39
1.90
1.09
-0.21
-2.01
-4.19
-6.46
-8.42
-9.72
-10.11
-9.52
-8.06
-5.94
-3.48
-0.96
1.37
3.34
4.84
5.82
6.30
6.34
6.07
5.60
5.06
4.53
4.05
3.66
3.36
3.18
3.07
2.97
2.77
2.42
1.88
1.16
0.25
-0.88
-2.25
-3.90
-5.75
-7.65
-9.41
-10.77
-11.54
-11.56
-10.82
-9.38
-7.41
-5.13
-2.77
-0.53
1.45
3.06
4.22
4.89
5.08
4.89
4.50
4.14
3.97
4.04
4.30
4.59
4.73
4.61
4.19
3.53
2.72
1.88
1.09
0.37
-0.30
-1.01
-1.87
-2.98
-4.36
-5.91
-7.42
-8.57
-9.06
-8.70
-7.47
-5.55
-3.23
-0.84
1.37
3.26
4.78
5.94
6.75
7.22
7.34
7.11
6.62
6.03
5.51
5.21
5.19
5.35
5.49
5.45
5.17
4.71
4.19
3.71
3.22
2.59
1.66
0.35
-1.29
-3.15
-5.06
-6.86
-8.39
-9.45
-9.83
-9.35
-7.96
-5.80
-3.18
-0.48
1.96
3.92
5.34
6.21
6.58
6.50
6.02
5.26
4.36
3.52
2.93
2.71
2.83
3.15
3.44
3.48
3.17
2.53
1.72
0.93
0.29
-0.15
-0.46
-0.80
-1.28
-2.01
-3.00
-4.21
-5.50
-6.73
-7.70
-8.22
-8.16
-7.47
-6.23
-4.60
-2.77
-0.93
0.81
2.38
3.76
4.89
5.71
6.13
6.10
5.68
4.98
4.21
3.56
3.19
3.12
3.27
3.44
3.46
3.20
2.68
2.00
1.28
0.58
-0.12
-0.88
-1.80
-2.88
-4.08
-5.33
-6.56
-7.69
-8.63
-9.26
-9.42
-8.95
-7.77
-5.92
-3.60
-1.09
1.34
3.48
5.21
6.51
7.37
7.80
7.80
7.38
6.68
5.87
5.20
4.84
4.83
5.08
5.36
5.45
5.21
4.58
3.66
2.59
1.51
0.52
-0.33
-1.09
-1.79
-2.51
-3.33
-4.28
-5.38
-6.57
-7.67
-8.44
-8.63
-8.11
-6.86
-5.04
-2.89
-0.65
1.43
3.15
4.38
4.96
4.90
4.29
3.38
2.51
1.96
1.85
2.12
2.59
3.05
3.32
3.33
3.07
2.56
1.86
1.04
0.18
-0.62
-1.31
-1.88
-2.36
-2.81
-3.22
-3.62
-4.02
-4.47
-5.03
-5.73
-6.47
-6.99
-7.01
-6.29
-4.85
-2.93
-0.89
0.90
2.24
3.14
3.74
4.17
4.52
4.77
4.90
4.93
4.91
4.87
4.85
4.79
4.64
4.37
4.01
3.63
3.28
2.98
2.68
2.30
1.76
1.04
0.14
-0.90
-2.07
-3.38
-4.85
-6.42
-7.94
-9.21
-10.00
-10.10
-9.46
-8.12
-6.28
-4.17
-2.05
-0.13
1.48
2.75
3.70
4.40
4.90
5.23
5.37
5.30
4.98
4.43
3.74
3.03
2.47
2.17
2.16
2.35
2.56
2.58
2.32
1.73
0.91
-0.04
-1.02
-2.04
-3.11
-4.31
-5.64
-7.08
-8.57
-10.01
-11.27
-12.21
-12.64
-12.40
-11.43
-9.78
-7.63
-5.24
-2.93
-0.90
0.69
1.79
2.42
2.62
2.47
2.09
1.63
1.22
0.99
1.00
1.26
1.74
2.36
2.97
3.40
3.48
3.08
2.25
1.15
0.03
-0.93
-1.64
-2.16
-2.61
-3.12
-3.76
-4.51
-5.32
-6.13
-6.85
-7.33
-7.36
-6.74
-5.32
-3.19
-0.61
2.04
4.33
6.03
7.09
7.63
7.86
7.92
7.83
7.54
6.98
6.21
5.42
4.86
4.74
5.12
5.86
6.74
7.48
7.90
7.91
7.59
7.07
6.54
6.17
6.02
6.03
6.02
5.77
5.12
4.02
2.59
1.03
-0.34
-1.20
-1.32
-0.64
0.65
2.10
3.10
3.17
2.16
0.36
-1.51
-2.67
-2.56
-1.19
0.96
3.10
4.51
4.78
3.91
2.22
0.12
-2.01
-3.88
-5.23
-5.87
-5.57
-4.29
-2.17
0.39
2.81
4.53
5.16
4.62
3.02
0.72
-1.98
-4.79
-7.46
-9.76
-11.44
-12.25
-11.99
-10.63
-8.32
-5.41
-2.33
0.52
2.85
4.55
5.59
6.07
6.08
5.70
5.05
4.29
3.61
3.21
3.20
3.54
4.03
4.40
4.38
3.82
2.74
1.33
-0.20
-1.65
-2.93
-4.02
-4.95
-5.70
-6.25
-6.56
-6.65
-6.63
-6.59
-6.62
-6.67
-6.54
-6.00
-4.90
-3.27
-1.35
0.50
1.95
2.80
3.07
2.92
2.59
2.29
2.16
2.24
2.49
2.82
3.13
3.33
3.43
3.42
3.31
3.12
2.82
2.37
1.78
1.09
0.40
-0.19
-0.65
-0.95
-1.15
-1.31
-1.54
-1.98
-2.73
-3.82
-5.15
-6.49
-7.49
-7.88
-7.48
-6.29
-4.48
-2.32
-0.12
1.87
3.47
4.55
5.07
5.08
4.68
4.02
3.26
2.55
1.98
1.62
1.51
1.64
1.95
2.29
2.52
2.46
2.08
1.45
0.73
0.14
-0.23
-0.34
-0.30
-0.31
-0.56
-1.26
-2.53
-4.37
-6.59
-8.80
-10.47
-11.10
-10.40
-8.36
-5.34
-1.88
1.43
4.09
5.78
6.42
6.10
5.06
3.61
2.07
0.70
-0.34
-0.97
-1.17
-1.01
-0.55
0.05
0.57
0.84
0.77
0.38
-0.14
-0.61
-0.94
-1.18
-1.50
-2.04
-2.88
-3.92
-5.01
-5.98
-6.72
-7.18
-7.36
-7.22
-6.68
-5.70
-4.28
-2.57
-0.83
0.68
1.69
2.07
1.87
1.32
0.67
0.15
-0.12
-0.18
-0.13
-0.11
-0.16
-0.24
-0.26
-0.16
0.04
0.25
0.30
0.09
-0.44
-1.24
-2.21
-3.23
-4.18
-5.04
-5.85
-6.70
-7.67
-8.79
-9.94
-10.88
-11.33
-11.06
-10.00
-8.24
-6.07
-3.79
-1.67
0.07
1.36
2.16
2.53
2.57
2.41
2.15
1.91
1.72
1.63
1.67
1.84
2.13
2.46
2.71
2.76
2.53
2.08
1.57
1.22
1.16
1.37
1.66
1.75
1.38
0.47
-0.89
-2.38
-3.62
-4.30
-4.23
-3.44
-2.10
-0.48
1.20
2.77
4.14
5.29
6.20
6.83
7.17
7.20
6.98
6.60
6.18
5.82
5.56
5.39
5.28
5.18
5.09
5.01
4.95
4.91
4.88
4.84
4.71
4.42
3.87
3.03
1.92
0.60
-0.81
-2.21
-3.49
-4.51
-5.14
-5.27
-4.77
-3.67
-2.05
-0.09
2.03
4.14
6.13
7.87
9.23
10.05
10.23
9.80
8.93
7.93
7.02
6.36
5.89
5.47
4.93
4.20
3.33
2.40
1.49
0.56
-0.45
-1.65
-3.02
-4.49
-5.92
-7.15
-8.09
-8.67
-8.90
-8.78
-8.34
-7.62
-6.62
-5.35
-3.83
-2.11
-0.29
1.46
2.98
4.14
4.88
5.19
5.12
4.73
4.12
3.41
2.78
2.36
2.23
2.34
2.61
2.85
2.92
2.72
2.21
1.38
0.30
-0.93
-2.19
-3.44
-4.68
-5.99
-7.45
-9.04
-10.54
-11.58
-11.75
-10.83
-8.85
-6.12
-3.12
-0.30
2.02
3.74
4.90
5.54
5.70
5.38
4.65
3.66
2.66
1.91
1.58
1.66
1.98
2.29
2.37
2.14
1.67
1.09
0.53
-0.01
-0.58
-1.31
-2.29
-3.50
-4.82
-6.10
-7.22
-8.11
-8.72
-8.97
-8.77
-8.02
-6.67
-4.80
-2.64
-0.43
1.54
3.10
4.15
4.69
4.77
4.48
3.95
3.33
2.76
2.31
2.00
1.73
1.40
0.91
0.28
-0.43
-1.13
-1.73
-2.21
-2.64
-3.07
-3.57
-4.20
-5.02
-6.09
-7.39
-8.87
-10.32
-11.45
-11.95
-11.59
-10.32
-8.30
-5.85
-3.31
-0.96
1.03
2.63
3.87
4.79
5.36
5.55
5.37
4.88
4.18
3.46
2.89
2.56
2.53
2.72
3.02
3.25
3.27
3.00
2.48
1.79
1.10
0.49
0.01
-0.46
-1.04
-1.82
-2.77
-3.81
-4.78
-5.56
-6.03
-6.11
-5.72
-4.74
-3.15
-1.03
1.42
3.89
6.06
7.67
8.59
8.81
8.44
7.68
6.78
6.00
5.53
5.46
5.72
6.14
6.49
6.62
6.49
6.16
5.70
5.14
4.49
3.72
2.84
1.87
0.88
-0.09
-1.02
-1.95
-2.89
-3.87
-4.85
-5.77
-6.51
-6.91
-6.81
-6.08
-4.72
-2.83
-0.64
1.60
3.70
5.53
7.03
8.13
8.74
8.82
8.34
7.45
6.34
5.31
4.57
4.21
4.17
4.28
4.36
4.27
4.01
3.61
3.11
2.51
1.78
0.89
-0.15
-1.23
-2.25
-3.08
-3.76
-4.41
-5.18
-6.14
-7.19
-8.08
-8.47
-8.13
-6.97
-5.14
-2.89
-0.52
1.73
3.71
5.34
6.52
7.21
7.39
7.11
6.54
5.85
5.22
4.77
4.54
4.53
4.69
4.93
5.13
5.17
4.91
4.28
3.33
2.13
0.85
-0.40
-1.49
-2.39
-3.08
-3.60
-4.03
-4.49
-5.12
-5.98
-7.07
-8.23
-9.22
-9.73
-9.56
-8.60
-6.91
-4.69
-2.20
0.26
2.44
4.14
5.28
5.89
6.05
5.88
5.50
4.98
4.37
3.77
3.28
3.01
3.04
3.36
3.87
4.37
4.67
4.61
4.13
3.26
2.09
0.73
-0.68
-2.05
-3.31
-4.46
-5.56
-6.70
-7.95
-9.27
-10.54
-11.55
-12.07
-11.94
-11.11
-9.64
-7.66
-5.40
-3.07
-0.87
1.03
2.52
3.53
4.07
4.22
4.11
3.90
3.76
3.80
4.04
4.41
4.74
4.88
4.78
4.50
4.15
3.87
3.68
3.48
3.10
2.43
1.46
0.31
-0.86
-1.92
-2.86
-3.74
-4.66
-5.69
-6.85
-8.06
-9.24
-10.28
-11.03
-11.32
-11.00
-9.95
-8.19
-5.87
-3.31
-0.88
1.10
2.45
3.11
3.24
3.01
2.63
2.25
1.94
1.72
1.61
1.55
1.55
1.57
1.57
1.49
1.30
0.96
0.49
-0.06
-0.60
-1.10
-1.56
-2.00
-2.52
-3.16
-3.97
-4.93
-5.98
-7.05
-8.07
-8.95
-9.61
-9.94
-9.82
-9.16
-7.91
-6.11
-3.91
-1.55
0.67
2.52
3.86
4.74
5.26
5.57
5.77
5.90
5.94
5.86
5.66
5.40
5.13
4.93
4.84
4.85
4.91
4.96
4.92
4.72
4.34
3.86
3.35
2.90
2.54
2.24
1.92
1.47
0.78
-0.20
-1.45
-2.87
-4.29
-5.46
-6.15
-6.18
-5.48
-4.08
-2.15
0.09
2.37
4.48
6.19
7.37
7.94
7.95
7.55
6.94
6.31
5.79
5.45
5.25
5.15
5.14
5.19
5.28
5.37
5.39
5.31
5.08
4.73
4.26
3.66
2.88
1.93
0.79
-0.46
-1.78
-3.06
-4.28
-5.39
-6.35
-7.06
-7.38
-7.12
-6.16
-4.48
-2.25
0.24
2.63
4.59
5.93
6.60
6.69
6.34
5.71
4.90
4.01
3.15
2.41
1.90
1.63
1.53
1.47
1.28
0.87
0.23
-0.58
-1.44
-2.22
-2.85
-3.33
-3.70
-4.03
-4.40
-4.84
-5.38
-6.09
-7.04
-8.29
-9.81
-11.45
-12.90
-13.81
-13.87
-12.91
-11.00
-8.37
-5.36
-2.29
0.57
3.00
4.85
6.00
6.40
6.10
5.28
4.20
3.15
2.35
1.93
1.88
2.09
2.44
2.76
2.93
2.84
2.43
1.70
0.73
-0.37
-1.44
-2.40
-3.21
-3.95
-4.71
-5.60
-6.68
-7.97
-9.40
-10.81
-11.95
-12.55
-12.33
-11.11
-8.90
-5.91
-2.54
0.74
3.51
5.53
6.72
7.12
6.91
6.27
5.42
4.53
3.76
3.19
2.86
2.70
2.61
2.49
2.24
1.83
1.26
0.57
-0.20
-0.99
-1.77
-2.51
-3.19
-3.84
-4.47
-5.15
-5.92
-6.81
-7.76
-8.67
-9.33
-9.49
-8.94
-7.55
-5.31
-2.39
0.98
4.46
7.75
10.60
12.86
14.47
15.50
16.03
16.21
16.13
15.89
15.52
15.03
14.41
13.64
12.76
11.79
10.82
9.91
9.07
8.24
7.32
6.22
4.89
3.36
1.68
-0.04
-1.72
-3.24
-4.42
-5.07
-5.01
-4.21
-2.71
-0.72
1.53
3.75
5.72
7.24
8.09
8.14
7.31
5.69
3.48
0.99
-1.47
-3.67
-5.46
-6.78
-7.62
-8.01
-7.98
-7.58
-6.94
-6.20
-5.55
-5.13
-4.93
-4.84
-4.70
-4.39
-3.96
-3.65
-3.78
-4.62
-6.28
-8.63
-11.33
-13.97
-16.10
-17.41
-17.73
-17.07
-15.58
-13.51
-11.17
-8.87
-6.88
-5.44
-4.77
-5.04
-6.26
-8.28
-10.80
-13.36
-15.54
-16.94
-17.24
-16.17
-13.50
-9.22
-3.58
2.77
8.89
13.73
16.42
16.52
14.01
9.24
2.76
-4.79
-12.65
-19.94
-25.76
-29.41
-30.55
-29.31
-26.20
-21.84
-16.71
-11.10
-5.21
0.71
6.21
10.78
14.02
15.76
16.23
15.91
15.41
15.32
16.10
17.95
20.72
23.91
26.74
28.43
28.50
26.93
24.13
20.77
17.42
14.39
11.71
9.20
6.60
3.74
0.62
-2.58
-5.51
-7.69
-8.67
-8.15
-6.14
-2.95
0.88
4.81
8.38
11.31
13.40
14.48
14.39
13.02
10.42
6.87
2.80
-1.37
-5.29
-8.83
-12.05
-15.07
-17.99
-20.74
-23.13
-24.81
-25.44
-24.77
-22.82
-19.83
-16.27
-12.74
-9.79
-7.75
-6.71
-6.52
-6.84
-7.29
-7.52
-7.30
-6.57
-5.38
-3.89
-2.23
-0.47
1.36
3.27
5.22
7.10
8.71
9.93
10.70
11.10
11.26
11.30
11.29
11.22
11.04
10.73
10.31
9.78
9.16
8.37
7.37
6.13
4.72
3.28
1.94
0.78
-0.19
-0.99
-1.60
-1.89
-1.71
-0.90
0.54
2.44
4.50
6.36
7.75
8.56
8.78
8.55
8.00
7.22
6.22
4.99
3.54
1.92
0.30
-1.12
-2.19
-2.85
-3.21
-3.45
-3.76
-4.23
-4.84
-5.49
-6.15
-6.81
-7.51
-8.20
-8.66
-8.55
-7.48
-5.28
-2.04
1.82
5.74
9.16
11.73
13.35
14.14
14.36
14.31
14.24
14.39
14.83
15.53
16.29
16.81
16.76
15.87
14.01
11.20
7.69
3.87
0.29
-2.50
-4.00
-4.01
-2.58
-0.07
2.93
5.77
7.79
8.39
7.06
3.53
-2.17
-9.53
-17.56
-24.86
-29.96
-31.63
-29.20
-22.89
-13.69
-3.17
6.88
14.96
20.23
22.63
22.79
21.66
20.15
18.88
18.08
17.70
17.60
17.60
17.54
17.26
16.63
15.59
14.23
12.81
11.74
11.41
11.98
13.36
15.07
16.47
16.86
15.77
13.07
9.08
4.48
0.10
-3.38
-5.60
-6.63
-6.86
-6.76
-6.68
-6.74
-6.83
-6.78
-6.46
-5.90
-5.27
-4.77
-4.56
-4.74
-5.37
-6.47
-7.94
-9.27
-9.45
-7.18
-1.36
8.10
20.05
32.38
42.90
50.37
54.86
57.49
59.58
61.78
63.91
65.23
65.15
63.64
61.18
58.38
55.61
53.00
50.70
49.09
48.79
50.28
53.55
57.97
62.47
66.05
68.11
68.59
67.83
66.22
64.07
61.51
58.72
56.01
53.73
52.09
50.92
49.66
47.59
44.27
39.76
34.67
29.77
25.56
22.08
18.90
15.57
11.84
7.83
3.90
0.32
-2.85
-5.81
-8.83
-12.01
-15.25
-18.27
-20.80
-22.71
-24.00
-24.76
-25.07
-24.97
-24.64
-24.43
-25.00
-27.11
-31.31
-37.60
-45.35
-53.42
-60.64
-66.30
-70.48
-73.90
-77.51
-82.01
-87.39
-92.92
-97.29
-98.95
-96.75
-90.06
-79.29
-65.80
-51.66
-39.18
-30.24
-25.78
-25.16
-26.03
-24.73
-17.42
-1.71
21.95
49.80
75.65
92.84
96.63
85.77
62.76
32.64
1.19
-26.85
-48.61
-63.14
-70.75
-72.47
-69.62
-63.70
-56.46
-49.69
-44.93
-43.28
-44.82
-48.60
-52.91
-55.88
-56.27
-54.06
-50.48
-47.46
-46.74
-49.06
-53.84
-59.49
-64.12
-66.29
-65.49
-62.13
-57.16
-51.50
-45.68
-39.71
-33.26
-25.95
-17.46
-7.63
3.70
16.63
31.01
46.14
60.68
72.84
80.99
84.29
83.02
78.41
71.93
64.66
56.85
48.20
38.29
27.19
15.56
4.41
-5.41
-13.57
-20.26
-25.96
-31.01
-35.50
-39.22
-41.90
-43.29
-43.34
-42.10
-39.69
-36.27
-32.07
-27.40
-22.74
-18.68
-15.81
-14.46
-14.59
-15.63
-16.71
-16.89
-15.56
-12.73
-9.04
-5.57
-3.30
-2.63
-3.11
-3.59
-2.71
0.44
5.89
12.71
19.47
24.78
27.73
28.05
25.94
21.93
16.53
10.34
3.88
-2.34
-8.04
-13.06
-17.29
-20.54
-22.44
-22.72
-21.45
-19.25
-17.11
-16.00
-16.33
-17.77
-19.49
-20.62
-20.79
-20.17
-19.26
-18.47
-17.79
-16.88
-15.32
-13.05
-10.48
-8.40
-7.65
-8.78
-11.79
-16.23
-21.32
-26.23
-30.28
-33.06
-34.47
-34.59
-33.63
-31.84
-29.49
-26.85
-24.17
-21.78
-19.97
-18.98
-18.96
-19.81
-21.28
-22.93
-24.27
-24.88
-24.48
-23.02
-20.72
-17.96
-15.20
-12.82
-11.01
-9.75
-8.90
-8.32
-7.94
-7.79
-7.93
-8.34
-8.89
-9.37
-9.60
-9.51
-9.28
-9.30
-10.06
-12.05
-15.40
-19.83
-24.59
-28.69
-31.33
-32.31
-32.21
-32.27
-33.94
-38.29
-45.55
-54.97
-64.92
-73.48
-78.87
-80.09
-77.15
-71.13
-63.87
-57.41
-53.28
-51.86
-52.03
-51.42
-47.05
-36.45
-18.66
5.25
32.36
58.86
81.40
98.25
109.84
118.39
126.82
137.43
150.97
166.39
181.34
193.22
200.14
201.48
197.79
190.27
180.07
167.93
154.26
139.37
123.87
108.67
94.77
82.92
73.36
65.83
59.80
54.75
50.42
46.73
43.74
41.43
39.64
38.05
36.28
33.96
30.86
26.92
22.39
17.71
13.45
10.17
8.19
7.56
8.01
9.04
10.10
10.73
10.61
9.67
8.02
5.91
3.70
1.86
0.80
0.81
1.94
3.98
6.51
9.16
11.65
13.96
16.26
18.88
22.18
26.43
31.77
38.13
45.24
52.66
59.92
66.73
72.99
78.83
84.36
89.60
94.40
98.53
101.75
103.75
104.00
101.81
96.57
88.16
77.26
65.18
53.15
41.60
29.73
15.99
-1.07
-21.68
-44.58
-67.54
-88.41
-105.98
-120.25
-131.82
-141.30
-148.81
-154.12
-156.96
-157.36
-155.59
-152.06
-147.02
-140.71
-133.44
-125.74
-118.25
-111.42
-105.43
-100.09
-95.15
-90.55
-86.43
-83.02
-80.31
-77.96
-75.48
-72.45
-68.85
-65.04
-61.53
-58.69
-56.56
-54.87
-53.21
-51.41
-49.53
-47.83
-46.63
-46.06
-46.12
-46.63
-47.41
-48.29
-49.13
-49.75
-49.92
-49.37
-47.82
-45.11
-41.21
-36.32
-30.82
-25.20
-19.94
-15.36
-11.60
-8.61
-6.24
-4.24
-2.34
-0.18
2.55
5.96
9.89
13.81
17.06
19.07
19.68
19.19
18.22
17.42
17.15
17.41
17.89
18.27
18.30
17.90
17.07
15.79
14.04
11.76
8.98
5.80
2.37
-1.15
-4.51
-7.43
-9.48
-10.25
-9.48
-7.21
-3.82
0.08
3.87
7.16
9.86
12.05
13.76
14.85
15.04
14.08
11.98
9.08
5.98
3.31
1.50
0.70
0.75
1.27
1.83
2.09
1.87
1.16
0.13
-0.98
-1.93
-2.59
-2.97
-3.21
-3.59
-4.42
-6.05
-8.76
-12.55
-17.09
-21.61
-25.10
-26.56
-25.41
-21.71
-16.15
-9.79
-3.62
1.70
5.94
9.14
11.42
12.76
13.10
12.34
10.55
7.99
5.06
2.23
-0.14
-1.87
-2.96
-3.60
-4.06
-4.57
-5.24
-6.05
-6.93
-7.82
-8.75
-9.84
-11.19
-12.83
-14.76
-17.00
-19.63
-22.77
-26.33
-29.92
-32.76
-33.91
-32.63
-28.70
-22.55
-15.14
-7.59
-0.87
4.45
8.20
10.49
11.50
11.35
10.15
8.05
5.38
2.64
0.41
-0.82
-0.87
0.09
1.57
3.00
3.91
4.10
3.64
2.79
1.83
0.98
0.27
-0.38
-1.22
-2.56
-4.72
-7.92
-12.15
-17.01
-21.80
-25.53
-27.27
-26.39
-22.75
-16.72
-9.06
-0.73
7.38
14.53
20.17
23.99
25.84
25.79
24.12
21.33
18.03
14.87
12.33
10.72
10.09
10.22
10.72
11.13
11.05
10.30
8.87
6.95
4.75
2.38
-0.20
-3.11
-6.55
-10.65
-15.50
-21.04
-26.98
-32.82
-37.70
-40.59
-40.56
-37.14
-30.56
-21.76
-12.09
-2.84
5.10
11.41
16.12
19.35
21.11
21.34
20.08
17.67
14.79
12.28
10.78
10.51
11.18
12.12
12.60
12.17
10.74
8.57
6.09
3.67
1.44
-0.76
-3.21
-6.25
-10.14
-15.00
-20.78
-27.26
-33.91
-39.90
-44.17
-45.65
-43.66
-38.17
-29.88
-19.98
-9.79
-0.32
7.84
14.48
19.56
23.04
24.83
24.99
23.81
21.85
19.86
18.49
18.06
18.55
19.53
20.41
20.67
19.97
18.23
15.67
12.60
9.35
6.15
3.02
-0.19
-3.80
-8.16
-13.55
-20.00
-27.16
-34.19
-39.90
-42.98
-42.44
-37.94
-29.98
-19.73
-8.69
1.78
10.86
18.20
23.83
27.87
30.35
31.23
30.58
28.75
26.36
24.18
22.80
22.48
22.99
23.80
24.28
24.00
22.80
20.78
18.22
15.35
12.33
9.19
5.86
2.18
-2.04
-6.97
-12.74
-19.26
-26.15
-32.60
-37.51
-39.66
-38.16
-32.75
-24.00
-13.13
-1.66
9.02
17.98
24.85
29.66
32.62
33.97
33.95
32.89
31.24
29.55
28.33
27.90
28.24
29.05
29.84
30.10
29.50
27.88
25.33
22.12
18.58
14.98
11.45
7.94
4.25
0.06
-4.92
-10.86
-17.74
-25.26
-32.75
-39.19
-43.37
-44.14
-40.82
-33.47
-22.95
-10.66
1.80
13.12
22.44
29.41
34.11
36.81
37.90
37.75
36.75
35.28
33.68
32.26
31.23
30.70
30.61
30.73
30.77
30.38
29.29
27.35
24.52
20.90
16.67
12.07
7.36
2.81
-1.45
-5.44
-9.40
-13.68
-18.67
-24.52
-30.97
-37.22
-42.06
-44.15
-42.44
-36.63
-27.23
-15.56
-3.22
8.29
18.02
25.56
30.92
34.33
36.00
36.15
35.06
33.16
30.99
29.13
27.99
27.69
28.04
28.55
28.68
27.99
26.32
23.80
20.73
17.42
14.06
10.65
7.12
3.39
-0.54
-4.66
-9.06
-13.97
-19.69
-26.32
-33.45
-40.08
-44.76
-46.08
-43.18
-36.17
-26.05
-14.41
-2.83
7.47
15.88
22.29
26.83
29.72
31.16
31.39
30.71
29.55
28.32
27.39
26.94
26.98
27.33
27.67
27.67
27.06
25.73
23.69
21.13
18.17
14.92
11.38
7.53
3.40
-0.94
-5.40
-10.03
-15.02
-20.62
-26.86
-33.26
-38.79
-42.06
-41.77
-37.31
-29.06
-18.33
-6.93
3.54
12.10
18.57
23.27
26.60
28.76
29.68
29.23
27.53
25.05
22.49
20.51
19.46
19.26
19.50
19.65
19.27
18.10
16.10
13.34
10.03
6.42
2.75
-0.79
-4.12
-7.28
-10.48
-14.02
-18.25
-23.37
-29.31
-35.54
-41.03
-44.48
-44.67
-40.92
-33.43
-23.26
-11.99
-1.21
8.00
15.19
20.44
24.04
26.20
27.03
26.54
24.97
22.74
20.46
18.70
17.81
17.79
18.28
18.75
18.65
17.62
15.54
12.59
9.12
5.47
1.86
-1.75
-5.47
-9.54
-14.06
-19.09
-24.62
-30.58
-36.77
-42.64
-47.34
-49.72
-48.74
-43.86
-35.38
-24.43
-12.62
-1.52
7.76
14.79
19.71
22.87
24.59
25.11
24.60
23.28
21.53
19.84
18.61
18.07
18.11
18.39
18.39
17.70
16.12
13.76
10.90
7.87
4.87
1.90
-1.19
-4.60
-8.52
-13.03
-18.20
-24.07
-30.61
-37.58
-44.35
-49.85
-52.77
-51.96
-46.93
-38.13
-26.87
-14.94
-3.95
5.08
11.94
16.96
20.64
23.31
24.98
25.56
25.10
23.89
22.50
21.48
21.14
21.36
21.71
21.65
20.73
18.82
16.01
12.58
8.85
5.06
1.36
-2.18
-5.60
-9.01
-12.63
-16.83
-21.94
-28.06
-34.90
-41.63
-46.98
-49.60
-48.49
-43.35
-34.78
-24.02
-12.65
-2.02
6.94
13.91
18.94
22.29
24.21
24.94
24.70
23.77
22.56
21.48
20.89
20.94
21.54
22.33
22.87
22.70
21.57
19.41
16.45
12.98
9.33
5.70
2.13
-1.51
-5.45
-9.94
-15.21
-21.32
-28.04
-34.74
-40.42
-43.90
-44.11
-40.51
-33.31
-23.48
-12.43
-1.58
8.00
15.80
21.75
25.97
28.61
29.70
29.32
27.70
25.32
22.85
20.93
19.91
19.70
19.89
19.90
19.23
17.64
15.18
12.12
8.78
5.43
2.17
-1.04
-4.42
-8.21
-12.70
-18.13
-24.59
-31.88
-39.42
-46.21
-50.97
-52.45
-49.91
-43.46
-34.04
-23.25
-12.72
-3.71
3.25
8.35
12.13
15.18
17.84
20.20
22.22
23.85
25.20
26.45
27.79
29.26
30.71
31.85
32.31
31.83
30.28
27.73
24.37
20.42
16.10
11.65
7.22
2.92
-1.33
-5.76
-10.76
-16.66
-23.41
-30.42
-36.55
-40.38
-40.76
-37.19
-30.07
-20.53
-10.00
0.24
9.30
16.77
22.45
26.24
28.07
27.98
26.29
23.60
20.71
18.40
17.17
17.14
18.03
19.24
20.07
19.95
18.58
16.05
12.72
9.08
5.48
2.05
-1.39
-5.14
-9.52
-14.72
-20.80
-27.62
-34.83
-41.71
-47.23
-50.22
-49.70
-45.22
-37.14
-26.55
-14.90
-3.61
6.35
14.50
20.79
25.31
28.17
29.42
29.19
27.79
25.70
23.54
21.84
20.87
20.56
20.55
20.34
19.54
18.01
15.81
13.21
10.41
7.57
4.67
1.64
-1.63
-5.23
-9.23
-13.80
-19.14
-25.36
-32.22
-39.04
-44.62
-47.58
-46.83
-41.98
-33.61
-23.01
-11.80
-1.32
7.71
15.13
21.11
25.87
29.36
31.43
31.99
31.21
29.60
27.86
26.57
26.03
26.11
26.36
26.27
25.45
23.74
21.24
18.19
14.84
11.38
7.88
4.31
0.59
-3.35
-7.62
-12.30
-17.45
-23.07
-28.94
-34.52
-38.93
-41.10
-40.09
-35.50
-27.69
-17.73
-7.12
2.73
10.90
17.11
21.60
24.79
26.96
28.19
28.45
27.74
26.31
24.62
23.21
22.49
22.54
23.05
23.52
23.43
22.48
20.70
18.33
15.69
12.96
10.14
7.14
3.85
0.24
-3.66
-7.84
-12.43
-17.63
-23.57
-29.99
-36.11
-40.68
-42.37
-40.27
-34.33
-25.39
-14.90
-4.42
4.88
12.46
18.24
22.40
25.09
26.37
26.35
25.28
23.65
22.07
21.04
20.77
21.12
21.67
21.91
21.42
20.06
17.88
15.17
12.19
9.16
6.17
3.21
0.18
-2.99
-6.42
-10.21
-14.50
-19.42
-24.91
-30.61
-35.73
-39.17
-39.90
-37.28
-31.41
-23.10
-13.63
-4.28
4.01
10.78
15.97
19.71
22.05
23.01
22.64
21.16
19.03
16.82
15.05
14.07
13.88
14.21
14.61
14.66
14.00
12.53
10.30
7.49
4.35
1.11
-2.04
-5.04
-7.93
-10.95
-14.45
-18.83
-24.29
-30.67
-37.26
-42.94
-46.46
-46.83
-43.73
-37.64
-29.69
-21.31
-13.74
-7.83
-3.88
-1.81
-1.28
-1.80
-2.84
-3.92
-4.73
-5.20
-5.49
-5.82
-6.22
-6.58
-6.64
-6.25
-5.54
-4.86
-4.52
-4.68
-5.18
-5.73
-6.10
-6.31
-6.65
-7.58
-9.53
-12.77
-17.38
-23.18
-29.65
-35.91
-40.86
-43.48
-43.21
-40.21
-35.37
-29.92
-25.05
-21.47
-19.39
-18.63
-18.92
-20.09
-22.03
-24.42
-26.57
-27.32
-25.49
-20.34
-12.01
-1.51
9.71
20.35
29.76
37.91
45.04
51.17
55.87
58.43
58.31
55.52
50.60
44.36
37.43
30.10
22.49
14.95
8.29
3.65
2.07
3.85
8.46
14.59
20.84
26.17
30.25
33.24
35.40
36.86
37.44
36.97
35.47
33.36
31.29
29.89
29.52
30.09
31.23
32.46
33.37
33.74
33.50
32.73
31.52
29.93
27.98
25.60
22.69
19.08
14.58
9.02
2.32
-5.42
-13.78
-21.98
-29.03
-33.98
-36.29
-35.95
-33.47
-29.67
-25.39
-21.21
-17.47
-14.32
-11.88
-10.31
-9.72
-10.04
-10.99
-12.06
-12.74
-12.67
-11.76
-10.22
-8.52
-7.19
-6.68
-7.24
-8.83
-11.18
-13.87
-16.54
-18.98
-21.20
-23.38
-25.76
-28.56
-31.84
-35.42
-38.86
-41.47
-42.42
-40.97
-36.69
-29.68
-20.60
-10.53
-0.62
8.24
15.54
21.23
25.45
28.40
30.27
31.24
31.63
31.82
32.25
33.21
34.69
36.44
38.03
39.10
39.42
38.98
37.74
35.60
32.20
27.04
19.67
10.06
-1.26
-13.19
-24.35
-33.56
-40.16
-44.09
-45.77
-45.68
-44.28
-41.90
-38.97
-35.99
-33.47
-31.64
-30.31
-28.92
-26.87
-23.87
-20.15
-16.40
-13.41
-11.70
-11.31
-11.82
-12.53
-12.73
-11.94
-10.03
-7.23
-4.10
-1.29
0.65
1.45
1.14
-0.02
-1.73
-3.80
-6.16
-8.77
-11.50
-14.00
-15.71
-16.01
-14.47
-10.98
-5.82
0.45
7.23
14.12
20.92
27.56
33.86
39.40
43.51
45.48
44.88
41.84
37.06
31.71
27.10
24.26
23.65
25.00
27.47
29.92
31.35
31.18
29.44
26.57
23.21
19.94
17.09
14.68
12.44
9.81
6.05
0.42
-7.34
-16.72
-26.30
-34.05
-38.07
-37.38
-32.36
-24.66
-16.45
-9.54
-4.78
-1.98
-0.34
0.93
2.14
3.09
3.36
2.69
1.19
-0.69
-2.35
-3.43
-3.95
-4.34
-5.16
-6.83
-9.33
-12.26
-14.95
-16.86
-17.83
-18.22
-18.76
-20.22
-23.07
-27.22
-32.02
-36.46
-39.47
-40.24
-38.43
-34.21
-28.10
-20.88
-13.33
-6.11
0.31
5.61
9.56
11.99
12.80
12.08
10.13
7.56
5.11
3.46
2.97
3.54
4.69
5.74
6.17
5.76
4.62
3.07
1.44
-0.08
-1.47
-2.88
-4.55
-6.74
-9.70
-13.50
-17.98
-22.61
-26.60
-29.06
-29.27
-26.94
-22.33
-16.13
-9.20
-2.33
3.91
9.22
13.38
16.21
17.53
17.34
15.89
13.74
11.66
10.31
10.06
10.82
12.10
13.19
13.47
12.65
10.82
8.38
5.77
3.24
0.76
-1.95
-5.25
-9.38
-14.33
-19.82
-25.35
-30.30
-33.94
-35.58
-34.73
-31.24
-25.54
-18.44
-11.01
-4.17
1.48
5.76
8.73
10.50
11.21
10.98
10.07
8.86
7.81
7.32
7.47
8.09
8.78
9.14
8.89
8.00
6.64
5.09
3.57
2.13
0.68
-1.06
-3.39
-6.56
-10.67
-15.53
-20.66
-25.30
-28.60
-29.74
-28.25
-24.15
-17.90
-10.36
-2.42
5.08
11.55
16.65
20.17
22.09
22.48
21.62
19.93
17.98
16.28
15.20
14.78
14.80
14.81
14.43
13.44
11.90
10.04
8.12
6.29
4.55
2.79
0.85
-1.44
-4.23
-7.67
-11.78
-16.33
-20.74
-24.09
-25.39
-23.96
-19.70
-13.16
-5.37
2.54
9.67
15.49
19.83
22.72
24.24
24.47
23.58
21.87
19.78
17.76
16.19
15.18
14.60
14.13
13.38
12.16
10.40
8.22
5.81
3.34
0.85
-1.65
-4.25
-7.06
-10.26
-13.97
-18.21
-22.70
-26.82
-29.71
-30.52
-28.70
-24.25
-17.72
-10.03
-2.19
4.95
10.83
15.10
17.64
18.50
17.87
16.20
14.00
11.86
10.21
9.28
8.97
8.92
8.69
7.94
6.58
4.80
2.98
1.47
0.39
-0.43
-1.40
-2.99
-5.56
-9.20
-13.75
-18.78
-23.59
-27.34
-29.15
-28.35
-24.77
-18.84
-11.51
-3.92
2.95
8.59
12.86
15.88
17.73
18.42
17.93
16.44
14.36
12.32
10.85
10.16
10.12
10.25
10.03
9.14
7.51
5.34
2.99
0.75
-1.29
-3.24
-5.45
-8.34
-12.21
-17.03
-22.36
-27.37
-31.04
-32.49
-31.30
-27.54
-21.81
-14.92
-7.67
-0.68
5.64
11.00
15.12
17.75
18.77
18.30
16.75
14.82
13.24
12.67
13.34
15.07
17.16
18.62
18.49
16.13
11.48
5.05
-2.34
-9.95
-17.39
-24.68
-32.04
-39.58
-47.07
-53.92
-59.42
-62.92
-64.13
-63.11
-60.26
-56.14
-51.30
-46.17
-40.96
-35.66
-30.08
-24.09
-17.75
-11.40
-5.69
-1.24
1.61
3.10
4.00
5.31
7.87
11.90
16.95
22.04
26.14
28.56
29.13
28.07
25.75
22.43
18.26
13.46
8.44
3.83
0.34
-1.49
-1.35
0.86
5.15
11.44
19.57
29.02
38.93
48.18
55.80
61.12
64.05
64.84
63.88
61.53
58.02
53.66
48.91
44.37
40.69
38.29
37.23
37.06
37.11
36.65
35.25
32.81
29.60
26.03
22.40
18.72
14.71
10.04
4.42
-2.09
-9.18
-16.27
-22.70
-27.85
-31.17
-32.28
-30.97
-27.41
-22.04
-15.60
-8.93
-2.73
2.47
6.48
9.24
10.87
11.51
11.34
10.56
9.41
8.12
6.78
5.41
3.85
1.92
-0.53
-3.50
-6.83
-10.26
-13.55
-16.54
-19.22
-21.69
-24.13
-26.79
-29.94
-33.76
-38.24
-43.01
-47.29
-50.02
-50.20
-47.29
-41.50
-33.76
-25.46
-17.91
-12.01
-8.10
-6.10
-5.74
-6.74
-8.81
-11.60
-14.59
-17.18
-18.84
-19.23
-18.29
-16.09
-12.71
-8.21
-2.68
3.41
9.21
13.47
14.94
12.80
7.08
-1.37
-11.08
-20.40
-28.02
-33.07
-35.25
-34.52
-30.97
-24.80
-16.36
-6.31
4.43
14.87
24.46
33.26
41.88
50.88
60.21
68.98
75.85
79.90
81.16
80.68
79.76
79.14
78.58
77.21
74.29
69.89
64.89
60.22
56.16
52.02
46.66
39.33
30.22
20.42
11.14
2.90
-4.76
-12.91
-22.42
-33.22
-44.12
-53.28
-59.05
-60.74
-58.82
-54.59
-49.48
-44.40
-39.53
-34.56
-29.21
-23.63
-18.51
-14.74
-12.95
-13.21
-14.94
-17.25
-19.27
-20.48
-20.71
-20.03
-18.55
-16.40
-13.66
-10.55
-7.44
-4.79
-3.04
-2.50
-3.32
-5.49
-8.94
-13.56
-19.15
-25.27
-31.16
-35.80
-38.22
-37.78
-34.53
-29.27
-23.19
-17.36
-12.26
-7.60
-2.65
3.04
9.19
14.64
18.02
18.52
16.57
13.70
11.82
12.26
15.09
19.21
23.01
25.22
25.41
24.02
21.88
19.72
17.83
16.12
14.21
11.72
8.37
4.09
-1.00
-6.60
-12.25
-17.38
-21.43
-23.89
-24.38
-22.71
-18.94
-13.41
-6.73
0.35
7.05
12.74
17.03
19.78
21.08
21.20
20.55
19.57
18.73
18.35
18.54
19.16
19.86
20.25
19.99
18.99
17.35
15.32
13.17
11.05
8.98
6.88
4.57
1.89
-1.30
-5.05
-9.26
-13.49
-17.08
-19.17
-19.01
-16.28
-11.22
-4.61
2.54
9.28
15.00
19.52
22.86
25.13
26.33
26.45
25.51
23.78
21.66
19.69
18.20
17.30
16.80
16.28
15.36
13.82
11.72
9.33
6.99
4.95
3.24
1.66
-0.12
-2.46
-5.54
-9.41
-13.82
-18.32
-22.26
-24.96
-25.74
-24.22
-20.40
-14.69
-7.80
-0.58
6.21
12.03
16.54
19.59
21.13
21.19
19.92
17.60
14.76
11.97
9.76
8.42
7.94
8.01
8.24
8.25
7.86
7.06
5.96
4.63
3.13
1.41
-0.61
-2.98
-5.76
-8.99
-12.69
-16.76
-20.92
-24.61
-27.12
-27.71
-25.90
-21.65
-15.44
-8.15
-0.78
5.82
11.09
14.81
17.01
17.83
17.46
16.18
14.36
12.48
10.93
9.99
9.57
9.39
9.10
8.46
7.44
6.20
4.93
3.69
2.39
0.79
-1.30
-3.94
-7.00
-10.26
-13.56
-16.80
-19.95
-22.88
-25.31
-26.72
-26.63
-24.73
-21.12
-16.28
-10.85
-5.42
-0.35
4.20
8.07
10.93
12.42
12.29
10.65
8.04
5.24
3.03
1.80
1.54
1.91
2.45
2.79
2.72
2.18
1.19
-0.19
-1.87
-3.74
-5.69
-7.72
-9.93
-12.50
-15.53
-18.98
-22.46
-25.33
-26.86
-26.44
-23.84
-19.28
-13.41
-7.08
-1.09
3.94
7.69
10.02
10.99
10.77
9.65
8.01
6.30
4.89
3.95
3.48
3.20
2.81
2.02
0.77
-0.78
-2.36
-3.66
-4.54
-5.00
-5.24
-5.55
-6.24
-7.58
-9.76
-12.77
-16.32
-19.82
-22.43
-23.37
-22.15
-18.82
-13.95
-8.41
-3.07
1.53
5.17
7.92
9.84
10.96
11.22
10.60
9.28
7.54
5.77
4.26
3.15
2.41
1.92
1.56
1.31
1.20
1.29
1.54
1.77
1.68
0.90
-0.89
-3.77
-7.57
-11.76
-15.54
-18.08
-18.65
-16.91
-13.01
-7.50
-1.21
5.04
10.59
15.16
18.73
21.42
23.28
24.24
24.05
22.48
19.49
15.38
10.79
6.52
3.26
1.34
0.66
0.71
0.85
0.52
-0.52
-2.21
-4.27
-6.43
-8.58
-10.82
-13.46
-16.72
-20.63
-24.84
-28.68
-31.33
-32.13
-30.71
-27.13
-21.80
-15.38
-8.64
-2.34
2.93
6.80
9.16
10.16
10.18
9.64
8.93
8.28
7.78
7.35
6.84
6.08
4.93
3.33
1.35
-0.85
-2.99
-4.87
-6.32
-7.37
-8.28
-9.47
-11.45
-14.53
-18.67
-23.29
-27.46
-30.03
-30.09
-27.25
-21.79
-14.60
-6.89
0.18
5.81
9.68
11.87
12.68
12.40
11.24
9.32
6.86
4.18
1.74
-0.08
-1.12
-1.60
-1.98
-2.70
-4.06
-6.03
-8.42
-11.03
-13.71
-16.35
-18.76
-20.69
-21.87
-22.26
-22.03
-21.44
-20.58
-19.13
-16.53
-12.20
-6.01
1.57
9.57
16.89
22.78
26.95
29.57
30.89
31.07
30.10
28.01
25.03
21.75
18.86
16.89
15.94
15.46
14.57
12.40
8.60
3.52
-1.93
-6.71
-10.29
-12.87
-15.28
-18.47
-22.96
-28.52
-34.14
-38.48
-40.36
-39.21
-35.22
-29.20
-22.16
-14.97
-8.11
-1.72
4.19
9.48
13.82
16.75
18.00
17.70
16.37
14.73
13.40
12.59
12.13
11.69
11.04
10.19
9.38
8.82
8.53
8.31
7.76
6.46
4.07
0.44
-4.40
-10.20
-16.42
-22.31
-26.91
-29.31
-28.86
-25.46
-19.57
-12.20
-4.50
2.52
8.23
12.40
15.11
16.53
16.82
16.13
14.64
12.70
10.69
9.08
8.17
8.08
8.74
9.87
11.06
11.91
12.04
11.28
9.65
7.39
4.79
2.03
-0.93
-4.37
-8.60
-13.62
-19.00
-23.86
-27.12
-27.98
-26.20
-22.20
-16.85
-11.10
-5.54
-0.24
5.09
10.71
16.54
22.06
26.50
29.27
30.25
29.84
28.69
27.40
26.21
24.95
23.28
20.94
17.96
14.57
11.06
7.65
4.39
1.29
-1.56
-3.98
-5.79
-6.97
-7.81
-8.79
-10.35
-12.53
-14.80
-16.27
-16.01
-13.55
-9.05
-3.31
2.68
8.09
12.50
15.82
18.07
19.27
19.39
18.48
16.86
15.18
14.16
14.35
15.89
18.42
21.24
23.54
24.72
24.47
22.84
20.13
16.77
13.17
9.58
6.08
2.55
-1.27
-5.63
-10.74
-16.52
-22.63
-28.39
-32.97
-35.56
-35.61
-33.06
-28.30
-22.09
-15.29
-8.65
-2.66
2.48
6.68
9.89
12.05
13.18
13.36
12.87
12.10
11.53
11.54
12.33
13.87
15.79
17.58
18.66
18.64
17.42
15.24
12.56
9.84
7.44
5.45
3.84
2.37
0.79
-1.20
-3.78
-6.87
-9.98
-12.31
-12.95
-11.25
-7.23
-1.46
5.00
11.19
16.52
20.85
24.37
27.20
29.26
30.28
30.03
28.56
26.28
23.82
21.75
20.32
19.39
18.55
17.35
15.58
13.31
10.85
8.47
6.25
4.02
1.42
-1.84
-5.86
-10.48
-15.42
-20.43
-25.31
-29.86
-33.71
-36.30
-37.00
-35.37
-31.44
-25.74
-19.20
-12.75
-7.11
-2.58
0.83
3.17
4.52
4.85
4.24
2.88
1.18
-0.40
-1.40
-1.59
-1.01
0.03
1.00
1.39
0.85
-0.61
-2.72
-5.07
-7.29
-9.32
-11.37
-13.76
-16.70
-20.09
-23.50
-26.28
-27.92
-28.19
-27.22
-25.29
-22.67
-19.31
-14.95
-9.26
-2.23
5.70
13.61
20.52
25.72
29.03
30.78
31.50
31.61
31.24
30.39
29.11
27.66
26.39
25.54
24.93
24.01
22.08
18.73
14.05
8.72
3.58
-0.67
-3.81
-6.05
-7.88
-9.79
-12.08
-14.93
-18.33
-22.19
-26.17
-29.68
-31.99
-32.35
-30.41
-26.27
-20.58
-14.22
-8.04
-2.64
1.68
4.78
6.70
7.49
7.34
6.57
5.66
5.15
5.53
7.19
10.18
14.16
18.36
21.76
23.47
23.06
20.75
17.34
13.80
10.81
8.56
6.80
5.07
2.97
0.30
-3.01
-7.01
-11.63
-16.55
-21.02
-24.06
-24.77
-22.82
-18.64
-13.23
-7.63
-2.60
1.58
4.97
7.67
9.58
10.55
10.46
9.45
7.89
6.18
4.60
3.14
1.63
-0.11
-2.17
-4.40
-6.34
-7.42
-7.26
-6.00
-4.45
-3.74
-4.76
-7.64
-11.61
-15.42
-18.06
-19.38
-19.99
-20.78
-22.15
-23.57
-23.85
-21.87
-17.29
-10.77
-3.69
2.54
7.07
9.76
11.04
11.41
11.18
10.32
8.70
6.35
3.80
1.89
1.44
2.92
6.03
9.87
13.25
15.26
15.50
14.21
12.01
9.57
7.37
5.58
4.12
2.73
1.10
-1.11
-4.01
-7.48
-11.09
-14.12
-15.85
-15.78
-13.83
-10.37
-6.02
-1.48
2.74
6.32
9.13
11.10
12.11
12.09
11.11
9.47
7.69
6.41
6.06
6.67
7.87
9.06
9.67
9.48
8.63
7.47
6.31
5.15
3.77
1.89
-0.58
-3.36
-6.00
-8.15
-9.83
-11.49
-13.69
-16.73
-20.29
-23.48
-25.17
-24.48
-21.20
-15.79
-9.26
-2.67
3.12
7.72
11.06
13.25
14.40
14.55
13.71
12.05
9.91
7.87
6.46
5.92
6.16
6.67
6.87
6.37
5.16
3.56
2.02
0.82
-0.09
-1.04
-2.42
-4.50
-7.34
-10.83
-14.75
-18.89
-22.98
-26.62
-29.24
-30.19
-28.99
-25.51
-20.18
-13.82
-7.43
-1.85
2.37
5.05
6.22
6.09
4.89
2.97
0.82
-1.09
-2.30
-2.60
-2.05
-0.94
0.42
1.74
2.88
3.86
4.75
5.64
6.57
7.42
7.94
7.76
6.47
3.85
-0.08
-4.88
-9.81
-13.94
-16.45
-16.75
-14.73
-10.76
-5.54
0.05
5.26
9.63
13.01
15.41
16.90
17.52
17.22
16.05
14.27
12.30
10.58
9.45
8.95
8.84
8.77
8.42
7.65
6.49
5.09
3.63
2.17
0.69
-0.93
-2.88
-5.30
-8.26
-11.75
-15.63
-19.62
-23.25
-25.92
-26.98
-25.97
-22.79
-17.74
-11.54
-5.00
1.12
6.27
10.14
12.57
13.52
13.05
11.46
9.24
7.07
5.55
5.01
5.42
6.39
7.34
7.83
7.61
6.70
5.36
3.86
2.39
0.92
-0.73
-2.86
-5.72
-9.40
-13.78
-18.46
-22.85
-26.24
-27.95
-27.54
-24.89
-20.27
-14.29
-7.78
-1.50
3.92
8.05
10.69
11.80
11.49
10.05
7.91
5.61
3.61
2.21
1.44
1.06
0.71
0.08
-0.94
-2.23
-3.49
-4.52
-5.30
-6.07
-7.27
-9.36
-12.58
-16.88
-21.85
-26.77
-30.78
-33.09
-33.13
-30.73
-26.15
-20.04
-13.22
-6.53
-0.64
4.10
7.50
9.66
10.73
10.98
10.65
10.00
9.22
8.37
7.47
6.47
5.31
3.94
2.34
0.51
-1.51
-3.63
-5.80
-7.99
-10.39
-13.20
-16.69
-20.99
-25.84
-30.61
-34.33
-36.06
-35.08
-31.31
-25.26
-17.87
-10.20
-3.07
3.07
8.12
12.08
14.95
16.62
17.06
16.41
15.04
13.54
12.37
11.72
11.36
10.87
9.73
7.71
4.88
1.58
-1.80
-5.01
-8.08
-11.23
-14.68
-18.43
-22.28
-25.77
-28.42
-29.75
-29.41
-27.15
-22.81
-16.51
-8.66
0.01
8.51
15.97
21.77
25.77
28.18
29.46
30.05
30.30
30.45
30.60
30.70
30.69
30.45
29.91
29.08
28.00
26.72
25.20
23.36
20.98
17.83
13.64
8.18
1.43
-6.33
-14.27
-21.25
-25.95
-27.42
-25.30
-20.08
-12.81
-4.79
2.83
9.24
13.98
16.88
17.91
17.24
15.20
12.34
9.28
6.62
4.80
3.91
3.86
4.39
5.20
6.05
6.77
7.18
7.15
6.55
5.29
3.34
0.69
-2.69
-6.84
-11.68
-16.86
-21.69
-25.24
-26.54
-25.00
-20.61
-14.00
-6.20
1.68
8.81
14.75
19.39
22.76
24.92
25.92
25.84
25.00
23.82
22.81
22.25
22.12
22.08
21.63
20.37
18.18
15.26
11.98
8.73
5.85
3.44
1.49
-0.22
-2.07
-4.48
-7.80
-12.11
-17.03
-21.68
-25.02
-26.04
-24.30
-19.99
-13.93
-7.11
-0.49
5.33
10.12
13.80
16.34
17.77
18.28
18.20
17.92
17.70
17.55
17.22
16.40
15.02
13.29
11.65
10.50
9.97
9.89
9.91
9.67
9.00
7.93
6.56
4.91
2.84
0.09
-3.44
-7.61
-11.78
-14.91
-15.93
-14.16
-9.70
-3.48
3.09
8.73
12.71
15.08
16.37
17.17
17.74
17.94
17.49
16.24
14.46
12.73
11.69
11.72
12.72
14.21
15.50
16.00
15.39
13.70
11.28
8.62
6.19
4.20
2.63
1.13
-0.82
-3.64
-7.59
-12.48
-17.73
-22.38
-25.39
-25.87
-23.50
-18.55
-11.95
-4.94
1.32
6.02
8.89
10.18
10.49
10.50
10.73
11.41
12.42
13.41
14.03
14.15
13.87
13.47
13.13
12.79
12.14
10.87
8.87
6.37
3.91
1.93
0.59
-0.42
-1.71
-3.93
-7.38
-11.86
-16.62
-20.65
-22.96
-22.97
-20.67
-16.56
-11.48
-6.25
-1.38
2.94
6.75
10.16
12.97
14.83
15.30
14.10
11.40
7.79
4.11
1.15
-0.59
-1.03
-0.44
0.64
1.67
2.20
1.98
1.00
-0.60
-2.55
-4.64
-6.76
-8.98
-11.47
-14.36
-17.59
-20.91
-23.90
-26.08
-27.04
-26.53
-24.48
-21.01
-16.45
-11.24
-5.81
-0.52
4.34
8.57
11.99
14.42
15.73
15.97
15.42
14.61
14.11
14.30
15.22
16.45
17.37
17.33
15.97
13.33
9.80
5.93
2.25
-0.93
-3.54
-5.81
-8.07
-10.71
-13.97
-17.87
-22.14
-26.21
-29.32
-30.77
-30.08
-27.14
-22.27
-16.11
-9.42
-2.93
2.78
7.36
10.68
12.78
13.92
14.42
14.69
15.02
15.63
16.51
17.57
18.60
19.46
19.98
20.08
19.65
18.61
16.96
14.77
12.20
9.49
6.85
4.34
1.91
-0.68
-3.64
-7.07
-10.84
-14.48
-17.41
-19.03
-19.03
-17.35
-14.26
-10.19
-5.52
-0.61
4.27
8.83
12.71
15.51
16.98
17.09
16.09
14.52
12.92
11.69
10.96
10.58
10.24
9.63
8.58
7.07
5.23
3.16
0.95
-1.30
-3.50
-5.60
-7.53
-9.36
-11.31
-13.65
-16.56
-19.97
-23.43
-26.20
-27.43
-26.55
-23.49
-18.68
-12.98
-7.24
-2.14
2.05
5.32
7.74
9.31
9.95
9.63
8.46
6.80
5.13
3.89
3.21
2.93
2.69
2.09
0.95
-0.64
-2.36
-3.91
-5.08
-5.88
-6.56
-7.46
-8.90
-11.09
-14.12
-17.89
-22.08
-26.09
-29.10
-30.22
-28.78
-24.66
-18.38
-11.06
-3.99
1.75
5.66
7.83
8.72
8.83
8.44
7.63
6.40
4.88
3.34
2.07
1.18
0.52
-0.24
-1.27
-2.61
-4.06
-5.45
-6.88
-8.67
-11.23
-14.70
-18.69
-22.41
-24.90
-25.44
-23.74
-20.02
-14.75
-8.46
-1.50
5.89
13.62
21.56
29.36
36.47
42.17
45.66
46.36
44.04
38.92
31.64
23.11
14.28
5.97
-1.28
-7.17
-11.61
-14.68
-16.55
-17.44
-17.63
-17.48
-17.40
-17.73
-18.74
-20.49
-22.83
-25.50
-28.34
-31.31
-34.44
-37.66
-40.66
-42.80
-43.35
-41.74
-37.91
-32.30
-25.71
-19.00
-12.78
-7.38
-2.86
0.80
3.56
5.40
6.31
6.45
6.15
5.78
5.64
5.87
6.43
7.18
7.94
8.64
9.20
9.53
9.45
8.67
6.94
4.12
0.32
-4.19
-8.97
-13.59
-17.66
-20.78
-22.57
-22.61
-20.63
-16.59
-10.84
-4.09
2.82
9.07
14.17
17.94
20.43
21.82
22.28
21.99
21.17
20.13
19.19
18.61
18.47
18.55
18.47
17.78
16.19
13.67
10.51
7.16
4.08
1.44
-0.86
-3.30
-6.43
-10.71
-16.20
-22.42
-28.56
-33.55
-36.46
-36.75
-34.36
-29.74
-23.64
-16.94
-10.38
-4.55
0.29
4.04
6.79
8.67
9.86
10.60
11.14
11.78
12.74
14.19
16.03
18.03
19.79
20.93
21.29
20.99
20.33
19.71
19.41
19.53
19.91
20.26
20.18
19.29
17.39
14.55
11.25
8.31
6.62
6.74
8.70
11.93
15.58
18.97
21.84
24.31
26.58
28.55
29.73
29.42
27.20
23.22
18.24
13.30
9.29
6.59
4.98
3.94
2.88
1.49
-0.29
-2.29
-4.36
-6.44
-8.56
-10.81
-13.19
-15.67
-18.19
-20.83
-23.72
-27.05
-30.82
-34.62
-37.69
-39.08
-38.05
-34.31
-28.18
-20.46
-12.19
-4.30
2.54
7.96
11.83
14.14
14.99
14.58
13.22
11.41
9.66
8.48
8.12
8.59
9.56
10.48
10.83
10.25
8.74
6.58
4.33
2.46
1.23
0.55
0.03
-0.91
-2.83
-6.00
-10.29
-15.07
-19.42
-22.30
-22.90
-20.91
-16.51
-10.41
-3.56
3.10
8.80
13.10
15.85
17.27
17.75
17.81
17.86
18.13
18.52
18.76
18.50
17.47
15.59
12.89
9.58
5.88
2.11
-1.34
-4.05
-5.63
-6.01
-5.41
-4.43
-3.80
-4.24
-6.17
-9.64
-14.25
-19.18
-23.42
-25.90
-25.88
-23.09
-17.86
-11.06
-3.66
3.35
9.47
14.45
18.39
21.45
23.71
25.19
25.80
25.60
24.69
23.32
21.72
20.00
18.07
15.68
12.56
8.60
3.96
-0.93
-5.52
-9.34
-12.17
-14.10
-15.53
-16.97
-18.93
-21.64
-25.08
-28.82
-32.20
-34.42
-34.87
-33.25
-29.61
-24.35
-18.01
-11.16
-4.31
2.16
7.86
12.49
15.77
17.63
18.21
17.90
17.34
17.08
17.50
18.57
19.88
20.83
20.91
19.93
18.08
15.83
13.60
11.63
9.84
7.97
5.80
3.18
0.11
-3.43
-7.29
-11.27
-14.85
-17.31
-17.90
-16.12
-12.06
-6.33
0.06
6.13
11.23
15.17
18.02
19.95
21.04
21.22
20.50
18.97
16.97
14.98
13.42
12.47
11.98
11.54
10.61
8.88
6.33
3.30
0.29
-2.32
-4.43
-6.31
-8.27
-10.66
-13.54
-16.81
-20.24
-23.52
-26.39
-28.44
-29.24
-28.35
-25.53
-20.89
-14.89
-8.20
-1.48
4.70
10.04
14.34
17.51
19.46
20.22
19.96
18.94
17.59
16.29
15.32
14.75
14.47
14.21
13.64
12.54
10.85
8.72
6.41
4.26
2.37
0.68
-1.08
-3.33
-6.38
-10.36
-15.10
-20.05
-24.46
-27.46
-28.46
-27.19
-23.91
-19.23
-13.95
-8.75
-4.05
-0.08
3.15
5.61
7.25
8.02
7.90
6.97
5.49
3.82
2.37
1.45
1.14
1.29
1.54
1.52
1.00
-0.04
-1.39
-2.77
-3.96
-4.96
-5.91
-7.13
-8.98
-11.73
-15.48
-19.96
-24.55
-28.28
-30.13
-29.37
-25.84
-20.11
-13.24
-6.48
-0.79
3.39
6.16
7.97
9.24
10.21
10.81
10.92
10.46
9.59
8.64
7.99
7.84
8.13
8.53
8.61
8.09
6.90
5.28
3.56
2.04
0.80
-0.34
-1.61
-3.33
-5.61
-8.44
-11.57
-14.59
-16.95
-18.08
-17.51
-15.04
-10.85
-5.47
0.34
5.85
10.49
13.96
16.19
17.22
17.16
16.18
14.51
12.51
10.50
8.78
7.47
6.60
6.04
5.56
4.97
4.04
2.70
0.96
-1.01
-2.98
-4.77
-6.34
-7.85
-9.59
-11.90
-14.88
-18.41
-22.00
-24.91
-26.38
-25.80
-23.00
-18.25
-12.27
-5.94
-0.05
4.86
8.60
11.17
12.63
13.03
12.44
11.04
9.21
7.51
6.41
6.17
6.60
7.24
7.50
6.98
5.60
3.65
1.59
-0.22
-1.62
-2.74
-3.88
-5.40
-7.53
-10.40
-13.92
-17.75
-21.33
-23.93
-24.85
-23.62
-20.21
-15.05
-8.91
-2.66
2.99
7.58
10.99
13.27
14.56
14.99
14.68
13.80
12.52
11.09
9.71
8.58
7.76
7.18
6.67
6.03
5.12
3.91
2.50
1.05
-0.34
-1.67
-3.09
-4.83
-7.13
-10.11
-13.67
-17.50
-21.05
-23.71
-24.86
-24.13
-21.44
-17.08
-11.61
-5.75
-0.17
4.69
8.52
11.24
12.83
13.32
12.81
11.50
9.78
8.10
6.90
6.36
6.39
6.62
6.63
6.12
5.03
3.54
1.91
0.34
-1.12
-2.59
-4.27
-6.40
-9.15
-12.58
-16.53
-20.55
-23.90
-25.81
-25.58
-22.95
-18.17
-11.88
-4.98
1.73
7.58
12.16
15.25
16.75
16.70
15.31
13.07
10.59
8.53
7.34
7.07
7.43
7.83
7.71
6.76
5.05
2.95
0.93
-0.68
-1.88
-2.93
-4.25
-6.22
-9.04
-12.61
-16.61
-20.53
-23.70
-25.53
-25.47
-23.31
-19.13
-13.45
-7.04
-0.71
4.86
9.28
12.38
14.25
14.98
14.75
13.79
12.40
10.98
9.83
9.16
8.86
8.66
8.23
7.30
5.88
4.07
2.13
0.22
-1.50
-3.07
-4.56
-6.19
-8.24
-10.93
-14.33
-18.14
-21.65
-23.89
-23.99
-21.48
-16.53
-9.92
-2.65
4.29
10.27
14.99
18.41
20.54
21.33
20.79
19.00
16.30
13.19
10.26
7.99
6.55
5.83
5.44
4.94
3.99
2.55
0.79
-0.97
-2.45
-3.56
-4.38
-5.15
-6.16
-7.56
-9.34
-11.29
-13.04
-14.14
-14.17
-12.82
-10.00
-5.86
-0.80
4.62
9.77
14.08
17.14
18.76
19.04
18.26
16.91
15.51
14.47
14.05
14.20
14.72
15.31
15.76
15.98
15.97
15.80
15.45
14.84
13.84
12.36
10.34
7.75
4.55
0.67
-3.83
-8.73
-13.45
-17.17
-19.09
-18.76
-16.24
-12.21
-7.64
-3.52
-0.50
1.17
1.61
1.05
-0.22
-1.97
-3.92
-5.72
-6.98
-7.42
-6.96
-5.82
-4.46
-3.35
-2.85
-3.07
-3.92
-5.21
-6.78
-8.57
-10.62
-13.08
-16.00
-19.38
-23.00
-26.38
-28.85
-29.65
-28.24
-24.45
-18.64
-11.63
-4.38
2.25
7.73
11.82
14.52
15.85
15.89
14.83
13.02
10.92
9.02
7.59
6.63
5.91
5.10
4.00
2.55
0.87
-0.87
-2.52
-4.04
-5.54
-7.11
-8.89
-10.93
-13.19
-15.47
-17.44
-18.67
-18.68
-17.15
-14.00
-9.52
-4.38
0.55
4.47
6.89
7.77
7.48
6.57
5.56
4.75
4.19
3.90
3.85
4.16
4.97
6.33
8.09
9.89
11.26
11.85
11.56
10.58
9.28
7.96
6.70
5.29
3.34
0.57
-2.98
-6.77
-9.98
-11.69
-11.31
-8.85
-4.83
-0.18
4.17
7.50
9.45
9.96
9.18
7.38
4.93
2.26
-0.16
-1.90
-2.72
-2.63
-1.88
-0.92
-0.13
0.13
-0.23
-1.16
-2.45
-3.85
-5.16
-6.27
-7.20
-8.06
-9.00
-10.04
-11.08
-11.83
-11.85
-10.73
-8.18
-4.26
0.71
6.05
11.03
15.02
17.60
18.73
18.57
17.49
15.82
13.91
11.94
10.05
8.28
6.56
4.84
2.99
1.00
-1.06
-3.07
-4.95
-6.71
-8.49
-10.52
-12.96
-15.93
-19.41
-23.32
-27.42
-31.34
-34.55
-36.45
-36.51
-34.50
-30.59
-25.36
-19.58
-14.03
-9.30
-5.70
-3.27
-1.92
-1.42
-1.52
-1.94
-2.48
-3.04
-3.61
-4.30
-5.13
-6.12
-7.17
-8.21
-9.20
-10.20
-11.36
-12.85
-14.82
-17.39
-20.58
-24.40
-28.71
-33.24
-37.43
-40.54
-41.75
-40.45
-36.50
-30.38
-23.10
-15.81
-9.50
-4.63
-1.22
1.04
2.49
3.29
3.46
2.99
2.01
0.81
-0.27
-0.98
-1.36
-1.64
-2.20
-3.27
-4.88
-6.84
-8.90
-10.94
-13.09
-15.74
-19.32
-24.08
-29.77
-35.60
-40.35
-42.77
-41.98
-37.74
-30.61
-21.60
-11.94
-2.59
5.77
12.88
18.62
22.97
25.91
27.52
27.97
27.58
26.72
25.70
24.67
23.69
22.66
21.44
19.93
18.06
15.79
13.15
10.13
6.68
2.69
-2.02
-7.59
-14.01
-20.97
-27.79
-33.56
-37.26
-38.19
-36.10
-31.36
-24.75
-17.28
-9.89
-3.30
1.90
5.34
6.68
5.90
3.35
-0.10
-3.29
-5.09
-4.86
-2.75
0.49
3.79
6.28
7.55
7.71
7.18
6.33
5.44
4.60
3.82
3.02
2.05
0.70
-1.15
-3.28
-5.10
-5.60
-3.81
0.87
8.28
17.53
27.37
36.53
44.19
49.89
53.58
55.25
54.94
52.78
49.11
44.65
40.39
37.27
35.89
36.25
37.75
39.49
40.73
41.10
40.68
39.73
38.34
36.21
32.66
26.97
18.61
7.65
-5.25
-18.75
-31.05
-40.11
-44.15
-42.13
-34.12
-21.48
-6.48
8.28
20.64
29.41
34.38
36.13
35.48
33.20
29.86
25.88
21.68
17.72
14.32
11.57
9.28
7.01
4.35
1.14
-2.45
-6.04
-9.28
-12.03
-14.53
-17.21
-20.61
-25.11
-30.81
-37.47
-44.44
-50.75
-55.17
-56.62
-54.33
-48.20
-38.79
-27.13
-14.44
-1.79
9.99
20.37
28.94
35.45
39.71
41.72
41.77
40.31
37.90
35.02
32.00
28.97
25.97
23.00
20.08
17.29
14.61
12.00
9.21
5.92
1.68
-3.98
-11.36
-20.43
-30.53
-40.41
-48.21
-52.07
-50.61
-43.48
-31.55
-16.58
-0.73
14.12
26.74
36.60
43.64
48.01
49.88
49.46
47.15
43.48
39.20
34.94
31.11
27.81
24.97
22.48
20.28
18.40
16.87
15.61
14.36
12.78
10.47
7.08
2.33
-3.97
-11.77
-20.64
-29.64
-37.34
-42.14
-42.76
-38.69
