1513734038.00
64.000000
-0.00
-0.00
-0.00
-0.00
-0.00
-0.00
-0.00
-0.00
-0.00
-0.00
0.00
0.01
0.01
-0.00
-0.03
-0.05
-0.05
0.00
0.13
0.36
0.66
1.01
1.37
1.72
2.06
2.40
2.79
3.24
3.80
4.42
5.06
5.66
6.20
6.68
7.15
7.68
8.31
9.14
10.09
11.04
11.88
12.56
13.14
13.76
14.65
15.96
17.91
20.32
22.90
25.38
27.58
29.57
31.68
34.32
37.81
42.54
48.15
54.10
59.83
64.97
69.58
74.14
79.34
85.71
93.76
103.00
112.62
121.73
129.77
136.75
143.30
150.75
157.77
166.64
177.95
191.79
206.97
220.57
228.25
225.36
208.53
176.87
132.76
80.05
23.07
-34.94
-92.44
-149.16
-205.23
-260.37
-313.74
-363.87
-409.83
-450.91
-486.50
-515.74
-537.23
-549.22
-549.96
-538.37
-514.21
-478.67
-433.88
-382.45
-327.02
-269.84
-212.63
-156.66
-102.95
-52.37
-5.90
35.58
71.43
101.35
125.50
144.38
158.70
169.15
176.36
180.74
182.56
182.08
179.55
175.33
169.80
163.33
156.25
148.79
141.13
133.37
125.60
117.90
110.31
102.89
95.63
88.54
81.63
74.94
68.52
62.47
56.82
51.57
46.67
42.00
37.47
33.06
28.81
24.87
21.39
18.47
16.06
13.98
11.95
9.75
7.28
4.72
2.40
0.72
-0.11
-0.18
0.12
0.16
-0.58
-2.26
-4.58
-6.86
-8.34
-8.54
-7.55
-6.02
-4.96
-5.27
-7.24
-10.47
-13.88
-16.40
-17.19
-16.25
-14.18
-12.06
-11.12
-12.45
-16.99
-25.08
-35.86
-46.83
-54.13
-53.67
-43.33
-24.03
0.06
22.77
38.44
44.03
39.95
28.81
14.78
0.88
-11.74
-23.14
-33.72
-43.25
-50.63
-54.58
-54.27
-49.76
-42.12
-33.11
-23.90
-15.22
-6.83
2.26
13.26
26.94
43.16
60.52
76.06
87.75
94.22
95.46
93.04
89.32
86.71
86.60
89.17
92.72
95.72
97.05
96.41
93.71
88.54
80.44
69.86
59.08
51.75
51.34
58.23
68.45
74.68
69.67
50.24
19.25
-15.56
-45.45
-64.67
-72.68
-73.15
-70.91
-69.05
-67.79
-65.54
-60.81
-53.60
-45.70
-39.50
-36.48
-36.36
-37.36
-37.05
-33.90
-27.72
-19.85
-12.34
-6.94
-4.43
-4.27
-5.12
-5.44
-4.39
-1.92
1.21
3.87
5.17
4.66
2.69
-0.01
-2.54
-4.48
-5.59
-5.92
-5.77
-5.46
-5.32
-5.60
-6.55
-8.23
-10.96
-14.68
-19.21
-24.30
-29.71
-35.40
-41.48
-48.21
-54.65
-61.31
-67.90
-73.75
-78.24
-80.88
-81.51
-80.35
-78.67
-76.47
-75.05
-76.05
-80.72
-88.59
-96.70
-99.71
-91.85
-69.61
-33.40
11.52
58.03
99.73
132.71
155.30
166.65
165.47
149.13
119.02
79.39
37.77
2.62
-20.03
-28.90
-27.25
-20.78
-14.66
-11.75
-12.97
-18.22
-27.34
-40.09
-54.96
-68.60
-75.86
-72.02
-54.71
-26.26
7.05
37.27
58.21
67.83
68.43
64.66
60.73
58.59
57.68
56.26
53.04
48.14
43.17
39.87
39.30
41.89
47.36
54.30
60.19
60.95
52.26
31.81
-0.17
-40.97
-85.74
-128.35
-162.44
-181.83
-182.42
-162.74
-123.95
-71.60
-15.21
34.58
70.04
88.75
94.41
93.18
92.20
98.64
117.02
147.23
185.63
227.03
260.45
277.58
272.28
235.58
172.12
98.54
33.09
-13.41
-40.81
-55.81
-65.32
-76.28
-90.18
-104.23
-114.85
-121.96
-127.71
-134.32
-142.57
-142.11
-126.43
-92.40
-45.70
12.76
79.22
145.48
198.58
226.26
222.03
185.31
124.25
53.35
-11.21
-58.58
-84.24
-88.37
-73.35
-42.77
-5.07
29.84
53.57
63.03
60.76
54.61
54.27
65.82
87.48
106.10
105.45
74.73
14.90
-62.55
-139.95
-200.05
-232.23
-235.91
-223.21
-210.47
-210.43
-227.31
-257.76
-294.16
-328.91
-357.63
-361.05
-329.46
-267.22
-189.77
-111.50
-39.33
25.34
81.65
127.39
160.15
176.64
177.31
167.39
155.14
147.18
146.47
151.63
158.68
163.45
160.59
148.56
129.60
108.80
90.27
76.32
66.51
58.51
49.46
35.86
16.09
-9.02
-31.41
-48.04
-57.79
-61.39
-60.81
-58.53
-57.28
-58.59
-62.20
-66.26
-69.27
-69.97
-68.12
-64.73
-61.38
-59.52
-59.77
-62.01
-65.82
-71.44
-78.12
-83.81
-84.85
-77.11
-57.74
-27.10
10.63
48.80
80.35
101.03
110.18
110.27
104.76
96.86
88.74
81.71
76.85
75.15
77.54
83.86
91.96
97.48
95.12
80.49
52.40
14.20
-27.37
-64.44
-91.27
-106.44
-113.27
-117.65
-124.56
-135.17
-145.96
-150.57
-143.12
-122.12
-90.40
-55.10
-24.39
-4.02
4.56
4.39
0.30
-3.59
-5.62
-6.41
-7.45
-9.25
-10.69
-9.68
-4.47
5.05
17.52
30.78
42.86
52.89
61.25
69.24
77.93
87.72
97.89
106.89
113.93
119.54
125.92
135.61
149.34
163.77
171.87
165.68
140.54
98.15
46.22
-4.94
-46.28
-72.60
-82.33
-75.89
-55.17
-23.65
12.62
45.07
64.84
66.82
52.08
27.29
2.85
-13.66
-20.71
-21.66
-21.55
-24.10
-29.48
-37.05
-46.47
-58.73
-75.80
-99.38
-129.48
-162.78
-195.38
-221.56
-235.49
-232.43
-211.05
-174.71
-130.82
-88.16
-53.66
-30.58
-16.68
-8.18
-1.62
4.33
9.01
11.25
11.24
11.10
13.72
21.37
34.02
49.66
65.06
77.27
85.07
89.43
93.11
98.83
108.06
120.18
133.45
145.05
152.78
155.76
154.86
152.62
151.82
154.99
163.58
177.94
195.77
212.76
223.29
222.56
208.76
183.15
149.96
112.50
75.97
42.59
14.32
-8.23
-26.80
-42.09
-54.32
-63.70
-71.03
-77.48
-85.30
-95.82
-109.06
-123.04
-131.41
-129.60
-116.33
-99.37
-85.43
-80.81
-88.08
-109.63
-146.32
-196.70
-257.23
-321.16
-372.11
-393.58
-376.59
-324.06
-249.81
-171.72
-103.98
-53.84
-20.90
-0.00
14.40
25.66
35.57
46.03
59.06
77.71
102.31
129.31
152.07
163.17
157.78
135.34
102.87
71.31
50.24
43.50
48.95
60.96
73.53
82.89
88.14
90.38
90.86
90.03
87.73
83.93
79.23
74.42
70.30
67.13
64.63
61.81
57.17
49.72
38.78
24.75
8.75
-7.81
-23.55
-37.40
-48.97
-58.54
-66.42
-72.47
-75.99
-75.98
-71.34
-61.24
-45.54
-23.50
2.19
27.97
50.84
68.84
81.24
88.54
92.20
93.83
94.42
93.89
90.44
82.02
67.02
45.06
17.49
-12.80
-42.51
-68.97
-88.74
-102.46
-112.69
-123.02
-136.55
-154.65
-175.29
-193.32
-201.63
-193.56
-166.18
-121.48
-66.73
-12.85
28.43
48.06
41.66
11.73
-32.38
-77.13
-108.37
-116.40
-99.31
-64.71
-22.07
18.54
50.37
71.65
83.94
89.76
90.48
86.06
76.44
63.10
48.50
35.70
26.74
21.13
16.39
9.44
-1.95
-17.76
-35.63
-52.34
-64.82
-71.33
-72.06
-68.73
-63.63
-59.04
-55.39
-52.04
-47.91
-42.09
-34.44
-25.67
-17.27
-10.68
-7.01
-6.32
-7.94
-10.83
-13.95
-16.66
-18.71
-20.36
-22.16
-24.67
-28.17
-32.75
-38.35
-44.82
-52.03
-59.64
-67.51
-75.44
-83.35
-91.10
-98.61
-105.90
-112.98
-119.99
-126.63
-132.76
-138.18
-142.69
-146.02
-147.82
-147.62
-144.61
-140.22
-134.82
-128.68
-121.91
-114.64
-107.03
-99.28
-91.63
-84.25
-77.34
-70.58
-63.76
-56.66
-49.23
-41.57
-33.87
-26.45
-19.46
-13.02
-6.69
-0.06
7.24
15.38
24.20
33.38
42.44
51.10
59.31
67.56
76.46
86.54
98.08
110.91
124.60
138.56
152.39
165.92
179.41
193.31
208.27
225.21
244.96
268.02
293.66
319.59
342.07
356.95
361.12
353.61
335.98
311.32
283.04
253.57
224.21
195.58
168.44
144.05
123.65
107.88
96.08
86.55
77.21
66.61
54.37
41.06
27.81
15.64
5.25
-3.11
-9.40
-13.81
-16.71
-18.63
-20.25
-22.08
-24.39
-26.84
-28.76
-29.31
-27.91
-24.75
-20.72
-17.44
-16.45
-18.72
-24.04
-31.01
-37.46
-41.22
-41.07
-36.98
-30.21
-22.57
-15.71
-10.53
-6.99
-4.56
-2.70
-1.42
-1.34
-3.42
-8.30
-15.92
-25.33
-34.98
-43.35
-49.45
-53.20
-55.15
-56.16
-56.88
-57.43
-57.53
-56.60
-54.27
-50.52
-45.77
-40.79
-36.43
-33.41
-32.03
-32.18
-33.29
-34.56
-35.10
-34.24
-31.67
-27.48
-22.17
-16.31
-10.49
-5.02
0.06
4.88
9.61
14.24
18.50
21.95
24.10
24.66
23.66
21.52
19.01
17.03
16.33
17.35
19.97
23.61
27.34
30.19
31.41
30.68
28.15
24.33
19.97
15.82
12.45
10.11
8.71
7.90
7.21
6.26
4.85
2.98
0.70
-1.94
-5.00
-8.50
-12.35
-16.20
-19.55
-21.78
-22.44
-21.35
-18.73
-15.14
-11.46
-8.61
-7.42
-8.30
-11.17
-15.45
-20.21
-24.48
-27.48
-28.84
-28.48
-26.57
-23.30
-18.90
-13.62
-7.81
-2.02
3.13
7.11
9.62
10.64
10.45
9.45
8.01
6.42
4.90
3.68
3.03
3.24
4.55
6.96
10.14
13.54
16.51
18.57
19.55
19.65
19.21
18.50
17.59
16.24
14.14
11.09
7.15
2.72
-1.58
-5.11
-7.36
-8.05
-7.21
-5.12
-2.30
0.61
3.02
4.58
5.24
5.28
5.13
5.21
5.74
6.64
7.60
8.28
8.44
8.07
7.41
6.77
6.49
6.78
7.81
9.77
12.92
17.58
23.95
31.96
41.10
50.51
59.22
66.49
72.27
77.08
81.82
87.32
93.99
101.69
109.93
118.26
126.52
135.12
144.45
154.55
164.89
174.66
183.11
189.91
195.17
199.09
201.91
203.18
201.99
197.15
187.61
172.70
152.14
126.17
95.49
61.66
26.42
-8.66
-42.52
-74.71
-105.21
-134.06
-160.93
-187.32
-212.59
-235.06
-252.65
-263.75
-267.89
-265.69
-258.44
-247.34
-233.25
-216.52
-197.79
-178.29
-159.67
-143.70
-131.45
-123.06
-117.34
-112.33
-105.86
-96.83
-85.68
-74.18
-64.81
-59.48
-58.82
-61.60
-65.26
-67.23
-66.12
-62.49
-58.53
-57.06
-60.27
-69.16
-82.94
-99.33
-114.85
-125.02
-125.04
-110.81
-80.80
-36.41
15.22
64.94
105.45
134.20
153.86
169.44
184.24
196.60
200.28
187.83
155.72
107.22
51.26
-0.83
-39.18
-57.85
-55.40
-34.67
-2.08
33.42
62.21
76.42
72.81
54.06
27.57
2.09
-16.17
-25.66
-28.60
-28.15
-26.22
-22.66
-16.57
-8.03
1.31
8.87
12.66
12.17
8.51
3.40
-1.68
-6.38
-11.40
-17.89
-27.05
-39.30
-53.81
-69.39
-84.35
-97.32
-107.93
-117.01
-125.82
-134.77
-142.18
-144.25
-136.68
-117.01
-86.65
-51.05
-17.65
7.05
20.35
23.38
19.95
14.03
8.12
2.75
-2.52
-7.97
-13.14
-17.19
-19.65
-20.97
-22.28
-24.49
-27.85
-31.34
-33.11
-31.33
-24.97
-14.30
-0.61
14.35
29.11
43.03
55.77
67.91
79.65
90.45
99.13
104.40
105.64
103.48
99.41
95.54
93.00
91.88
91.72
91.95
92.59
93.69
94.24
91.72
83.48
68.81
50.49
33.93
24.08
22.07
23.89
22.32
11.40
-9.73
-35.99
-59.21
-72.82
-75.30
-70.33
-63.49
-58.86
-56.98
-55.62
-52.33
-46.85
-41.38
-39.40
-42.87
-50.22
-56.59
-55.73
-43.50
-20.09
9.82
39.41
62.63
76.49
80.94
77.12
65.75
46.87
21.18
-8.41
-35.82
-54.74
-61.29
-55.96
-43.27
-29.29
-18.62
-12.90
-10.68
-9.22
-6.73
-3.12
0.21
1.20
-1.71
-9.15
-20.89
-36.19
-53.87
-71.86
-87.32
-96.38
-95.60
-83.56
-62.12
-36.11
-11.48
7.14
18.08
22.42
22.77
21.22
18.39
14.13
8.62
3.04
-0.35
0.47
5.92
14.95
25.43
35.27
42.44
45.29
42.76
34.99
24.06
13.31
6.71
6.55
12.39
21.66
30.94
38.02
42.43
44.54
44.33
41.52
36.17
29.60
23.95
20.89
20.29
20.33
19.38
17.84
18.02
21.31
26.20
27.94
21.39
5.52
-14.32
-28.16
-27.00
-8.72
20.38
49.30
68.86
76.05
74.47
70.37
67.68
65.83
60.32
46.77
24.78
-1.27
-24.65
-39.78
-44.82
-41.92
-35.54
-30.49
-29.63
-33.19
-39.26
-45.05
-48.65
-49.78
-50.10
-49.74
-50.94
-56.33
-67.65
-84.76
-100.95
-109.32
-105.12
-88.50
-63.79
-36.96
-12.21
9.30
28.58
47.14
64.95
80.78
92.93
100.59
103.73
103.00
99.91
95.55
90.34
83.31
73.03
58.22
38.55
17.17
-3.60
-21.92
-36.49
-46.64
-52.80
-55.89
-56.98
-56.77
-55.65
-53.80
-51.36
-48.35
-44.82
-41.10
-37.55
-34.49
-32.01
-29.98
-28.19
-26.62
-25.23
-23.88
-22.53
-21.00
-19.15
-16.71
-14.99
-12.68
-9.23
-4.47
1.57
8.66
16.57
24.98
33.47
41.76
49.89
57.72
65.25
72.65
80.00
87.51
95.18
102.67
109.70
116.25
122.20
127.54
132.62
137.77
143.67
150.94
159.67
169.91
181.52
194.04
206.54
217.97
226.81
231.28
232.74
231.02
226.05
217.89
206.96
193.76
179.12
163.82
148.64
134.24
120.48
107.33
94.45
81.67
68.64
55.32
41.79
28.25
15.15
2.35
-9.94
-21.81
-33.10
-43.86
-53.95
-63.19
-71.45
-78.52
-84.76
-90.36
-95.89
-101.47
-107.08
-112.28
-116.37
-118.79
-119.17
-118.13
-116.56
-115.93
-117.37
-121.48
-128.08
-136.27
-145.10
-153.85
-162.90
-173.22
-186.58
-204.31
-226.81
-253.29
-282.04
-311.31
-339.70
-367.04
-393.87
-421.90
-452.98
-488.78
-530.69
-578.60
-630.34
-680.27
-720.27
-741.56
-738.74
-711.02
-662.38
-600.43
-533.17
-466.81
-404.08
-345.13
-289.16
-237.20
-190.34
-148.61
-110.91
-74.67
-37.49
2.26
44.73
88.62
129.97
165.97
196.05
221.32
244.03
265.61
286.24
304.64
329.13
358.40
384.72
399.17
397.05
380.32
354.23
324.31
294.64
266.84
239.12
209.88
179.42
148.20
120.44
100.49
91.53
95.01
110.04
132.77
159.43
187.85
214.85
238.26
257.01
271.25
282.21
291.03
296.88
297.38
288.80
266.74
228.42
174.05
108.15
40.25
-17.99
-56.32
-68.88
-56.22
-25.08
14.52
52.48
81.44
99.26
107.12
107.96
104.58
98.71
91.16
82.72
76.68
73.46
74.02
77.45
81.20
81.95
76.98
65.25
48.14
28.57
7.74
-10.47
-24.90
-36.44
-46.79
-57.52
-68.85
-79.54
-87.39
-90.65
-88.16
-80.79
-70.91
-61.27
-54.14
-50.34
-49.23
-49.13
-48.55
-46.58
-43.71
-41.57
-41.70
-44.95
-50.70
-56.99
-60.99
-59.90
-51.40
-34.52
-9.96
19.41
48.46
70.29
79.07
72.47
53.24
28.46
6.50
-6.71
-10.03
-6.94
-2.93
-1.85
-3.87
-5.92
-4.34
2.76
13.94
25.25
32.29
32.19
24.61
11.06
-5.87
-23.27
-38.24
-47.90
-49.57
-41.61
-25.79
-7.54
5.25
5.47
-9.49
-35.72
-64.22
-84.99
-91.83
-85.16
-70.89
-56.67
-47.84
-45.40
-46.67
-48.52
-49.53
-50.60
-53.89
-60.30
-68.08
-73.41
-72.37
-62.96
-45.81
-23.89
-1.25
18.85
34.48
46.08
55.27
63.68
72.12
80.16
86.50
89.76
89.19
85.57
80.11
74.63
70.60
68.69
68.58
69.23
69.49
68.71
66.25
62.17
56.90
50.78
43.97
36.48
28.34
19.87
11.57
4.09
-1.99
-6.35
-9.13
-10.79
-11.77
-12.31
-12.17
-10.97
-8.43
-4.48
0.42
5.39
9.42
11.93
12.98
13.56
14.91
17.95
23.13
29.92
36.99
42.97
46.95
48.80
49.44
50.03
51.44
54.72
60.68
69.57
80.44
90.59
95.32
89.99
71.71
41.01
3.05
-34.54
-64.55
-82.88
-89.46
-87.96
-82.48
-73.36
-62.31
-49.33
-34.07
-16.83
1.14
18.65
32.97
44.41
53.43
59.93
63.35
62.36
55.55
42.43
24.23
1.93
-21.87
-44.38
-63.60
-78.54
-89.68
-98.43
-106.55
-109.28
-106.13
-97.52
-85.32
-73.04
-64.59
-63.81
-72.93
-91.78
-110.18
-122.10
-125.81
-124.02
-120.28
-115.60
-108.52
-97.09
-81.36
-64.01
-50.74
-44.54
-43.16
-40.08
-28.07
-3.66
30.75
68.59
103.33
130.42
149.86
163.80
172.83
173.62
160.43
129.12
81.09
24.38
-28.67
-65.29
-76.81
-62.44
-30.10
6.12
31.44
36.01
18.45
-15.23
-54.28
-88.26
-111.07
-121.99
-123.84
-119.74
-110.46
-94.66
-69.52
-37.48
-3.30
27.06
48.96
60.97
65.49
67.23
70.90
78.71
89.49
100.12
106.89
107.35
101.65
91.77
80.62
70.53
61.84
52.78
40.90
24.01
0.97
-27.35
-58.99
-90.32
-116.28
-131.30
-131.07
-114.29
-84.09
-47.47
-12.98
12.51
26.29
30.11
28.25
24.90
22.23
20.06
17.17
12.84
7.58
3.01
0.69
1.08
3.38
5.91
6.81
4.96
0.43
-5.72
-11.72
-15.85
-17.26
-15.93
-13.18
-10.95
-11.20
-15.07
-22.37
-31.56
-40.22
-46.24
-48.16
-46.42
-42.73
-39.57
-38.71
-40.33
-42.77
-43.18
-38.97
-28.29
-10.93
12.14
39.11
67.01
91.43
106.57
107.10
90.98
62.19
30.11
6.49
0.13
12.29
36.34
60.64
74.67
72.41
56.18
32.79
9.30
-9.64
-24.44
-36.46
-46.55
-53.37
-54.68
-48.18
-33.95
-14.57
6.04
23.45
35.15
40.66
41.80
41.42
42.46
46.41
52.71
59.40
63.56
63.01
56.79
46.03
33.50
22.99
18.09
20.87
31.61
48.45
68.30
87.55
102.95
112.26
114.05
107.94
94.38
75.08
52.09
27.69
3.26
-20.75
-43.91
-64.92
-80.28
-84.93
-73.49
-42.17
7.75
69.01
129.80
177.56
202.85
202.67
180.79
145.91
107.54
72.55
43.95
21.19
2.52
-13.18
-25.61
-33.35
-35.92
-35.29
-36.05
-43.60
-62.38
-93.63
-135.19
-181.66
-225.01
-258.02
-275.38
-274.94
-257.51
-227.15
-189.68
-152.07
-120.66
-96.99
-79.10
-61.27
-37.40
-4.43
34.32
70.04
91.55
89.51
63.36
18.00
-37.65
-95.96
-153.43
-210.99
-270.31
-323.25
-372.38
-407.17
-418.93
-403.14
-362.51
-305.23
-241.86
-181.11
-127.32
-81.68
-40.78
-3.10
31.35
60.82
84.23
102.93
121.03
144.16
175.41
215.34
257.40
290.25
301.46
283.18
236.96
174.62
115.35
78.04
75.86
109.78
169.79
238.90
299.50
338.39
348.75
330.22
286.87
226.81
160.04
97.52
49.04
21.08
15.01
26.67
48.18
70.41
86.20
91.84
87.51
76.24
62.29
49.62
40.76
36.72
37.17
41.09
47.15
53.95
59.94
63.31
62.29
55.41
42.18
23.35
1.07
-21.39
-40.22
-51.96
-54.73
-48.87
-37.27
-24.54
-15.46
-13.01
-17.12
-24.92
-32.04
-34.81
-31.62
-23.31
-12.76
-2.91
4.58
9.99
14.83
20.86
28.93
38.83
49.47
58.57
64.04
64.54
60.11
52.10
43.24
36.49
34.02
36.17
39.24
37.43
24.56
-3.28
-46.72
-103.10
-167.79
-234.83
-297.34
-350.43
-390.66
-417.68
-434.78
-448.41
-466.11
-493.66
-532.49
-565.03
-572.41
-539.68
-464.22
-357.41
-237.86
-122.02
-19.10
68.22
140.86
197.97
238.21
260.62
266.17
258.68
243.85
227.32
213.09
203.22
196.45
190.68
183.88
175.33
166.05
157.82
152.31
150.03
150.68
152.38
153.09
151.22
145.47
135.35
120.89
102.37
79.98
53.76
23.17
-11.47
-48.39
-83.83
-111.73
-125.69
-121.77
-100.82
-68.72
-34.42
-6.38
10.62
16.51
14.85
9.92
4.59
-0.53
-6.11
-12.46
-19.05
-24.47
-27.70
-28.77
-29.06
-30.28
-33.84
-39.66
-46.18
-51.03
-52.02
-47.67
-37.99
-24.50
-9.59
4.31
15.54
23.56
28.63
31.50
32.82
32.75
31.19
28.05
23.81
19.70
17.78
20.14
28.37
42.77
62.04
83.80
105.11
123.50
137.39
146.63
152.09
155.43
158.47
162.79
169.14
176.66
182.77
183.39
174.35
153.00
119.67
77.93
33.82
-5.92
-36.01
-53.78
-59.70
-56.39
-47.34
-35.78
-24.04
-13.71
-5.78
-1.20
0.18
-1.36
-4.85
-8.58
-10.48
-8.80
-3.21
5.11
13.69
20.01
22.35
20.74
16.71
12.30
8.98
6.91
5.29
2.93
-0.85
-6.19
-12.90
-20.76
-29.79
-39.75
-49.97
-59.15
-66.07
-70.18
-72.12
-73.28
-74.82
-76.99
-78.83
-78.95
-76.35
-71.25
-64.90
-58.78
-53.97
-50.51
-47.84
-45.21
-42.33
-39.37
-36.85
-35.18
-34.37
-34.15
-33.85
-32.91
-30.97
-28.01
-24.28
-20.12
-15.93
-11.95
-8.40
-5.32
-2.69
-0.43
1.57
3.38
5.02
6.42
7.59
8.45
9.12
9.72
10.36
11.00
11.47
11.49
10.81
9.42
7.45
5.27
3.25
1.65
0.63
0.09
-0.14
-0.38
-0.90
-1.93
-3.52
-5.54
-7.65
-9.38
-10.40
-10.50
-9.85
-8.82
-7.92
-7.59
-7.99
-9.04
-10.32
-11.44
-12.00
-11.88
-11.22
-10.35
-9.64
-9.34
-9.57
-10.11
-10.62
-10.47
-9.03
-5.76
-0.39
6.93
15.76
25.40
35.31
45.24
55.45
66.38
78.33
91.14
103.96
115.73
125.37
132.55
137.66
141.69
145.62
149.84
154.11
157.59
159.59
159.81
158.40
155.87
152.78
149.96
148.35
149.05
152.49
157.88
162.77
163.56
156.85
140.84
116.20
85.56
52.39
19.27
-12.73
-43.91
-75.02
-106.17
-136.72
-165.24
-190.50
-211.74
-228.84
-242.09
-251.76
-258.29
-262.14
-264.09
-264.89
-264.76
-263.16
-258.60
-249.44
-234.71
-215.05
-192.04
-167.37
-141.82
-115.30
-87.97
-61.33
-38.47
-22.70
-15.74
-16.10
-19.66
-21.59
-18.91
-12.02
-3.91
1.74
3.09
0.98
-1.73
-1.95
1.89
9.36
18.55
27.43
34.64
40.14
44.76
49.31
53.84
57.44
58.85
57.30
53.17
47.81
42.89
39.57
38.00
37.59
37.59
37.82
38.50
40.03
42.19
44.18
44.94
43.83
41.02
37.15
32.78
27.67
20.88
11.39
-1.02
-15.18
-28.94
-40.01
-47.28
-51.27
-53.90
-57.44
-63.32
-71.57
-80.80
-88.95
-93.83
-93.75
-87.72
-75.89
-59.72
-42.21
-27.47
-19.52
-20.85
-31.06
-46.74
-62.46
-72.89
-74.68
-67.54
-53.93
-37.61
-22.14
-9.69
-0.83
5.06
8.97
11.68
13.53
14.51
14.77
14.71
15.04
16.42
19.05
22.37
25.27
26.54
25.43
22.13
17.60
13.07
9.53
7.19
5.59
3.92
1.52
-1.79
-5.55
-9.03
-11.53
-12.70
-12.67
-11.91
-11.05
-10.53
-10.53
-10.89
-11.30
-11.36
-10.77
-9.41
-7.32
-4.79
-2.24
-0.16
1.06
1.27
0.59
-0.59
-1.80
-2.66
-2.96
-2.74
-2.08
-1.07
0.29
2.02
4.15
6.54
8.96
11.13
12.88
14.17
15.03
15.61
15.95
16.05
15.80
15.12
13.98
12.46
10.70
8.87
7.18
5.76
4.66
3.81
3.07
2.22
1.11
-0.28
-1.84
-3.31
-4.47
-5.20
-5.57
-5.82
-6.21
-6.94
-8.03
-9.40
-10.90
-12.35
-13.62
-14.56
-15.09
-15.14
-14.75
-14.04
-13.23
-12.54
-12.09
-11.78
-11.32
-10.32
-8.43
-5.48
-1.56
3.00
7.70
12.01
15.48
17.91
19.31
19.91
20.00
19.78
19.24
18.16
16.23
13.23
9.30
4.91
0.79
-2.26
-3.61
-2.96
-0.42
3.55
8.22
12.90
17.06
20.64
23.97
27.67
32.22
37.68
43.59
49.06
53.27
55.82
56.98
57.57
58.62
60.90
64.67
69.61
74.90
79.43
81.95
81.17
76.24
67.04
54.53
40.56
27.26
16.05
7.03
-1.01
-10.12
-22.03
-37.41
-55.51
-74.45
-91.79
-105.20
-112.81
-113.39
-106.27
-90.98
-67.10
-34.48
5.90
51.05
95.67
133.09
157.38
165.50
158.57
141.21
119.21
96.70
74.33
49.23
16.69
-27.17
-83.13
-147.54
-212.40
-266.84
-299.88
-303.86
-277.49
-227.49
-167.40
-113.98
-81.95
-78.98
-103.24
-144.11
-186.24
-214.71
-219.70
-198.65
-155.85
-99.92
-40.34
15.03
61.28
96.23
119.64
132.29
135.60
131.39
121.84
109.56
97.02
86.13
77.73
71.66
67.09
63.38
60.74
60.06
62.53
68.50
77.07
86.17
93.50
97.39
97.41
94.33
89.32
83.54
77.96
73.55
71.45
72.64
77.65
86.35
98.49
114.09
133.63
157.14
183.00
206.98
222.94
225.28
211.60
184.27
149.10
112.59
79.21
50.85
28.07
11.88
4.08
5.61
14.51
25.26
30.90
27.01
14.53
-0.77
-12.37
-17.24
-17.92
-20.22
-28.71
-43.79
-60.37
-70.63
-68.18
-51.44
-24.06
7.17
35.51
56.42
65.89
61.88
44.11
14.82
-21.69
-60.05
-95.21
-123.35
-142.41
-155.70
-168.15
-184.47
-207.29
-236.96
-272.03
-308.86
-341.30
-361.43
-367.13
-360.85
-349.68
-342.69
-347.51
-368.01
-402.18
-442.79
-459.57
-430.58
-349.21
-229.55
-97.73
23.37
121.88
196.84
249.29
288.30
315.18
327.74
323.79
304.21
272.96
233.43
188.58
140.83
93.83
48.91
8.96
-21.61
-38.02
-32.44
-6.07
30.84
64.52
85.86
91.00
81.82
62.48
37.20
9.37
-19.55
-48.05
-73.78
-93.90
-108.14
-118.01
-125.95
-134.87
-144.94
-155.77
-165.96
-173.34
-175.85
-173.12
-166.47
-158.24
-150.33
-143.80
-139.38
-136.85
-134.98
-132.10
-126.73
-117.74
-107.47
-97.29
-87.92
-79.72
-72.37
-64.76
-55.45
-43.14
-27.07
-7.22
16.27
42.85
71.54
101.33
131.57
161.79
191.51
219.93
245.78
267.83
285.30
298.59
309.51
320.71
333.97
348.64
360.71
364.01
352.95
325.36
283.75
233.96
182.54
133.90
89.92
51.28
19.55
-2.51
-13.08
-13.92
-11.58
-14.90
-30.15
-56.62
-86.14
-107.27
-111.76
-99.26
-77.33
-56.89
-46.08
-46.44
-52.93
-57.75
-54.90
-43.13
-25.71
-7.79
6.82
17.65
27.23
39.19
55.54
75.19
94.40
108.57
114.51
111.37
100.01
81.02
53.18
14.13
-37.19
-97.50
-158.30
-207.93
-235.87
-236.84
-212.82
-171.72
-123.66
-77.34
-37.78
-6.43
17.69
36.54
52.21
66.80
82.17
99.42
118.33
136.90
151.84
159.88
158.89
148.58
130.55
107.65
83.51
61.97
46.47
38.93
38.63
41.64
41.77
33.33
14.42
-10.98
-34.11
-45.51
-39.88
-19.30
7.74
30.67
42.29
41.75
33.95
25.98
23.11
26.73
34.74
43.59
50.47
54.40
56.18
57.76
61.50
68.90
79.94
92.61
103.48
109.22
108.53
103.19
97.54
96.31
102.01
114.00
129.21
144.16
156.36
164.50
167.69
164.65
154.34
137.34
117.47
101.65
97.36
108.76
133.68
163.78
188.37
199.76
196.76
184.41
169.70
156.85
144.94
129.23
105.32
72.80
36.23
2.40
-23.61
-41.17
-53.76
-65.76
-79.53
-94.10
-106.41
-113.56
-114.93
-112.34
-109.15
-109.41
-116.49
-132.72
-158.86
-193.57
-233.05
-271.60
-303.17
-323.53
-332.32
-333.56
-334.41
-342.16
-361.04
-389.86
-422.07
-448.12
-459.28
-451.26
-425.50
-388.28
-347.53
-309.60
-277.49
-250.97
-228.55
-209.19
-193.13
-180.98
-172.50
-165.67
-157.10
-143.81
-124.69
-101.41
-77.71
-57.90
-44.75
-38.30
-35.89
-33.30
-26.65
-13.91
4.36
25.57
46.44
64.69
80.03
94.39
111.16
133.84
164.63
203.21
246.13
287.27
319.26
335.54
332.60
311.40
277.45
239.33
205.91
183.52
174.06
174.72
179.63
182.17
177.58
164.24
143.77
119.78
96.22
75.97
60.27
49.04
41.45
36.65
33.97
32.78
32.27
31.40
29.24
25.31
19.88
13.86
8.43
4.62
3.02
3.71
6.29
10.09
14.28
18.13
21.19
23.26
24.33
24.20
22.43
18.31
11.53
2.63
-6.57
-13.46
-15.70
-12.15
-3.67
7.39
18.14
26.35
31.04
32.44
31.40
28.92
26.07
23.78
22.84
23.53
25.49
27.66
28.73
27.68
24.15
18.68
11.87
4.10
-4.70
-14.58
-25.09
-35.18
-43.74
-50.34
-54.84
-57.73
-59.22
-58.50
-53.68
-42.44
-23.28
3.43
35.04
68.79
101.40
130.08
153.09
169.76
180.59
187.02
191.16
195.03
202.27
214.85
232.27
251.60
268.75
280.48
286.16
288.33
291.45
302.73
326.45
362.36
405.83
449.79
487.90
516.69
536.08
528.91
484.34
397.85
274.55
128.97
-19.97
-155.25
-265.91
-347.89
-402.80
-433.05
-443.28
-439.31
-427.11
-411.82
-396.62
-382.28
-368.25
-354.29
-339.08
-322.74
-306.26
-290.59
-276.15
-262.57
-249.20
-235.56
-221.63
-206.49
-189.49
-170.68
-150.89
-131.81
-115.14
-101.96
-92.43
-86.03
-81.46
-77.64
-73.74
-69.09
-63.06
-55.23
-45.62
-35.08
-24.96
-16.76
-11.50
-9.27
-9.31
-10.28
-10.85
-10.09
-7.51
-2.87
3.99
12.92
23.21
33.68
42.41
47.64
48.50
45.33
39.43
32.27
24.67
16.46
6.84
-4.71
-17.68
-30.30
-40.17
-45.33
-45.14
-40.64
-34.06
-28.07
-24.49
-23.97
-25.56
-27.38
-27.62
-25.25
-20.51
-14.78
-9.81
-6.83
-5.94
-6.24
-6.56
-6.42
-6.20
-6.85
-9.06
-12.48
-15.91
-18.05
-18.61
-18.76
-20.69
-26.00
-34.50
-43.89
-50.73
-52.30
-48.05
-39.99
-31.64
-26.40
-25.87
-29.57
-35.55
-41.57
-46.09
-48.48
-48.73
-46.16
-40.28
-30.67
-17.30
-0.72
17.87
36.80
54.28
68.70
78.87
84.09
84.32
80.23
72.89
63.60
53.51
43.59
34.52
26.66
20.06
14.67
10.44
7.56
6.31
6.96
9.47
13.15
16.71
18.72
18.24
15.45
11.56
8.14
6.17
5.52
5.20
4.13
2.03
-0.43
-2.15
-2.61
-2.26
-2.30
-3.77
-6.55
-9.25
-9.84
-6.99
-1.02
6.01
11.19
12.27
8.73
2.01
-5.40
-11.39
-15.33
-18.20
-21.77
-27.33
-34.66
-42.21
-48.21
-51.97
-54.45
-57.65
-63.11
-70.67
-78.44
-83.82
-85.10
-82.14
-76.29
-69.19
-61.61
-53.45
-44.31
-34.50
-25.34
-18.57
-15.06
-14.20
-14.04
-12.46
-8.56
-3.08
1.96
4.56
3.63
-0.55
-6.88
-14.28
-22.15
-30.49
-39.31
-48.08
-55.61
-60.53
-61.98
-59.90
-55.18
-49.04
-42.71
-36.94
-31.85
-26.83
-20.54
-11.15
3.34
24.26
51.77
84.26
118.72
151.50
179.42
200.66
215.02
223.51
227.50
228.13
225.94
220.95
212.79
200.96
185.16
165.54
143.00
119.15
96.07
75.58
58.64
45.12
34.05
24.32
15.35
7.13
-0.10
-6.46
-12.54
-19.22
-26.96
-35.45
-43.61
-50.21
-54.51
-56.50
-56.70
-55.71
-53.83
-50.97
-47.04
-42.22
-37.08
-32.41
-28.79
-26.46
-25.19
-24.68
-24.72
-25.24
-26.14
-27.10
-27.62
-27.17
-25.59
-23.18
-20.62
-18.55
-17.30
-16.72
-16.33
-15.70
-14.69
-13.56
-12.74
-12.56
-12.98
-13.55
-13.68
-12.87
-11.00
-8.37
-5.58
-3.23
-1.70
-1.03
-0.94
-1.09
-1.24
-1.30
-1.36
-1.59
-2.11
-2.94
-4.08
-5.36
-6.59
-7.60
-8.26
-8.51
-8.41
-8.04
-7.46
-6.73
-5.88
-4.96
-4.06
-3.33
-2.89
-2.83
-3.17
-3.84
-4.73
-5.68
-6.55
-7.24
-7.71
-7.98
-8.14
-8.28
-8.44
-8.66
-8.91
-9.18
-9.43
-9.64
-9.83
-10.03
-10.31
-10.68
-11.07
-11.33
-11.25
-10.76
-9.89
-8.87
-7.96
-7.39
-7.14
-7.03
-6.78
-6.19
-5.26
-4.19
-3.25
-2.62
-2.34
-2.31
-2.35
-2.41
-2.55
-2.91
-3.56
-4.45
-5.36
-6.01
-6.22
-6.01
-5.59
-5.21
-5.10
-5.29
-5.71
-6.19
-6.59
-6.84
-6.91
-6.80
-6.48
-5.93
-5.09
-3.89
-2.24
-0.07
2.61
5.68
8.89
11.88
14.32
15.96
16.74
16.76
16.20
15.15
13.65
11.74
9.46
6.98
4.58
2.54
1.00
-0.04
-0.71
-1.19
-1.59
-1.95
-2.28
-2.66
-3.22
-4.07
-5.18
-6.30
-7.06
-7.12
-6.38
-4.98
-3.28
-1.62
-0.26
0.71
1.33
1.62
1.58
1.14
0.23
-1.18
-3.11
-5.44
-7.99
-10.49
-12.75
-14.58
-15.94
-16.90
-17.62
-18.29
-19.09
-20.16
-21.48
-23.00
-24.50
-25.74
-26.53
-26.82
-26.88
-27.24
-28.58
-31.45
-36.16
-42.57
-50.18
-58.05
-64.86
-69.23
-69.86
-65.95
-57.35
-44.70
-29.19
-12.18
5.13
21.93
37.66
51.85
63.90
73.11
78.91
81.07
79.96
76.26
70.94
64.85
58.73
53.15
48.38
44.57
41.49
38.72
35.60
31.63
26.67
21.06
15.59
11.04
8.05
6.72
6.72
7.33
7.68
7.09
5.14
1.97
-1.90
-5.60
-8.37
-9.73
-9.60
-8.30
-6.18
-3.75
-1.19
1.30
3.71
6.03
8.25
10.43
12.48
14.33
15.59
15.98
15.28
13.60
11.48
9.47
8.17
7.69
7.93
8.41
8.75
8.75
8.39
8.07
8.02
8.62
9.81
11.33
12.56
12.80
11.58
8.67
4.56
-0.27
-4.98
-9.08
-12.28
-14.41
-15.53
-15.53
-14.86
-13.91
-13.58
-14.49
-16.78
-19.90
-22.51
-23.45
-21.80
-17.97
-12.94
-8.28
-5.21
-4.19
-5.10
-7.07
-9.40
-11.25
-12.36
-12.47
-11.46
-9.33
-6.10
-2.20
1.88
5.22
7.10
6.94
4.83
1.86
-0.38
0.05
4.10
11.79
21.60
31.16
37.85
39.83
36.81
29.72
20.51
10.95
2.41
-4.19
-8.35
-9.86
-9.06
-6.94
-6.01
-9.80
-21.19
-41.17
-66.45
-90.02
-104.74
-107.20
-98.34
-82.60
-65.15
-49.83
-37.71
-27.04
-14.96
1.09
21.80
46.14
71.41
95.21
115.28
130.29
140.14
145.23
146.09
143.00
136.33
126.76
115.48
104.03
93.82
85.70
79.39
73.48
66.04
55.95
43.07
28.04
12.11
-3.46
-17.65
-29.99
-40.53
-49.52
-57.09
-63.17
-67.71
-70.57
-71.84
-71.71
-70.48
-68.43
-65.63
-62.02
-57.33
-51.38
-44.04
-35.57
-26.62
-18.10
-11.15
-6.47
-4.35
-4.30
-5.43
-6.73
-7.48
-7.60
-7.33
-7.19
-7.11
-6.48
-4.11
1.09
9.59
20.82
33.00
43.76
50.34
50.15
40.90
21.11
-8.81
-46.02
-85.30
-120.49
-146.29
-160.05
-161.97
-154.18
-139.25
-119.00
-94.73
-67.68
-40.02
-14.63
5.49
18.29
23.17
20.69
12.27
-0.55
-15.86
-31.41
-44.87
-54.42
-59.15
-59.33
-56.17
-51.22
-45.82
-40.65
-35.72
-30.71
-24.96
-17.55
-7.42
6.45
24.63
46.73
71.27
95.64
116.55
131.26
138.59
139.47
136.47
132.64
130.30
130.14
131.08
130.10
124.15
111.50
92.58
69.70
46.16
25.23
9.44
0.24
-3.48
-3.63
-2.12
-0.28
0.84
0.28
-2.42
-6.65
-10.67
-14.57
-19.00
-25.02
-33.49
-45.13
-60.31
-78.40
-97.47
-115.05
-132.20
-151.23
-174.17
-201.26
-231.23
-262.63
-294.54
-326.77
-341.52
-326.25
-279.12
-211.12
-137.52
-69.00
-9.99
38.79
78.17
109.45
131.37
142.98
145.01
140.29
132.54
124.86
119.19
116.55
117.39
119.34
119.81
117.30
111.99
105.15
97.96
91.27
85.94
82.79
81.05
79.43
76.74
72.41
66.06
57.43
46.52
34.36
22.64
12.45
4.11
-2.73
-9.34
-17.73
-29.77
-46.25
-65.67
-84.94
-100.63
-109.99
-111.33
-105.02
-94.02
-82.82
-76.21
-76.80
-84.03
-93.55
-97.82
-87.70
-57.37
-8.12
53.22
111.88
151.58
160.24
134.50
81.55
17.53
-38.94
-73.46
-78.62
-54.41
-6.03
57.57
121.98
166.27
177.77
160.27
126.52
88.19
51.48
18.86
-8.99
-31.61
-48.30
-57.11
-57.09
-50.00
-40.11
-31.89
-27.97
-28.57
-31.46
-33.13
-29.26
-18.04
-2.72
10.05
14.64
10.29
-0.93
-12.34
-18.22
-16.01
-7.65
2.39
11.26
21.14
38.17
68.09
111.60
155.16
180.85
177.13
147.12
104.79
64.62
34.33
14.30
0.72
-11.59
-24.70
-37.68
-48.01
-54.06
-55.72
-54.44
-52.19
-50.23
-50.39
-52.40
-54.54
-54.21
-49.58
-39.80
-24.75
-4.50
20.98
49.69
78.10
100.97
112.69
109.12
89.82
58.55
18.12
-24.34
-62.78
-94.07
-118.82
-140.34
-162.96
-190.34
-223.96
-262.59
-301.58
-334.65
-354.96
-357.19
-339.45
-303.79
-255.07
-199.06
-140.74
-82.91
-27.40
24.61
72.20
114.71
152.81
189.05
227.44
271.53
322.97
379.82
436.72
485.94
518.93
529.72
517.56
487.26
446.73
403.73
362.69
323.54
282.54
234.18
174.87
105.47
30.80
-43.15
-111.73
-172.89
-225.10
-262.10
-279.12
-277.55
-263.11
-241.52
-216.66
-191.37
-168.28
-149.38
-135.59
-127.11
-122.75
-118.92
-111.52
-97.76
-77.96
-54.94
-32.23
-13.33
-1.42
0.24
-8.82
-25.64
-43.98
-56.62
-58.11
-46.64
-26.76
-9.73
-9.54
-34.91
-85.26
-150.65
-216.98
-271.63
-306.46
-320.14
-309.57
-278.52
-232.80
-178.53
-120.46
-62.46
-15.58
11.14
20.40
17.97
7.67
-8.85
-27.56
-40.61
-41.21
-25.42
8.81
61.25
128.78
204.99
281.59
349.86
405.60
446.06
470.63
482.40
487.54
492.46
500.64
511.22
496.82
442.06
348.56
233.72
119.27
20.96
-53.96
-104.61
-135.31
-155.30
-169.06
-181.12
-196.27
-217.37
-242.96
-267.59
-279.38
-269.24
-234.42
-177.64
-109.71
-45.42
2.15
26.37
28.05
13.18
-11.47
-40.31
-67.74
-90.33
-106.29
-114.89
-115.96
-110.12
-99.07
-86.42
-75.85
-68.59
-63.72
-58.61
-50.36
-37.34
-20.46
-3.01
10.42
16.56
15.51
10.19
4.78
2.82
6.03
14.11
25.33
37.20
47.33
53.96
56.26
54.47
49.88
44.46
40.02
37.20
34.91
30.81
22.58
8.92
-9.88
-32.22
-55.70
-77.68
-96.35
-110.73
-120.55
-125.59
-125.53
-120.25
-109.81
-94.56
-74.73
-51.82
-28.30
-7.02
10.35
23.66
33.63
41.31
47.39
52.77
56.65
57.70
54.77
48.44
40.34
31.49
21.76
10.15
-3.07
-18.32
-36.10
-57.38
-82.48
-105.96
-121.08
-122.14
-115.41
-102.19
-83.37
-57.27
-26.61
4.82
33.86
58.08
76.16
87.71
94.13
95.82
92.82
85.04
74.00
62.40
52.64
46.07
42.79
43.09
46.02
50.59
55.98
62.38
70.16
78.60
85.78
89.20
87.63
80.85
69.97
56.69
42.73
28.81
14.18
-2.70
-23.03
-46.23
-70.05
-90.73
-104.02
-106.06
-94.52
-69.36
-32.77
11.37
58.33
103.08
141.38
170.50
189.86
200.78
205.49
205.92
202.62
194.72
180.55
159.21
131.83
101.69
73.27
50.69
36.56
31.70
35.43
45.37
57.68
67.55
69.63
59.14
33.29
-7.88
-61.57
-123.50
-190.22
-258.81
-325.72
-385.11
-429.05
-449.84
-443.09
-409.99
-357.48
-297.16
-240.09
-192.35
-153.16
-117.21
-79.32
-37.87
4.45
42.55
69.88
82.07
78.52
61.97
35.87
1.89
-40.23
-90.62
-135.84
-160.00
-153.59
-120.45
-72.83
-22.70
22.18
58.29
85.34
104.94
117.58
123.23
122.43
117.21
110.36
104.08
99.56
97.18
96.85
97.04
95.87
92.24
86.67
80.68
75.76
72.94
72.77
75.40
79.81
84.47
88.01
89.88
90.13
88.86
86.07
81.66
75.56
67.24
55.95
41.23
23.73
4.45
-15.17
-33.49
-48.93
-60.28
-67.28
-70.64
-71.78
-72.25
-73.34
-75.56
-78.56
-81.30
-82.78
-82.43
-80.49
-77.91
-75.74
-74.97
-76.22
-79.79
-85.58
-92.62
-98.65
-100.15
-93.43
-76.32
-49.79
-18.12
12.49
36.34
50.35
54.86
52.59
46.77
39.59
31.76
23.38
14.96
7.85
3.78
3.74
7.50
13.65
20.55
27.23
33.99
42.14
53.01
66.98
82.75
97.64
108.69
113.58
111.78
104.64
94.76
85.02
77.77
74.19
73.92
74.98
73.71
65.97
48.66
21.69
-11.24
-43.53
-68.12
-80.41
-79.92
-70.12
-56.24
-42.72
-31.61
-23.04
-16.70
-13.18
-14.47
-22.48
-38.04
-60.07
-86.17
-113.12
-137.04
-153.93
-159.72
-151.88
-130.19
-98.69
-64.54
-35.70
-17.63
-10.98
-12.34
-16.33
-18.94
-18.01
-13.50
-5.63
6.03
22.11
42.29
63.85
82.51
90.78
84.59
64.12
33.62
-0.16
-30.45
-51.88
-61.60
-59.26
-47.01
-28.30
-7.33
12.22
28.72
42.29
54.34
65.58
75.05
80.03
77.50
65.72
44.95
17.90
-11.92
-40.96
-66.66
-87.34
-101.68
-108.63
-107.62
-99.39
-85.71
-69.29
-52.46
-36.55
-21.83
-8.03
4.73
15.89
24.68
31.24
36.69
42.58
49.41
55.36
56.80
49.70
32.21
6.04
-23.51
-49.56
-66.32
-71.13
-65.39
-53.26
-39.94
-29.16
-22.03
-16.93
-10.76
-1.09
12.64
28.37
42.64
52.11
55.06
51.97
44.84
36.22
27.76
20.06
12.58
4.59
-4.13
-12.64
-18.81
-20.10
-14.42
-1.56
16.66
36.59
54.24
66.80
73.33
74.61
71.77
65.39
54.86
39.55
20.20
0.11
-15.00
-19.10
-8.28
16.53
49.72
82.60
106.88
117.54
113.76
98.27
74.97
47.62
19.08
-8.04
-30.96
-46.93
-54.17
-53.11
-46.19
-37.40
-30.22
-26.84
-27.65
-31.73
-37.83
-44.67
-51.54
-57.70
-62.53
-65.02
-64.12
-59.16
-50.32
-39.38
-28.87
-21.61
-19.01
-20.71
-24.65
-28.24
-29.74
-28.40
-24.54
-18.19
-9.09
3.30
18.77
35.76
51.61
63.02
67.62
64.18
53.48
37.66
19.73
2.70
-11.45
-21.99
-29.73
-35.65
-40.30
-42.78
-41.01
-32.96
-17.79
2.98
26.00
46.88
62.20
70.28
71.66
68.89
65.25
63.83
66.25
72.37
79.79
84.44
81.71
68.29
44.31
14.37
-12.58
-26.34
-19.52
8.23
48.80
87.85
109.83
104.38
70.23
15.98
-43.76
-93.84
-123.62
-129.68
-114.87
-85.84
-49.67
-12.41
21.36
47.51
61.84
61.15
44.32
14.36
-21.57
-53.23
-70.76
-68.25
-45.84
-10.02
29.03
59.77
73.00
63.50
31.64
-16.83
-71.90
-121.04
-152.67
-158.43
-135.96
-88.57
-24.85
43.83
105.89
151.40
174.09
171.26
145.17
102.52
54.00
11.39
-16.11
-24.61
-16.90
-0.05
17.27
28.92
33.02
32.16
30.70
31.62
35.45
40.20
43.46
43.15
38.70
30.54
20.30
8.88
-4.35
-19.91
-36.95
-51.93
-60.13
-57.69
-43.35
-17.52
15.71
48.88
74.71
89.08
93.07
91.49
90.32
94.77
110.85
140.24
178.46
216.75
246.37
261.83
262.14
250.26
233.28
224.95
236.48
270.95
321.93
377.32
423.90
451.60
455.48
406.78
298.94
152.80
5.93
-112.76
-195.12
-247.99
-279.20
-299.20
-312.82
-317.94
-314.18
-306.08
-301.50
-302.46
-306.14
-306.46
-298.96
-281.82
-252.74
-212.81
-166.94
-122.06
-83.45
-53.43
-31.00
-14.54
-2.19
8.81
19.16
27.04
28.96
22.25
5.61
-18.36
-45.71
-72.56
-95.12
-111.26
-120.87
-125.33
-126.25
-125.48
-123.02
-119.60
-115.96
-112.42
-109.16
-106.50
-104.78
-103.86
-107.02
-111.16
-114.17
-114.47
-110.86
-102.50
-88.90
-70.10
-42.45
-9.60
25.88
61.27
94.45
123.85
148.27
167.03
179.99
187.40
188.26
183.09
172.20
156.00
135.13
110.05
82.56
54.73
28.62
4.67
-15.95
-32.64
-45.11
-53.40
-58.26
-59.95
-61.62
-61.84
-60.35
-56.58
-50.27
-41.37
-30.13
-17.84
-5.35
6.31
16.34
23.22
25.98
23.95
16.86
9.48
1.74
-6.38
-14.64
-22.29
-29.01
-34.44
-38.28
-40.38
-40.68
-39.97
-38.50
-36.45
-33.87
-31.11
-28.38
-25.79
-23.32
-20.81
-18.65
-16.77
-15.11
-13.69
-12.76
-12.47
-12.80
-13.49
-14.10
-14.58
-14.81
-14.82
-15.03
-16.00
-18.16
-21.56
-25.79
-30.12
-33.91
-36.67
-38.31
-39.47
-41.17
-44.56
-50.41
-58.62
-67.98
-76.66
-82.70
-84.89
-83.74
-81.30
-80.60
-84.81
-96.16
-114.81
-138.06
-161.19
-176.61
-177.80
-161.73
-130.70
-91.71
-53.86
-24.87
-6.76
3.57
12.68
26.90
49.98
81.96
120.03
159.57
195.08
220.32
228.86
216.30
182.72
134.51
82.82
40.04
14.47
7.19
12.10
19.43
20.82
12.68
-3.06
-21.41
-37.27
-47.86
-52.70
-52.53
-48.15
-39.78
-27.77
-13.60
-0.45
7.78
7.68
-2.43
-21.53
-46.25
-71.90
-94.29
-110.63
-120.46
-124.82
-125.85
-125.52
-125.03
-124.50
-123.35
-121.45
-118.87
-116.67
-116.00
-118.14
-123.89
-133.12
-144.81
-157.19
-168.85
-178.42
-185.12
-188.25
-187.26
-181.25
-171.77
-159.30
-143.86
-125.80
-105.47
-83.60
-61.10
-38.96
-18.38
-0.31
14.73
26.43
34.51
39.01
40.21
38.52
34.68
29.27
23.16
17.19
12.16
8.60
6.74
6.81
8.66
12.26
17.23
23.41
30.58
38.61
47.36
56.49
65.89
75.11
83.92
91.87
98.67
103.92
107.17
108.00
105.84
100.26
90.71
76.99
59.02
37.16
12.18
-14.84
-42.44
-69.23
-93.69
-114.66
-131.13
-142.51
-148.54
-149.20
-144.90
-136.13
-123.82
-108.94
-92.70
-76.17
-60.22
-45.42
-31.79
-19.20
-7.26
4.22
15.38
26.10
36.11
45.31
53.73
61.90
70.40
79.95
90.96
103.51
117.39
132.20
147.77
163.98
181.12
199.31
218.86
240.05
263.15
288.40
315.24
342.20
366.18
383.42
390.07
383.88
364.85
335.34
299.44
261.45
225.21
193.19
167.11
148.09
137.01
134.09
138.14
146.41
154.57
158.33
154.55
142.55
124.04
102.29
80.82
62.12
47.55
37.18
30.74
27.59
27.08
28.19
29.41
28.98
25.06
16.72
3.99
-11.67
-27.98
-42.39
-52.88
-58.66
-59.76
-57.12
-51.61
-44.05
-35.12
-25.63
-16.80
-9.74
-5.49
-4.10
-5.02
-7.11
-9.21
-10.48
-10.35
-8.85
-6.14
-3.17
-1.02
-1.12
-4.41
-10.87
-19.43
-27.97
-34.66
-38.15
-38.43
-36.18
-32.37
-27.73
-22.64
-17.81
-14.22
-13.34
-16.06
-22.20
-30.07
-37.10
-41.06
-40.79
-37.07
-31.76
-27.30
-25.34
-26.36
-29.50
-33.00
-35.16
-34.59
-31.30
-26.11
-20.62
-16.14
-12.96
-10.29
-6.32
0.17
9.22
18.80
25.67
26.42
18.96
3.40
-18.38
-42.92
-66.47
-84.87
-94.23
-91.27
-74.35
-44.82
-7.19
31.15
62.63
81.53
86.17
78.88
64.57
48.66
34.80
24.77
18.22
14.14
11.30
8.79
5.94
2.00
-3.54
-11.24
-20.85
-31.44
-41.00
-47.12
-47.91
-42.69
-32.88
-21.10
-10.67
-3.85
-1.30
-1.89
-3.49
-4.27
-3.28
-1.10
1.07
1.76
0.16
-3.76
-9.47
-15.96
-22.44
-28.05
-32.48
-35.61
-37.68
-39.01
-39.67
-39.77
-39.14
-38.06
-36.70
-35.30
-33.52
-30.45
-25.12
-16.70
-5.75
6.34
17.12
24.42
26.90
24.60
18.87
11.45
4.24
-1.86
-6.43
-9.79
-12.12
-13.31
-13.19
-11.70
-9.74
-8.24
-7.93
-7.89
-5.98
0.15
11.33
24.95
36.45
40.62
34.88
20.22
0.97
-17.60
-31.55
-38.47
-37.96
-30.36
-17.76
-4.43
3.12
-1.51
-20.88
-51.55
-83.38
-104.72
-105.92
-84.13
-43.71
5.86
53.60
90.68
111.38
114.70
100.94
74.30
40.82
7.07
-21.63
-43.15
-57.98
-68.04
-72.71
-72.62
-65.00
-47.45
-20.50
11.80
42.59
65.27
76.28
78.40
72.24
61.48
47.77
30.35
8.01
-18.66
-45.30
-64.61
-67.88
-56.31
-32.59
-2.48
28.62
58.93
90.62
127.78
152.30
186.24
218.83
241.51
248.41
239.95
221.82
201.85
185.82
177.05
171.85
159.28
132.72
89.72
35.40
-20.61
-67.38
-96.75
-102.74
-88.74
-63.81
-34.59
-5.11
27.87
70.57
128.53
183.34
252.69
323.58
381.69
417.67
427.23
415.83
391.75
362.83
334.14
311.29
293.62
282.47
280.29
268.88
234.91
167.64
63.44
-71.86
-222.38
-373.94
-512.81
-623.39
-705.55
-759.29
-785.80
-787.02
-766.22
-726.48
-674.30
-615.20
-553.33
-492.47
-431.76
-370.14
-307.41
-244.59
-183.02
-125.78
-74.73
-30.59
6.00
37.40
65.96
93.36
120.41
147.46
173.96
199.68
224.91
250.06
277.48
309.36
346.45
386.91
426.05
457.57
475.70
477.75
464.87
442.15
415.86
390.82
368.86
348.92
328.42
304.78
276.41
242.77
204.13
161.22
115.16
67.62
20.80
-23.09
-62.39
-96.38
-125.29
-149.96
-171.19
-189.29
-204.13
-215.76
-224.81
-233.22
-243.75
-258.82
-278.71
-300.44
-318.96
-328.90
-327.15
-313.34
-289.19
-257.29
-220.17
-181.48
-146.36
-121.52
-112.48
-120.65
-141.54
-166.35
-186.40
-197.30
-201.26
-204.95
-214.91
-233.04
-255.07
-272.76
-278.43
-268.06
-241.98
-203.79
-157.49
-105.72
-49.60
9.50
67.68
117.02
147.15
149.33
120.11
63.58
-9.33
-84.84
-150.82
-195.96
-214.39
-206.02
-175.41
-130.10
-78.51
-27.15
19.76
60.17
93.43
118.83
135.32
143.25
143.08
134.47
116.93
90.03
54.72
14.27
-26.10
-59.81
-81.54
-85.52
-72.06
-47.38
-21.34
-2.44
6.35
7.36
7.07
10.48
19.11
30.61
41.72
50.53
57.60
65.89
78.55
97.94
124.49
156.96
192.08
225.39
251.52
264.72
260.25
235.29
191.00
132.97
70.96
15.56
-25.53
-50.69
-65.12
-77.19
-94.37
-118.42
-144.62
-163.82
-167.62
-152.55
-121.02
-79.10
-32.04
17.03
66.45
113.16
150.97
171.74
168.87
141.33
93.17
36.60
-13.57
-45.69
-55.82
-48.13
-31.03
-13.15
-0.65
2.59
-4.92
-23.10
-49.65
-79.67
-106.46
-123.20
-124.14
-108.29
-81.14
-52.29
-31.41
-24.01
-29.59
-43.09
-57.90
-69.11
-74.85
-75.99
-73.96
-69.92
-64.48
-57.68
-49.29
-37.91
-21.58
2.34
36.15
80.34
130.78
179.01
213.98
225.52
208.80
167.17
111.93
58.94
22.66
10.97
22.59
48.31
74.92
89.66
84.09
56.44
11.98
-38.72
-82.41
-106.92
-104.59
-74.47
-23.36
36.10
89.51
125.18
136.89
124.82
93.98
50.25
2.14
-41.71
-74.38
-91.91
-93.55
-81.47
-59.95
-34.61
-11.40
5.01
11.69
7.46
-6.87
-28.51
-53.12
-75.61
-91.11
-96.34
-89.10
-71.32
-48.95
-29.24
-17.59
-15.47
-21.01
-31.05
-43.17
-56.07
-69.40
-82.10
-91.46
-94.56
-89.11
-75.38
-56.31
-36.04
-17.76
-2.35
12.06
29.30
52.95
84.47
121.94
160.63
194.11
216.23
222.37
208.95
177.53
134.39
89.15
51.08
25.48
10.84
-0.54
-18.78
-50.53
-94.21
-139.72
-171.92
-177.74
-151.53
-98.04
-29.86
37.45
90.76
122.79
131.94
120.85
93.98
56.85
15.96
-20.82
-45.41
-52.17
-40.56
-16.41
10.23
28.49
30.95
16.39
-10.52
-42.31
-72.96
-100.42
-125.93
-151.03
-174.97
-193.73
-201.45
-193.45
-168.80
-130.25
-85.93
-46.28
-19.08
-6.01
-3.05
-4.59
-6.20
-5.35
-0.37
10.11
27.26
51.04
78.63
103.59
117.53
112.72
85.60
38.34
-21.92
-85.02
-140.60
-180.76
-201.44
-202.15
-184.93
-153.24
-111.14
-62.95
-12.85
34.57
73.96
98.99
104.39
88.88
57.61
21.78
-5.33
-13.51
-0.43
27.86
59.80
84.78
97.96
102.28
106.01
117.86
142.77
179.47
221.67
260.36
287.43
298.05
292.12
274.27
251.89
232.92
222.84
223.23
231.10
240.38
244.13
236.68
215.77
182.71
141.69
98.14
57.30
22.67
-4.22
-23.76
-38.31
-51.39
-67.09
-88.04
-114.04
-140.75
-160.88
-167.28
-156.45
-131.73
-102.83
-83.09
-83.87
-109.79
-156.13
-209.80
-254.18
-274.51
-263.61
-223.73
-165.71
-104.80
-55.92
-29.67
-30.29
-55.84
-99.33
-150.63
-197.93
-230.12
-238.60
-219.51
-174.94
-111.96
-40.61
29.58
91.27
140.34
175.29
196.19
204.49
202.81
194.81
183.89
172.04
158.61
140.61
114.30
77.03
29.92
-21.52
-67.83
-98.70
-106.74
-91.02
-58.40
-21.22
6.85
16.20
4.22
-24.87
-63.91
-107.05
-152.25
-200.27
-250.80
-299.53
-337.56
-355.03
-345.89
-311.54
-260.54
-204.85
-154.51
-113.97
-82.03
-54.33
-27.59
-1.82
20.16
35.21
42.89
45.98
49.57
58.28
74.50
97.51
123.78
148.07
164.21
166.56
151.32
118.93
75.19
31.11
-0.10
-7.83
11.46
52.02
100.89
142.68
165.88
166.53
148.62
120.90
92.46
69.35
53.13
42.61
35.68
31.21
29.11
29.34
31.00
31.90
29.82
23.43
13.38
1.89
-8.11
-14.32
-15.87
-13.30
-8.27
-2.44
3.32
9.71
18.68
32.19
50.37
69.85
83.74
83.57
63.71
25.12
-23.01
-66.09
-90.25
-88.54
-64.57
-30.31
-0.45
14.69
13.02
0.05
-15.52
-26.93
-32.03
-32.92
-32.81
-33.32
-33.18
-29.70
-21.01
-7.72
6.91
18.59
24.04
22.70
16.90
10.67
7.71
9.57
15.25
21.50
24.88
23.15
16.43
6.87
-2.54
-9.30
-12.58
-12.96
-12.13
-11.49
-11.64
-11.96
-11.20
-8.33
-3.03
3.79
10.71
16.11
18.98
18.92
16.14
11.30
5.32
-0.30
-3.99
-4.45
-1.77
2.19
4.33
1.74
-6.34
-18.00
-28.94
-34.69
-32.35
-21.74
-5.02
14.43
32.90
46.89
52.94
48.35
32.10
6.33
-23.39
-49.37
-64.43
-64.89
-51.78
-30.26
-7.04
12.17
24.37
29.40
28.77
24.63
18.64
12.26
6.59
2.71
1.38
2.70
5.95
9.55
11.88
11.62
8.62
3.72
-1.44
-5.15
-6.36
-4.82
-1.33
3.01
7.04
10.12
12.16
13.43
14.36
15.13
15.82
16.16
15.92
14.77
12.59
9.53
5.90
2.26
-1.09
-3.92
-6.35
-8.47
-10.31
-11.68
-12.20
-11.82
-10.71
-9.59
-9.07
-9.47
-10.39
-10.83
-9.70
-5.99
0.50
9.48
19.75
29.64
37.11
40.28
38.08
30.65
19.63
7.37
-3.67
-12.08
-17.62
-20.85
-22.53
-22.89
-21.88
-19.26
-15.47
-11.26
-7.61
-4.96
-2.93
-0.75
2.37
6.39
10.80
14.56
17.02
18.08
18.34
18.69
19.53
20.80
21.82
21.94
20.84
18.91
17.18
17.04
19.67
25.01
32.08
39.05
44.53
48.19
51.01
54.63
60.55
69.10
79.01
88.46
96.21
102.38
107.93
113.26
117.61
120.17
121.05
121.92
125.42
133.18
143.93
153.40
155.83
144.11
116.61
78.02
37.40
3.77
-18.30
-30.02
-35.68
-39.10
-42.39
-45.30
-47.61
-50.37
-55.85
-66.38
-83.34
-105.28
-129.18
-151.13
-164.86
-165.50
-150.79
-121.64
-81.57
-35.46
12.20
57.34
97.37
130.50
156.92
176.65
189.22
194.18
191.56
182.45
167.38
147.29
124.85
102.62
82.71
66.19
53.19
43.00
34.69
25.43
13.06
-3.33
-23.78
-47.68
-74.68
-104.93
-138.98
-177.29
-222.04
-274.03
-332.28
-394.73
-458.88
-523.21
-587.56
-652.55
-703.38
-728.69
-722.28
-685.79
-627.61
-557.27
-480.80
-399.34
-311.25
-216.36
-120.29
-31.67
41.07
93.12
125.17
142.16
149.46
153.71
159.42
167.82
179.69
196.62
221.12
255.91
301.12
353.07
404.58
445.40
464.42
454.48
415.62
355.77
288.04
225.69
177.60
146.17
127.79
116.15
106.21
96.13
86.74
79.60
75.22
72.81
71.07
68.54
64.54
59.20
53.21
47.00
40.87
33.77
24.26
11.23
-6.37
-28.84
-55.67
-85.87
-117.99
-151.35
-185.77
-220.17
-251.27
-274.06
-282.94
-274.19
-248.55
-211.60
-172.07
-138.19
-115.01
-101.03
-91.82
-82.22
-68.64
-50.03
-27.15
-1.51
25.81
53.51
80.87
106.42
128.17
144.11
152.78
154.18
149.69
141.58
132.32
123.94
117.09
111.31
105.60
98.97
91.05
82.21
73.26
65.14
58.66
53.84
50.15
46.78
43.01
38.51
33.44
28.30
23.71
20.22
17.93
16.57
15.61
14.47
12.82
10.67
8.77
7.34
6.85
7.43
8.91
10.75
12.32
13.18
13.33
13.21
13.49
14.87
17.62
21.54
25.99
30.17
33.71
36.67
39.52
42.74
46.79
51.13
55.23
58.89
62.16
64.84
65.76
62.62
52.88
35.16
10.43
-17.81
-44.77
-66.31
-80.29
-86.72
-86.80
-81.74
-72.36
-59.61
-45.43
-33.07
-26.19
-27.32
-36.13
-49.07
-60.50
-64.88
-59.10
-44.02
-24.21
-6.07
4.68
5.44
-2.50
-14.82
-26.36
-33.37
-35.08
-33.17
-30.36
-29.05
-30.36
-33.57
-36.26
-34.78
-25.05
-4.35
27.84
68.76
112.50
151.20
177.61
187.12
179.06
156.35
123.52
85.85
48.04
13.72
-14.70
-35.84
-49.48
-56.70
-55.79
-47.36
-32.74
-13.75
7.35
27.83
44.92
56.32
61.03
59.75
53.88
45.49
36.23
26.85
17.33
7.54
-2.22
-11.26
-18.68
-24.55
-29.32
-33.57
-37.36
-39.84
-39.45
-34.72
-25.20
-12.04
2.03
13.99
21.65
24.25
22.47
17.75
11.50
4.49
-3.31
-12.86
-25.45
-42.43
-64.52
-91.28
-120.48
-148.21
-169.70
-180.70
-179.07
-165.50
-143.36
-117.34
-91.91
-70.11
-53.20
-41.11
-33.20
-28.87
-27.62
-28.92
-31.80
-34.97
-37.11
-37.33
-35.66
-33.10
-31.44
-32.51
-37.53
-46.29
-57.04
-66.75
-72.01
-70.18
-60.24
-43.29
-22.12
-0.36
18.67
32.78
41.24
44.55
43.77
40.09
34.42
27.58
20.37
13.60
7.93
3.60
0.24
-2.82
-6.06
-9.36
-11.90
-12.69
-11.13
-7.59
-3.25
0.41
2.20
1.71
-0.86
-4.91
-9.67
-14.44
-18.34
-20.56
-20.27
-17.09
-11.20
-3.60
4.10
10.13
13.00
12.22
8.36
3.14
-1.21
-2.62
0.05
6.60
15.65
25.13
33.25
39.03
42.57
44.66
46.28
48.05
49.89
51.25
51.25
49.14
44.48
37.40
28.67
19.60
11.84
6.71
4.78
5.47
7.33
8.61
8.14
5.90
2.75
-0.01
-1.64
-2.20
-2.46
-3.23
-4.79
-6.65
-7.81
-7.43
-5.11
-1.02
4.34
10.49
16.94
23.22
28.64
32.45
34.03
33.26
30.55
26.57
21.92
16.82
11.13
4.56
-2.84
-10.65
-18.07
-24.31
-28.84
-31.51
-32.48
-32.01
-30.46
-28.17
-25.64
-23.50
-22.49
-23.38
-26.61
-32.19
-39.43
-47.07
-53.53
-57.48
-58.35
-56.63
-53.80
-51.60
-51.25
-52.76
-54.84
-55.46
-52.82
-46.20
-36.13
-24.22
-12.33
-2.02
5.82
10.82
12.94
12.31
9.32
4.86
0.10
-3.75
-6.03
-6.75
-6.55
-6.15
-5.76
-4.96
-2.65
2.31
10.71
22.51
36.81
52.07
66.38
77.84
84.84
86.29
81.83
72.04
58.45
43.31
29.21
18.46
12.71
12.36
16.74
24.28
33.06
41.37
47.97
52.23
53.93
53.23
50.39
45.93
40.54
35.08
30.41
27.10
25.33
24.77
24.83
24.87
24.35
23.07
21.04
18.53
15.94
13.89
13.06
13.99
16.77
20.81
24.90
27.38
26.89
22.76
15.47
6.55
-1.90
-7.97
-10.69
-10.43
-8.85
-8.15
-10.19
-15.69
-23.91
-33.00
-40.79
-45.70
-47.09
-45.21
-40.66
-33.89
-25.18
-14.90
-3.93
6.28
14.03
18.10
18.27
15.43
11.26
7.38
4.88
3.97
4.27
5.19
6.35
7.67
9.26
11.16
13.13
14.78
15.59
15.27
13.77
11.22
7.90
4.08
0.11
-3.65
-6.76
-8.90
-9.88
-9.73
-8.70
-7.13
-5.51
-4.37
-4.25
-5.40
-7.60
-10.08
-11.81
-11.98
-10.43
-7.77
-4.89
-2.44
-0.38
1.76
4.38
7.27
9.55
10.24
8.74
5.34
0.93
-3.54
-7.50
-10.90
-13.79
-16.11
-17.46
-17.47
-16.12
-13.82
-11.23
-8.78
-6.50
-4.00
-0.89
2.95
7.20
11.30
14.73
17.04
18.00
17.38
15.06
11.10
5.99
0.61
-3.96
-6.70
-7.04
-4.85
-0.53
5.04
10.57
14.43
15.01
11.18
2.88
-8.61
-20.73
-30.39
-34.93
-32.92
-24.60
-11.62
3.51
18.12
29.84
37.19
39.66
37.84
33.32
28.17
24.26
22.59
22.95
24.02
24.16
22.15
17.71
11.67
5.41
0.34
-2.70
-3.60
-2.91
-1.63
-0.83
-1.44
-3.90
-8.05
-13.04
-17.55
-20.19
-19.87
-16.17
-9.29
0.04
10.85
21.99
32.28
40.54
45.73
47.23
44.79
38.52
28.56
14.99
-2.06
-21.90
-42.90
-62.43
-77.53
-85.88
-86.55
-80.27
-68.99
-55.15
-41.07
-28.61
-19.26
-13.94
-12.83
-14.92
-17.99
-19.18
-16.03
-7.58
5.25
20.12
34.42
46.31
55.35
62.07
67.35
71.64
74.75
76.02
74.75
70.54
63.36
53.42
41.08
26.85
11.54
-3.76
-17.71
-29.00
-36.45
-39.37
-37.71
-32.18
-24.19
-15.44
-7.52
-1.48
2.06
2.89
0.91
-3.62
-9.72
-15.59
-19.02
-18.41
-13.69
-6.77
-0.65
1.99
0.08
-5.51
-12.85
-20.14
-26.59
-32.23
-37.19
-41.10
-43.08
-42.45
-39.22
-34.31
-28.70
-22.88
-16.39
-8.38
1.46
12.37
22.47
29.70
32.65
31.36
27.19
22.12
17.97
15.75
15.61
16.97
19.12
21.32
23.05
23.76
22.84
19.74
14.16
6.50
-2.19
-10.39
-16.84
-20.95
-23.01
-23.80
-23.88
-23.31
-21.59
-18.46
-14.28
-10.25
-7.79
-7.76
-10.00
-13.45
-16.94
-19.86
-22.46
-25.43
-29.28
-33.92
-38.54
-42.27
-44.65
-46.01
-47.22
-49.17
-52.25
-56.05
-59.56
-61.41
-60.38
-55.52
-46.49
-33.49
-17.36
0.61
18.95
36.19
51.21
63.31
72.22
77.99
80.93
81.56
80.43
78.06
74.66
70.03
63.64
54.96
43.98
31.41
18.81
8.08
0.85
-1.97
-0.50
4.47
11.72
19.99
27.93
34.16
37.18
35.77
29.52
19.16
6.60
-5.69
-15.41
-21.21
-22.75
-20.59
-15.71
-9.20
-2.28
3.74
7.60
8.45
6.16
1.54
-3.93
-8.65
-11.30
-11.32
-8.76
-4.22
1.36
6.97
11.61
14.46
15.02
13.14
8.93
2.86
-4.30
-11.44
-17.07
-19.75
-18.58
-13.65
-6.11
2.17
9.44
14.59
17.44
18.52
18.52
17.93
16.85
15.30
13.38
11.42
9.90
9.05
8.77
8.56
8.04
7.06
5.95
5.14
4.89
5.07
5.14
4.63
3.28
1.36
-0.67
-2.33
-3.50
-4.36
-5.24
-6.48
-8.22
-10.53
-13.38
-16.68
-20.09
-22.94
-24.47
-23.96
-21.21
-16.51
-10.76
-5.07
-0.63
1.61
1.21
-1.79
-6.65
-12.24
-17.17
-20.32
-21.01
-19.14
-15.05
-9.22
-2.21
5.48
13.20
20.22
25.75
29.16
30.24
29.17
26.49
22.68
18.10
12.87
7.11
1.14
-4.38
-8.53
-10.44
-9.48
-5.59
0.85
8.97
17.48
24.88
29.56
30.30
26.57
18.90
8.66
-2.38
-12.71
-21.45
-28.33
-33.48
-36.93
-38.66
-38.69
-37.34
-35.32
-33.42
-32.12
-31.21
-29.90
-27.13
-22.15
-14.83
-5.74
3.99
13.03
20.01
23.96
24.36
21.42
15.99
9.42
3.14
-1.72
-4.45
-4.99
-3.63
-1.02
2.10
5.00
7.09
8.15
8.25
7.85
7.46
7.49
8.00
8.72
9.16
8.76
7.21
4.41
0.52
-4.15
-9.10
-13.63
-16.96
-18.26
-17.15
-13.78
-9.08
-4.42
-1.21
-0.28
-1.58
-4.31
-7.15
-8.96
-9.05
-7.50
-4.85
-1.92
0.55
2.10
2.54
1.86
0.09
-2.71
-6.44
-10.79
-15.06
-18.26
-19.24
-17.24
-12.14
-4.73
3.51
10.96
16.30
19.06
19.46
18.32
16.54
14.84
13.60
12.92
12.80
13.14
13.89
14.82
15.62
15.91
15.45
14.22
12.44
10.43
8.50
6.88
5.64
4.88
4.70
5.14
6.06
7.02
7.45
6.85
5.16
2.81
0.59
-0.77
-1.04
-0.60
-0.30
-0.89
-2.74
-5.58
-8.74
-11.43
-13.03
-13.23
-11.85
-8.89
-4.42
1.23
7.26
12.59
15.95
16.40
13.64
8.33
1.80
-4.32
-8.68
-10.68
-10.53
-9.02
-7.01
-5.14
-3.58
-2.31
-1.36
-1.01
-1.59
-3.33
-6.13
-9.40
-12.53
-14.92
-16.20
-16.20
-14.89
-12.43
-9.13
-5.62
-2.56
-0.51
0.31
0.17
-0.47
-1.18
-1.93
-2.78
-3.72
-4.21
-3.38
-0.55
4.41
10.80
17.32
22.43
25.20
25.65
24.99
24.90
26.88
31.85
39.90
50.29
61.42
71.56
79.25
84.34
87.25
88.52
88.95
89.49
91.00
93.59
96.25
96.13
89.66
73.14
44.48
6.60
-31.70
-58.63
-64.39
-45.52
-6.94
41.47
88.12
122.75
140.05
139.65
123.44
93.26
50.99
-4.20
-63.42
-111.16
-136.16
-136.59
-118.63
-91.79
-66.90
-48.27
-37.78
-34.72
-37.15
-45.79
-61.58
-82.99
-108.49
-137.10
-168.86
-205.40
-248.06
-288.65
-320.90
-339.37
-339.13
-316.45
-270.12
-203.80
-127.28
-57.35
-0.05
40.05
62.81
73.47
79.75
88.52
104.10
127.02
157.20
194.17
233.00
260.92
264.88
237.97
184.67
118.61
55.60
7.42
-20.60
-31.40
-31.59
-26.86
-20.65
-14.71
-10.33
-8.74
-10.26
-13.26
-16.19
-17.45
-15.64
-10.21
-2.09
6.48
12.90
14.97
12.39
6.60
1.42
2.58
15.09
39.96
71.90
100.03
110.78
95.99
57.18
5.65
-41.77
-70.16
-72.86
-53.23
-21.42
11.62
38.98
58.20
69.20
71.59
63.77
43.66
11.77
-26.93
-63.86
-90.14
-100.87
-97.16
-84.79
-71.12
-61.64
-58.23
-59.37
-61.82
-63.31
-64.28
-67.45
-75.91
-90.83
-109.89
-126.85
-133.72
-123.65
-94.02
-47.65
8.46
65.75
116.61
155.29
178.64
181.57
163.55
130.37
91.93
58.61
37.73
31.83
38.07
51.19
66.41
80.06
90.35
96.77
98.80
95.97
88.49
76.36
60.46
42.46
22.72
1.64
-20.40
-42.70
-64.13
-83.32
-100.61
-117.03
-121.04
-107.59
-77.42
-36.53
7.12
42.87
70.52
90.20
102.21
106.35
101.64
86.87
61.52
25.97
-14.00
-50.58
-78.52
-95.78
-104.21
-107.41
-107.88
-106.61
-103.54
-97.93
-89.69
-80.42
-71.10
-63.74
-59.82
-59.49
-61.71
-64.69
-66.10
-64.67
-63.99
-62.83
-62.48
-63.97
-67.60
-72.80
-78.41
-83.40
-87.76
-92.81
-94.51
-96.39
-101.44
-111.33
-126.53
-146.35
-168.34
-188.07
-203.26
-205.36
-189.87
-155.97
-107.40
-51.32
4.55
54.86
97.83
132.82
161.62
184.86
202.54
214.04
218.79
217.20
214.81
211.98
207.55
200.47
188.43
169.64
144.04
112.95
78.67
38.52
-3.38
-42.93
-77.04
-103.35
-123.35
-137.95
-147.68
-153.20
-155.61
-156.07
-156.34
-157.42
-159.38
-161.08
-160.91
-156.25
-144.71
-124.85
-96.06
-59.34
-16.10
32.73
87.02
147.76
215.66
289.32
363.85
431.31
481.49
504.63
494.23
448.79
373.11
277.54
176.19
83.79
12.62
-30.66
-46.47
-41.38
-25.85
-10.27
-2.25
-5.20
-18.61
-39.41
-63.82
-88.45
-110.90
-130.29
-146.63
-160.63
-172.80
-182.52
-187.89
-186.16
-175.06
-153.70
-123.41
-86.90
-47.80
-9.50
25.34
54.66
77.01
91.04
95.88
91.15
77.51
56.70
31.30
4.45
-21.07
-43.18
-61.00
-74.43
-83.71
-88.78
-88.90
-83.22
-71.06
-53.11
-31.30
-8.58
12.08
28.63
40.22
47.31
50.83
51.87
50.92
48.33
44.32
39.19
33.41
27.24
20.86
14.08
6.88
-0.48
-7.26
-12.39
-15.03
-14.77
-12.01
-7.55
-2.50
2.22
5.98
8.44
9.65
9.68
8.97
7.89
6.95
6.47
6.53
7.05
7.68
8.29
8.62
8.57
7.90
6.33
3.62
-0.47
-5.68
-11.53
-17.07
-21.28
-23.04
-21.40
-15.87
-6.64
4.90
16.58
25.71
30.15
28.95
22.77
13.56
3.66
-4.77
-10.71
-13.90
-14.83
-14.21
-12.70
-10.93
-9.41
-8.72
-9.07
-10.36
-11.81
-12.34
-10.70
-5.90
2.15
12.63
23.57
32.66
37.68
37.48
32.39
23.96
14.59
6.37
0.70
-2.24
-2.91
-2.04
-0.15
2.61
6.04
9.88
13.25
15.19
14.88
12.08
7.38
1.80
-3.38
-7.42
-10.10
-11.85
-13.26
-14.68
-16.08
-16.93
-16.92
-15.89
-14.37
-12.93
-11.98
-11.34
-10.16
-7.61
-3.12
2.87
9.35
15.01
18.92
20.90
21.33
20.93
20.03
18.67
16.42
13.00
8.62
4.08
0.63
-0.77
0.33
3.37
7.22
10.58
12.57
13.10
12.62
11.93
11.48
11.38
11.21
10.51
9.08
6.97
4.63
2.35
0.32
-1.64
-3.73
-6.07
-8.53
-10.75
-12.49
-13.58
-14.22
-14.56
-14.64
-14.16
-12.60
-9.75
-5.77
-1.64
1.55
2.75
1.81
-0.52
-2.94
-4.05
-3.10
0.07
5.05
11.41
18.68
26.50
34.43
41.89
48.47
54.02
58.92
63.61
68.38
72.65
75.77
77.67
79.30
82.40
88.47
98.44
112.48
130.57
151.74
174.59
196.55
214.14
223.47
221.37
207.00
182.68
153.40
123.68
96.78
73.24
52.44
33.44
15.44
-2.13
-19.65
-37.44
-57.40
-80.89
-109.75
-144.12
-182.72
-224.32
-268.52
-316.10
-358.49
-387.76
-400.08
-400.46
-395.47
-386.50
-368.82
-335.65
-283.36
-214.09
-143.05
-79.05
-32.18
-9.50
-13.24
-41.06
-87.21
-143.64
-200.86
-251.00
-282.25
-287.97
-266.29
-221.15
-161.57
-99.04
-43.95
-2.02
25.79
43.63
55.80
66.14
76.55
87.35
97.64
106.64
114.88
123.69
135.51
151.09
169.67
189.09
206.82
220.10
226.88
227.29
224.06
222.54
228.45
246.20
277.02
318.33
362.37
397.08
410.03
393.05
345.62
275.44
196.49
125.36
77.50
60.88
73.09
102.93
135.16
156.11
157.86
139.64
98.54
41.62
-17.40
-65.04
-94.72
-106.96
-105.21
-92.80
-72.21
-47.56
-23.96
-7.93
-5.04
-17.97
-45.38
-83.42
-127.13
-171.61
-212.87
-247.09
-272.20
-288.06
-295.98
-297.11
-291.25
-276.53
-250.28
-211.19
-161.15
-106.91
-58.42
-24.81
-9.83
-9.43
-13.15
-8.41
13.88
54.65
105.65
153.22
183.82
188.59
165.28
117.66
54.02
-14.29
-76.27
-122.81
-147.38
-146.92
-123.19
-83.10
-37.58
1.69
26.36
31.71
17.58
-11.13
-42.76
-63.29
-61.87
-37.39
-4.74
24.63
43.40
48.40
42.35
31.68
24.51
26.96
39.55
56.87
70.82
72.47
55.76
21.75
-19.00
-50.52
-58.85
-40.34
-2.48
43.57
88.52
126.07
153.69
172.82
183.93
185.91
176.83
155.26
122.55
81.29
32.91
-21.11
-79.65
-142.68
-210.63
-282.93
-356.21
-422.81
-458.78
-446.34
-383.47
-286.59
-181.38
-89.35
-20.58
24.64
51.29
64.90
67.34
59.57
44.75
29.09
19.66
23.71
43.77
76.63
113.80
142.17
149.06
127.01
77.58
12.04
-51.30
-93.91
-103.70
-79.50
-28.65
32.42
85.49
117.35
122.42
106.78
84.63
69.81
68.11
76.11
85.74
90.93
90.45
87.51
86.49
89.26
95.10
98.57
94.43
79.77
55.33
24.31
-8.80
-40.01
-67.63
-92.96
-118.89
-146.61
-174.23
-193.85
-198.83
-186.67
-160.27
-126.17
-91.48
-61.18
-36.49
-15.81
2.48
15.82
18.70
6.81
-17.35
-43.22
-61.26
-66.51
-58.52
-41.85
-25.10
-16.92
-23.46
-44.91
-74.07
-99.49
-110.59
-100.90
-71.49
-31.16
7.86
31.86
31.75
8.22
-22.59
-50.49
-72.40
-91.88
-111.18
-129.54
-143.58
-148.21
-138.86
-115.00
-80.35
-40.15
1.07
40.74
78.18
112.84
143.58
169.30
188.37
200.42
207.41
212.58
219.19
230.20
246.34
266.74
290.53
315.83
341.25
365.46
386.38
402.29
413.30
419.15
418.65
409.89
389.81
357.76
315.65
267.24
205.57
132.48
56.03
-13.37
-60.93
-88.45
-102.22
-108.95
-117.10
-131.78
-153.25
-179.29
-206.02
-229.14
-246.27
-255.66
-257.90
-256.20
-254.77
-256.49
-264.05
-278.69
-299.42
-322.40
-339.86
-343.57
-329.27
-299.50
-262.60
-230.67
-213.28
-212.96
-224.02
-234.86
-234.83
-219.37
-191.48
-157.86
-125.06
-95.36
-67.09
-37.16
-3.94
30.48
61.46
84.36
98.38
107.05
117.55
137.38
171.04
217.97
271.63
322.01
357.97
370.92
356.55
315.79
254.36
181.58
109.43
50.06
13.63
4.45
18.93
46.27
72.31
84.57
76.82
50.82
13.30
-27.71
-67.28
-104.47
-139.88
-172.30
-198.15
-213.08
-213.99
-201.55
-179.05
-151.19
-122.03
-92.97
-62.26
-27.68
11.77
55.29
100.31
145.02
188.59
230.99
272.55
313.79
352.11
381.97
396.46
390.26
363.96
323.52
277.73
225.05
168.55
112.69
62.13
25.12
-0.12
-16.18
-25.03
-31.00
-37.99
-48.07
-62.98
-82.90
-106.48
-131.55
-154.71
-173.56
-187.97
-199.49
-209.05
-218.27
-228.78
-242.23
-260.29
-282.31
-305.79
-326.25
-338.62
-337.71
-321.71
-292.49
-255.01
-215.61
-178.81
-147.29
-121.67
-101.89
-87.07
-76.89
-70.53
-66.76
-64.01
-59.65
-51.29
-37.13
-17.74
3.82
22.18
32.25
31.97
23.96
15.77
16.50
33.14
66.43
110.94
158.03
200.15
233.80
258.67
275.60
283.72
280.92
264.89
236.49
201.86
171.00
153.76
154.64
170.41
191.13
205.24
202.69
178.41
134.46
78.98
23.83
-18.99
-40.11
-34.79
-3.44
46.19
100.29
143.38
162.84
152.80
114.92
57.49
-12.06
-78.59
-126.52
-147.58
-143.60
-122.95
-95.30
-66.64
-41.57
-24.87
-20.13
-30.52
-57.95
-98.99
-143.93
-178.19
-189.83
-176.16
-144.72
-107.85
-77.45
-60.32
-56.33
-60.19
-65.03
-66.95
-63.91
-54.97
-38.52
-13.52
19.43
57.45
95.27
125.64
140.99
137.32
115.16
83.75
57.11
47.77
60.79
91.26
126.61
152.16
158.95
147.40
126.23
106.09
93.75
89.72
90.17
90.66
87.53
81.16
74.99
73.36
78.31
88.35
99.14
105.72
104.33
90.73
63.53
24.46
-22.36
-73.04
-125.47
-179.01
-233.23
-287.06
-342.44
-400.81
-462.23
-524.57
-584.70
-638.78
-682.06
-709.70
-696.01
-629.31
-518.19
-389.29
-271.23
-180.95
-120.93
-84.51
-63.28
-51.16
-48.78
-57.49
-77.37
-102.64
-126.16
-142.43
-148.38
-143.46
-128.75
-108.66
-86.86
-64.25
-38.42
-5.41
34.96
81.40
131.12
180.83
226.06
263.81
293.50
316.22
332.52
341.09
339.85
327.35
304.48
274.37
242.15
213.43
192.14
179.10
172.26
168.61
165.81
162.69
158.74
153.58
146.93
138.57
128.66
118.33
109.64
105.66
108.58
118.69
133.42
148.08
157.10
155.65
142.23
118.65
90.55
63.95
43.35
30.55
24.93
24.68
27.19
31.57
37.58
47.48
63.05
84.99
112.54
143.47
174.95
203.06
226.33
244.35
260.65
279.05
302.49
332.20
367.20
405.20
441.92
475.22
484.42
455.68
384.38
278.06
153.22
27.59
-74.53
-150.50
-202.24
-233.42
-246.37
-245.58
-239.58
-236.57
-242.87
-261.77
-290.88
-320.61
-340.85
-344.09
-329.62
-302.00
-267.40
-231.04
-195.90
-164.39
-137.07
-114.75
-97.12
-83.35
-71.87
-60.69
-48.28
-34.00
-18.78
-3.37
11.08
24.09
35.77
46.85
58.41
71.08
84.66
98.13
109.74
117.55
120.07
116.93
108.63
96.39
81.97
66.90
52.50
39.85
29.54
22.12
18.33
18.73
23.58
32.91
46.25
62.60
80.82
99.32
117.11
133.99
149.78
164.13
176.75
186.85
192.05
193.33
189.72
180.17
164.83
142.96
113.47
76.05
30.77
-23.11
-85.03
-153.43
-224.54
-291.00
-347.22
-388.98
-412.95
-418.01
-407.58
-386.15
-358.93
-329.67
-297.67
-264.57
-232.34
-201.84
-174.45
-154.85
-146.95
-153.64
-175.26
-206.47
-245.79
-293.30
-348.94
-388.09
-392.12
-351.89
-272.42
-198.49
-143.04
-109.99
-101.42
-105.29
-115.85
-131.11
-148.57
-165.55
-179.66
-187.28
-190.35
-191.92
-192.76
-193.08
-194.20
-197.05
-201.93
-192.23
-154.20
-86.31
2.51
98.92
190.31
267.88
327.57
368.67
392.73
402.78
400.90
389.91
373.98
356.83
340.90
327.19
315.61
305.66
296.03
284.93
271.51
256.44
240.86
225.90
212.07
199.91
188.55
176.37
161.68
143.46
121.91
98.00
73.29
49.11
25.93
4.15
-17.15
-39.34
-63.44
-89.17
-114.80
-137.47
-154.12
-162.74
-161.90
-152.41
-136.81
-118.65
-100.88
-84.96
-70.83
-53.47
-31.83
-6.51
18.92
39.11
48.33
42.35
19.16
-21.10
-77.64
-149.45
-225.47
-289.82
-326.63
-328.20
-298.19
-248.44
-192.92
-143.94
-109.18
-89.29
-81.05
-79.93
-82.51
-86.93
-93.95
-100.19
-101.37
-93.66
-74.16
-43.01
-2.90
42.17
88.43
131.09
167.28
195.95
217.44
232.92
242.75
246.46
243.29
232.74
215.97
195.83
175.27
156.59
141.25
129.27
119.58
110.66
100.78
89.54
77.79
66.62
56.80
48.68
41.96
35.67
30.94
24.81
15.93
4.04
-10.48
-27.14
-45.36
-64.57
-84.16
-103.40
-122.09
-139.54
-155.13
-168.09
-178.12
-185.27
-189.89
-192.53
-193.80
-194.68
-195.77
-197.66
-200.24
-203.39
-206.88
-210.38
-213.26
-214.62
-213.34
-207.41
-199.23
-188.93
-176.17
-160.45
-141.58
-119.69
-95.64
-71.07
-47.98
-28.70
-14.74
-7.04
-5.52
-9.19
-16.25
-24.69
-32.72
-39.07
-43.18
-44.26
-41.73
-34.94
-23.28
-6.41
15.11
39.52
64.13
85.87
102.98
115.43
125.20
135.73
150.58
171.81
198.98
229.18
258.33
283.28
302.92
318.89
334.62
353.62
378.11
407.91
440.91
473.39
501.10
519.78
525.50
515.41
488.68
448.11
400.12
353.52
316.20
291.58
276.99
264.59
245.64
214.90
173.48
127.53
84.35
47.73
15.68
-17.37
-55.81
-97.84
-134.36
-153.04
-145.65
-113.62
-69.16
-30.62
-13.95
-26.28
-63.33
-113.52
-164.77
-210.42
-251.21
-292.97
-342.50
-402.92
-472.19
-543.61
-608.16
-657.38
-685.38
-690.56
-675.38
-645.51
-607.21
-565.51
-522.92
-479.88
-436.35
-393.13
-352.45
-316.72
-287.36
-263.62
-243.02
-222.53
-200.03
-175.18
-148.92
-122.93
-98.12
-74.39
-50.64
-25.43
2.21
32.45
64.59
97.54
130.26
162.12
192.78
222.10
249.83
275.80
300.00
322.75
344.83
367.37
391.80
419.55
451.88
489.18
529.58
568.41
598.58
613.09
608.09
585.20
551.23
514.99
483.30
457.86
435.21
409.16
374.50
329.71
277.51
223.43
173.59
133.41
106.65
95.37
99.49
116.43
140.95
166.29
186.07
195.95
195.00
185.43
171.69
158.79
150.63
149.04
153.29
160.82
168.01
171.51
168.91
159.04
142.05
118.99
91.43
61.13
29.90
-0.79
-30.06
-57.70
-84.08
-109.85
-135.63
-161.47
-186.79
-210.30
-230.24
-244.85
-252.95
-254.59
-251.16
-245.25
-239.52
-235.60
-233.45
-231.55
-227.92
-221.11
-210.74
-197.31
-181.52
-163.75
-143.96
-122.55
-100.81
-81.31
-67.07
-60.34
-61.34
-67.98
-76.65
-83.42
-85.60
-82.30
-74.50
-64.49
-54.96
-48.24
-45.52
-46.91
-51.57
-58.41
-66.32
-74.34
-81.56
-86.86
-88.95
-86.53
-79.09
-67.36
-53.37
-39.79
-28.82
-21.62
-18.11
-17.71
-19.79
-24.08
-29.99
-36.31
-41.07
-42.06
-38.37
-30.90
-22.29
-15.71
-13.49
-16.12
-22.49
-30.98
-40.28
-49.75
-58.84
-66.34
-70.24
-68.41
-59.74
-45.10
-27.41
-10.59
2.08
9.14
11.69
12.94
16.92
26.65
42.97
63.98
85.64
103.59
114.84
118.91
117.71
114.66
112.78
113.95
118.83
127.56
140.17
156.19
174.09
190.45
201.01
202.13
192.24
172.47
145.64
114.28
78.99
39.06
-5.79
-53.19
-97.44
-131.55
-150.32
-152.83
-142.96
-127.80
-114.47
-107.83
-109.63
-118.79
-133.48
-152.41
-175.98
-205.58
-242.36
-285.20
-329.81
-369.24
-395.82
-404.34
-393.84
-368.27
-334.00
-296.69
-258.84
-219.51
-176.06
-126.35
-70.34
-9.74
52.97
115.00
173.18
222.88
258.15
272.60
261.84
225.30
166.82
93.30
11.93
-72.21
-157.71
-245.46
-336.37
-428.34
-515.22
-587.99
-637.70
-659.03
-652.13
-622.54
-578.58
-528.32
-476.90
-426.24
-376.36
-327.20
-279.82
-235.99
-197.10
-162.89
-131.35
-99.73
-65.96
-29.84
7.14
42.38
73.65
100.12
122.62
143.31
164.60
188.23
214.56
242.60
270.45
296.29
319.12
339.43
359.36
381.94
409.72
442.66
477.27
507.20
525.52
527.56
512.85
485.01
449.57
411.70
374.69
340.38
310.45
287.15
272.18
264.48
259.04
248.02
224.66
187.41
141.73
97.93
65.83
50.17
48.66
54.41
60.46
63.89
66.48
72.11
83.07
97.59
111.06
119.02
120.40
118.41
118.26
123.36
132.70
141.63
145.04
141.74
136.24
136.51
149.09
174.19
204.42
228.09
235.80
225.94
205.86
187.96
182.57
192.50
211.50
228.20
231.96
217.93
188.24
149.53
108.92
70.46
34.41
-1.49
-39.16
-78.30
-116.02
-148.31
-172.49
-189.02
-201.84
-216.00
-234.66
-256.50
-275.91
-286.24
-283.98
-271.70
-256.95
-248.27
-250.06
-259.98
-270.45
-273.14
-263.70
-243.63
-218.71
-195.30
-177.38
-165.36
-157.30
-150.87
-144.68
-138.64
-133.26
-128.99
-125.71
-122.70
-118.85
-112.93
-104.24
-92.83
-80.02
-67.82
-58.24
-52.20
-49.05
-47.01
-44.10
-39.29
-32.80
-25.97
-20.47
-17.44
-17.09
-18.52
-20.19
-20.36
-17.90
-12.60
-5.54
1.42
6.50
8.69
8.30
6.70
5.44
5.37
6.30
7.29
7.36
6.42
5.10
4.36
4.39
4.32
2.68
-1.57
-7.96
-14.47
-18.43
-18.32
-14.67
-10.02
-7.64
-9.72
-16.48
-26.23
-36.68
-46.06
-53.71
-59.50
-63.31
-64.74
-63.38
-59.64
-54.75
-50.29
-47.05
-44.32
-40.10
-32.23
-19.92
-4.37
11.54
24.74
33.25
37.07
37.77
37.40
37.39
37.87
38.27
37.92
36.95
36.16
36.56
38.38
40.66
41.70
39.95
35.13
28.50
22.45
19.39
20.48
25.24
31.82
38.13
42.72
45.38
46.98
48.74
51.34
54.19
55.62
53.61
47.22
37.62
27.95
21.97
22.02
27.58
35.42
41.39
42.43
37.79
28.81
17.88
7.18
-2.09
-9.40
-14.59
-17.86
-20.10
-22.76
-27.01
-32.87
-38.80
-42.54
-42.42
-38.50
-32.35
-25.71
-19.29
-12.56
-4.83
3.65
11.34
16.39
18.09
17.18
15.49
14.55
14.61
14.82
14.28
12.94
11.59
10.91
10.59
9.69
7.48
4.52
2.80
4.52
10.50
19.35
28.11
33.98
35.94
35.13
33.95
34.40
36.76
39.48
40.01
36.31
27.72
15.16
0.65
-13.55
-25.65
-34.81
-41.01
-44.86
-47.00
-47.72
-46.84
-44.00
-39.19
-33.00
-26.75
-21.62
-18.07
-15.43
-12.43
-8.06
-2.42
3.15
6.85
7.46
5.17
1.32
-2.27
-4.29
-4.39
-2.98
-0.73
1.90
4.87
8.16
11.56
14.65
17.16
19.21
21.55
25.07
30.33
37.08
44.24
50.34
54.21
55.53
54.89
53.38
52.03
51.62
52.54
54.61
56.95
57.63
53.59
41.46
19.05
-13.03
-50.72
-87.34
-115.99
-132.01
-134.63
-126.72
-112.90
-97.26
-81.63
-65.82
-48.86
-30.69
-13.01
1.10
8.68
8.76
3.26
-3.52
-6.98
-4.46
3.49
13.47
20.92
22.66
18.54
11.26
4.89
2.67
5.38
10.97
15.81
16.48
11.34
1.43
-10.16
-19.63
-24.13
-22.99
-17.83
-11.72
-7.65
-7.33
-10.57
-15.71
-20.45
-22.96
-22.63
-20.16
-17.17
-15.35
-15.87
-18.75
-23.01
-26.98
-28.92
-27.97
-24.49
-19.99
-16.31
-14.72
-15.19
-16.43
-16.66
-14.52
-10.04
-4.39
0.53
3.20
3.08
0.72
-2.60
-5.67
-7.48
-7.81
-6.93
-5.59
-4.57
-4.29
-4.63
-4.84
-4.14
-1.96
1.48
5.40
8.92
11.73
14.45
18.26
24.18
32.12
41.01
49.14
55.24
59.14
61.86
64.88
69.01
73.88
77.71
78.25
73.56
63.13
48.19
31.16
15.04
2.27
-5.90
-9.58
-9.91
-8.56
-7.19
-6.99
-8.70
-12.34
-17.35
-22.73
-27.39
-30.65
-32.64
-34.30
-36.70
-40.37
-44.78
-48.52
-50.31
-49.92
-48.51
-47.95
-49.56
-53.05
-56.57
-57.71
-55.00
-48.83
-41.10
-34.27
-29.66
-26.96
-24.39
-19.91
-12.42
-2.42
8.06
16.65
21.50
22.32
20.26
17.38
15.43
15.02
15.58
15.72
14.47
12.00
9.55
8.67
10.15
13.46
16.97
18.94
18.61
16.91
16.07
18.33
24.60
33.58
42.14
46.51
44.23
35.33
22.59
10.34
2.41
0.43
3.00
6.58
7.23
2.63
-6.67
-17.53
-25.61
-27.62
-22.91
-14.14
-5.98
-2.95
-7.01
-16.46
-26.64
-32.16
-29.63
-19.11
-4.09
10.48
20.60
24.86
24.57
22.50
21.18
21.61
23.17
24.15
22.90
18.66
11.96
4.51
-1.56
-4.22
-2.39
3.77
12.81
22.35
29.95
33.81
33.40
29.38
23.51
17.92
14.30
13.37
14.43
15.85
15.72
13.00
8.02
2.55
-1.13
-1.53
1.09
4.60
6.10
3.51
-3.09
-11.50
-18.47
-21.33
-19.28
-13.50
-6.54
-0.90
1.81
1.27
-1.40
-4.26
-5.13
-2.40
4.38
13.80
22.80
27.85
26.53
18.87
7.44
-3.68
-10.85
-12.32
-8.93
-3.49
0.64
0.93
-3.23
-10.63
-18.72
-24.78
-27.06
-25.45
-21.60
-17.97
-16.76
-18.58
-22.34
-25.64
-26.21
-23.32
-17.88
-11.99
-7.82
-6.52
-7.57
-9.22
-9.37
-6.73
-1.59
4.31
8.56
9.34
6.41
1.65
-1.58
0.20
8.94
23.83
41.57
57.17
66.20
66.42
58.66
46.45
34.25
25.81
22.11
21.22
19.34
13.05
1.75
-11.46
-20.55
-19.81
-6.69
16.49
43.92
69.07
87.65
98.57
102.85
101.78
95.77
85.08
71.00
56.20
43.46
33.62
24.70
13.28
-2.23
-19.79
-33.95
-39.30
-34.21
-22.41
-11.13
-6.52
-10.43
-19.52
-27.85
-30.66
-27.08
-20.20
-14.55
-13.52
-17.39
-23.76
-29.06
-30.74
-28.59
-24.83
-22.82
-25.10
-31.89
-40.54
-46.79
-47.00
-40.07
-28.37
-16.57
-9.43
-9.25
-14.95
-22.72
-28.18
-28.54
-23.77
-16.21
-9.02
-4.59
-3.40
-4.20
-4.97
-4.18
-1.56
1.96
4.82
5.86
4.72
1.94
-1.64
-5.47
-9.42
-13.67
-18.11
-22.31
-25.39
-26.53
-25.54
-22.98
-20.08
-18.02
-17.46
-17.94
-18.11
-16.20
-11.06
-2.92
6.41
13.99
17.10
14.53
7.51
-0.70
-6.24
-6.60
-2.07
4.49
9.02
8.66
3.18
-4.72
-10.87
-12.11
-7.98
-1.27
3.65
3.10
-3.65
-13.89
-22.82
-26.13
-22.29
-13.31
-3.86
1.36
-0.22
-7.77
-17.74
-25.82
-28.99
-26.82
-21.14
-14.93
-10.51
-8.73
-8.90
-9.47
-9.06
-6.89
-3.01
2.18
8.08
14.14
19.60
23.25
23.75
20.06
12.45
2.67
-6.32
-11.58
-11.41
-6.08
2.28
10.90
17.61
21.69
23.86
25.55
28.05
31.69
35.99
39.93
42.72
44.17
44.66
44.83
45.00
44.84
43.18
38.64
30.23
18.11
3.70
-10.71
-22.65
-30.43
-33.56
-33.01
-30.53
-28.01
-26.70
-26.64
-26.99
-26.42
-24.18
-20.52
-16.73
-14.26
-13.89
-15.15
-16.49
-16.31
-13.86
-9.81
-5.72
-3.23
-3.08
-4.82
-7.23
-8.80
-8.69
-6.74
-3.71
-0.77
0.74
-0.13
-3.58
-8.86
-14.35
-18.26
-19.12
-16.59
-11.52
-5.72
-1.26
0.35
-1.35
-5.53
-10.36
-13.47
-13.07
-8.77
-2.03
4.31
7.44
6.01
1.00
-4.75
-7.97
-6.61
-0.80
7.54
15.78
22.04
25.71
27.29
27.80
28.14
28.91
30.42
32.80
35.76
38.64
40.75
41.82
42.35
43.17
44.94
47.20
48.32
46.02
38.57
25.83
9.42
-7.76
-22.84
-33.82
-39.96
-41.52
-39.15
-33.60
-25.57
-15.77
-5.11
5.33
14.67
22.26
27.67
30.67
31.04
28.75
23.95
17.19
9.27
1.00
-7.05
-14.56
-21.19
-26.62
-30.34
-32.08
-31.95
-30.65
-29.21
-28.60
-29.45
-31.59
-34.31
-36.56
-37.53
-36.87
-34.77
-31.87
-28.86
-26.26
-24.13
-22.32
-20.51
-18.58
-16.77
-15.53
-15.44
-16.60
-18.57
-20.30
-20.61
-18.80
-15.20
-11.17
-8.59
-9.08
-13.00
-19.25
-25.46
-29.02
-28.19
-22.83
-14.53
-5.98
-0.08
1.44
-1.41
-6.86
-12.18
-15.02
-14.44
-11.47
-8.46
-7.93
-10.98
-16.72
-22.53
-25.34
-23.28
-16.38
-6.76
2.53
8.85
11.23
10.66
9.49
10.34
14.66
22.22
31.13
38.89
43.54
44.58
43.05
40.93
40.24
41.95
45.74
50.33
54.13
56.18
56.22
54.54
51.45
47.11
41.36
34.09
25.67
17.00
9.52
4.53
2.68
3.69
6.53
9.76
12.12
12.87
11.86
9.65
7.05
4.93
3.73
3.32
2.85
1.17
-2.59
-8.47
-15.43
-21.61
-25.19
-25.34
-22.93
-20.12
-19.27
-21.61
-26.63
-32.05
-35.04
-33.46
-26.95
-17.14
-6.81
1.15
5.00
4.64
1.66
-1.43
-2.31
0.19
5.37
11.12
14.66
13.99
8.86
1.11
-6.07
-9.71
-8.34
-2.86
3.97
8.69
8.93
4.34
-3.39
-11.40
-17.16
-19.29
-18.25
-15.66
-13.63
-13.76
-16.45
-20.79
-24.73
-26.04
-23.11
-15.96
-6.21
3.48
10.63
14.13
14.62
14.02
14.07
15.33
16.64
16.07
12.03
4.41
-5.18
-14.15
-19.93
-21.11
-17.83
-11.67
-4.87
0.46
3.02
2.73
0.63
-1.52
-1.93
0.41
5.27
11.08
15.61
16.83
13.92
7.52
-0.31
-7.03
-10.69
-10.90
-9.15
-8.00
-9.83
-15.50
-23.75
-31.75
-36.51
-36.45
-32.14
-25.98
-20.66
-17.59
-15.98
-13.37
-7.11
3.94
18.55
33.54
45.12
50.63
49.44
43.11
34.44
26.24
20.32
16.87
14.83
12.68
9.53
5.57
2.04
0.48
1.73
5.43
10.05
13.76
15.38
14.85
13.16
11.64
11.35
12.66
15.43
19.20
23.49
27.64
30.74
31.76
29.86
25.10
18.65
12.59
9.07
9.11
12.08
15.61
16.67
12.97
4.16
-7.78
-19.36
-26.87
-28.16
-23.34
-14.63
-4.93
3.37
9.41
13.67
16.97
19.39
19.83
16.76
9.48
-0.60
-10.29
-16.20
-16.82
-13.66
-10.38
-10.86
-16.57
-25.92
-35.01
-40.04
-39.34
-34.07
-27.17
-21.46
-18.18
-16.49
-14.35
-10.07
-3.16
5.28
13.09
18.08
19.14
16.51
11.51
5.72
0.04
-5.44
-11.05
-16.77
-21.91
-25.16
-25.35
-22.21
-16.60
-10.09
-3.98
1.17
5.68
10.28
15.35
20.43
24.24
25.50
23.61
19.37
14.87
12.63
14.27
19.61
26.68
32.72
35.68
35.20
32.58
29.52
26.98
24.50
20.86
15.43
8.83
3.00
-0.09
0.29
3.34
7.38
10.91
13.13
14.15
14.48
14.77
15.48
16.96
19.32
22.28
25.11
26.48
25.18
20.73
14.10
7.27
2.34
0.45
1.12
2.75
3.58
2.99
1.88
2.39
6.45
14.30
24.10
32.31
35.94
34.07
28.26
21.28
15.11
9.75
3.44
-5.44
-16.86
-28.44
-36.92
-39.99
-37.95
-33.67
-30.86
-32.11
-37.44
-44.62
-50.48
-52.71
-50.96
-46.74
-42.47
-39.96
-39.43
-39.30
-37.25
-31.72
-23.03
-13.42
-5.77
-2.15
-2.42
-4.56
-5.99
-5.08
-1.96
1.87
4.71
5.84
5.75
5.64
6.28
7.39
7.87
6.45
2.83
-2.20
-6.99
-10.13
-10.90
-9.58
-7.15
-4.53
-2.36
-0.67
0.62
1.47
1.60
0.71
-1.28
-3.88
-6.04
-6.78
-5.60
-3.02
-0.22
1.54
1.73
0.96
0.44
1.12
2.77
3.93
2.78
-1.63
-8.41
-15.05
-18.58
-17.22
-11.28
-3.11
4.17
8.11
7.89
4.43
-0.36
-4.43
-6.35
-5.53
-2.32
2.21
6.47
8.86
8.42
5.34
1.27
-1.34
-0.16
6.12
16.92
30.05
42.34
50.83
53.72
51.04
44.69
37.75
33.33
33.28
37.63
44.22
49.52
50.14
44.41
33.51
21.10
11.75
8.74
12.74
21.48
31.21
38.59
42.34
43.48
44.58
48.43
56.69
69.35
84.96
100.73
113.11
118.29
113.36
97.41
72.36
42.44
12.72
-12.60
-31.46
-44.00
-51.89
-57.29
-62.39
-69.46
-80.65
-97.10
-117.71
-138.90
-155.16
-161.70
-156.86
-143.15
-126.15
-111.46
-102.38
-98.90
-99.00
-100.64
-103.39
-108.44
-116.55
-126.55
-135.15
-138.95
-136.25
-128.29
-118.28
-109.42
-102.78
-96.70
-88.00
-74.46
-57.22
-40.87
-31.64
-34.19
-48.93
-71.14
-93.00
-107.58
-111.74
-107.53
-100.55
-96.86
-100.09
-109.96
-123.41
-136.73
-147.62
-155.47
-160.52
-162.90
-162.39
-158.99
-153.56
-148.07
-144.69
-144.37
-145.87
-146.01
-141.11
-128.86
-109.68
-86.22
-61.85
-38.84
-17.58
2.71
22.34
39.83
52.36
57.48
55.24
48.50
41.80
38.91
41.18
47.79
57.30
69.25
83.73
99.78
113.80
120.14
114.16
95.48
70.16
48.57
41.26
54.13
86.04
129.94
176.43
217.81
249.73
271.02
281.85
282.71
274.29
258.63
239.95
223.88
215.56
217.25
227.29
240.40
250.41
252.65
245.52
230.37
209.91
186.65
161.94
136.25
109.64
82.31
54.64
26.93
0.05
-24.75
-45.48
-59.75
-65.40
-61.29
-47.48
-25.16
3.62
36.19
68.97
97.66
117.72
125.56
119.77
101.96
76.42
48.73
24.13
5.89
-4.94
-9.45
-10.07
-9.84
-11.99
-19.41
-34.15
-56.43
-83.88
-111.49
-132.91
-142.71
-138.50
-122.12
-98.74
-74.89
-56.00
-44.60
-39.99
-39.19
-38.40
-34.36
-25.26
-10.74
8.42
30.77
54.50
77.22
96.09
108.00
110.46
102.52
85.68
63.83
42.17
25.33
15.38
11.22
9.31
6.05
-0.09
-7.61
-12.75
-11.91
-3.95
8.82
21.75
30.30
32.25
28.71
23.49
21.34
25.80
38.11
56.60
77.21
94.21
101.50
93.87
68.26
24.80
-32.94
-98.09
-161.72
-214.65
-249.28
-260.88
-248.17
-213.15
-160.21
-95.41
-25.77
40.96
96.42
132.57
143.19
125.93
83.63
24.11
-41.70
-102.72
-150.34
-180.07
-191.65
-188.62
-176.75
-162.53
-151.14
-145.16
-144.16
-145.27
-144.94
-140.08
-129.17
-111.92
-88.79
-60.61
-28.50
5.78
39.94
71.45
98.39
119.73
135.36
145.50
150.39
150.74
148.13
145.14
144.34
146.66
150.34
151.38
145.52
130.72
108.69
83.91
61.53
44.61
33.05
24.46
16.57
9.39
5.59
9.12
22.16
43.00
65.88
83.13
88.76
81.02
62.99
40.49
18.98
1.02
-14.21
-29.25
-46.12
-64.32
-80.92
-92.18
-95.55
-90.89
-80.31
-66.98
-53.37
-40.20
-26.29
-10.12
8.62
28.09
44.89
55.95
60.62
61.55
63.15
69.19
80.47
94.18
105.52
110.29
107.10
97.60
85.10
72.34
59.95
46.69
30.88
12.37
-7.00
-23.94
-35.40
-40.15
-39.36
-36.04
-33.36
-33.20
-35.38
-38.31
-39.88
-38.79
-35.07
-29.57
-23.34
-17.22
-11.97
-8.29
-6.95
-8.36
-12.12
-17.02
-21.48
-24.20
-24.60
-23.12
-20.83
-18.95
-18.30
-18.83
-19.80
-20.12
-19.18
-17.21
-15.33
-14.90
-16.80
-20.76
-25.25
-28.23
-28.04
-24.59
-19.26
-14.40
-12.17
-13.62
-18.37
-24.80
-31.06
-35.59
-37.72
-37.63
-36.02
-33.70
-31.08
-28.22
-24.84
-20.88
-16.60
-12.61
-9.60
-7.95
-7.54
-7.71
-7.69
-6.94
-5.50
-3.82
-2.63
-2.69
-4.57
-8.68
-15.02
-23.14
-31.83
-39.39
-43.91
-43.99
-39.42
-31.24
-21.62
-12.88
-6.63
-3.14
-1.37
0.40
3.87
9.74
17.62
26.01
33.09
37.35
38.20
36.11
32.16
27.48
22.77
18.10
13.15
7.66
1.77
-3.92
-8.62
-11.76
-13.14
-13.08
-12.02
-10.26
-7.87
-4.78
-1.05
3.12
7.42
11.59
15.46
18.94
21.93
24.03
24.71
23.26
19.25
12.55
3.55
-6.92
-17.90
-28.39
-37.50
-44.45
-48.57
-49.20
-45.97
-39.13
-29.64
-19.26
-9.88
-3.01
1.07
3.31
5.50
9.43
16.02
24.96
34.65
42.95
47.92
48.68
45.64
40.17
34.19
29.26
26.19
24.95
24.88
25.21
25.42
25.55
25.87
26.71
28.01
29.53
30.89
31.93
32.83
33.72
34.71
35.46
35.50
34.41
32.45
30.65
30.41
32.88
38.13
44.71
50.12
51.93
49.13
42.90
36.38
33.21
36.12
45.56
59.70
75.10
87.89
94.56
92.28
79.15
54.26
18.79
-23.87
-68.00
-106.89
-134.81
-148.78
-149.37
-139.84
-124.76
-108.14
-92.70
-79.88
-70.39
-64.55
-61.75
-59.81
-54.83
-42.42
-19.92
11.77
47.61
79.93
101.21
107.05
97.58
77.16
52.35
29.49
12.96
4.34
2.80
5.67
9.87
12.49
11.54
6.35
-2.72
-14.71
-28.58
-43.22
-57.82
-71.35
-82.91
-91.85
-97.98
-101.48
-102.67
-101.50
-97.42
-90.02
-79.33
-66.20
-52.30
-39.50
-29.30
-22.45
-19.42
-20.50
-25.77
-34.67
-45.63
-56.19
-63.70
-66.64
-65.46
-62.37
-60.14
-60.63
-63.94
-68.50
-71.73
-70.56
-62.12
-44.16
-15.86
21.21
62.49
101.07
129.43
142.27
138.50
121.11
95.81
68.51
43.27
21.52
2.68
-14.40
-30.40
-45.00
-57.18
-65.89
-70.60
-71.83
-70.64
-68.05
-64.53
-59.90
-53.98
-47.08
-40.34
-35.14
-32.29
-31.07
-29.24
-24.06
-13.68
1.68
19.77
37.07
50.18
56.86
56.66
50.70
41.09
30.53
21.46
15.73
14.06
16.03
20.16
24.54
27.35
27.25
23.90
17.73
9.85
1.71
-5.26
-9.92
-11.77
-10.97
-8.52
-5.73
-4.09
-4.49
-6.85
-10.14
-12.68
-13.03
-10.41
-5.27
0.90
5.88
7.51
4.55
-2.95
-13.36
-24.18
-32.77
-37.45
-37.81
-34.72
-29.72
-24.28
-19.47
-15.80
-13.34
-11.74
-10.38
-8.20
-4.04
2.84
12.43
23.39
33.50
40.28
41.97
38.30
30.48
20.71
11.06
2.87
-3.61
-8.63
-12.30
-14.16
-13.27
-9.11
-2.38
4.68
9.08
8.54
2.95
-5.20
-12.13
-14.62
-12.01
-6.58
-2.29
-2.34
-7.18
-14.07
-18.78
-18.48
-13.47
-7.29
-4.53
-8.13
-17.85
-30.70
-43.00
-52.29
-58.25
-61.73
-63.37
-62.69
-58.35
-49.66
-37.74
-25.86
-17.80
-15.83
-19.10
-23.54
-23.68
-15.27
2.30
25.58
48.73
66.64
77.52
83.43
88.37
95.13
103.16
108.63
106.85
95.44
75.88
53.09
32.70
18.46
10.66
6.78
3.35
-2.03
-9.72
-18.59
-26.78
-32.82
-35.68
-35.03
-30.93
-23.63
-13.69
-2.02
9.80
19.97
26.67
28.85
26.78
22.09
17.25
14.48
15.14
19.15
25.44
32.40
38.42
42.33
43.28
40.84
34.97
26.35
16.31
6.71
-0.67
-4.72
-5.17
-2.73
1.35
5.43
8.04
8.12
5.55
1.23
-3.33
-6.62
-8.04
-7.89
-7.17
-6.63
-6.23
-5.34
-3.39
-0.82
0.95
0.13
-4.09
-10.69
-16.91
-19.48
-16.53
-8.68
0.92
8.23
10.03
5.47
-3.94
-15.51
-26.62
-35.66
-41.58
-43.21
-38.71
-26.34
-5.66
21.24
49.57
73.53
88.56
93.64
91.32
86.16
82.18
80.74
80.54
79.08
74.96
69.06
64.36
64.06
69.67
80.04
91.95
101.93
108.07
110.97
113.01
116.64
123.34
132.86
143.76
154.08
161.88
165.26
162.40
151.79
132.73
106.09
74.48
42.09
13.09
-9.76
-26.18
-38.33
-49.45
-62.21
-77.29
-93.43
-108.27
-119.83
-127.24
-130.72
-131.11
-129.16
-125.62
-121.56
-118.80
-119.21
-123.68
-131.35
-139.22
-143.75
-142.52
-135.59
-125.13
-114.07
-104.58
-97.20
-91.61
-87.68
-86.37
-88.93
-95.76
-105.20
-113.52
-116.59
-111.83
-99.75
-83.53
-67.43
-54.60
-45.88
-39.86
-34.15
-27.02
-18.17
-8.84
-0.88
4.11
5.54
4.08
1.56
0.63
3.83
12.61
26.24
41.73
54.80
61.65
60.83
53.78
44.02
34.96
28.30
23.31
17.87
10.02
-0.97
-14.33
-28.81
-43.27
-56.89
-68.45
-75.83
-76.23
-67.29
-48.96
-24.08
1.92
23.14
35.58
38.86
36.32
33.29
34.70
42.67
56.18
72.00
86.97
100.07
112.78
127.61
145.52
164.42
179.22
184.10
175.47
153.96
124.14
91.97
62.36
37.36
16.93
0.46
-11.74
-18.56
-19.56
-16.23
-12.51
-12.92
-20.47
-34.90
-52.87
-70.08
-83.52
-92.81
-99.35
-104.89
-109.90
-113.51
-114.68
-113.18
-109.92
-106.09
-102.26
-97.77
-91.10
-80.84
-66.64
-49.35
-30.62
-12.52
3.05
14.42
20.57
21.14
16.73
8.73
-1.28
-12.11
-23.16
-33.77
-42.67
-47.94
-47.60
-40.87
-28.60
-13.42
1.32
12.56
18.48
18.92
15.12
9.40
4.49
3.07
6.59
14.71
24.96
33.56
36.84
32.90
22.86
10.10
-1.11
-7.83
-9.43
-7.79
-5.89
-6.07
-8.77
-12.30
-14.33
-13.31
-9.77
-6.06
-4.76
-7.10
-11.96
-16.63
-18.12
-15.17
-9.01
-2.82
0.07
-1.88
-7.63
-13.85
-16.81
-14.04
-5.76
5.35
15.51
21.66
23.04
21.36
19.97
21.86
28.16
37.48
46.89
53.85
57.67
59.94
62.89
67.69
72.98
75.47
72.29
63.30
52.03
43.63
42.29
48.72
59.62
69.53
73.71
70.44
60.78
47.11
30.91
12.27
-9.33
-33.16
-56.18
-73.88
-82.13
-79.71
-69.25
-56.35
-47.04
-44.73
-48.55
-53.86
-54.95
-47.82
-32.40
-11.88
9.27
27.65
42.42
54.53
65.53
75.92
84.80
90.50
91.74
87.96
79.50
67.17
52.00
35.46
19.39
5.81
-3.96
-10.02
-14.15
-19.34
-28.28
-42.31
-60.66
-80.77
-99.36
-113.34
-120.38
-119.25
-110.09
-94.06
-73.35
-50.66
-28.91
-10.90
1.15
5.76
2.69
-6.63
-18.95
-29.89
-35.21
-32.56
-22.49
-8.56
3.72
9.09
4.37
-10.08
-30.72
-52.10
-68.92
-77.75
-77.68
-70.06
-57.31
-41.95
-26.08
-11.52
-0.09
6.63
7.77
4.06
-2.09
-7.01
-7.21
-0.75
11.96
28.33
45.00
59.14
69.91
78.41
86.54
95.57
104.94
112.39
115.21
112.25
104.52
94.88
86.51
80.97
77.31
72.86
65.24
53.75
40.08
27.13
17.55
12.63
11.95
14.12
17.38
20.42
22.33
22.89
21.93
18.98
13.03
2.58
-13.33
-34.59
-59.09
-83.09
-102.24
-112.82
-113.15
-104.27
-89.71
-73.85
-60.47
-51.53
-46.72
-44.03
-41.03
-36.23
-29.30
-21.23
-13.50
-7.52
-3.79
-1.94
-0.66
2.19
8.78
20.62
37.25
55.99
72.53
82.66
84.35
78.79
69.99
62.38
58.57
57.63
55.92
49.42
36.40
18.71
0.76
-12.72
-19.39
-20.22
-18.63
-18.08
-20.27
-24.80
-30.47
-37.25
-46.80
-61.12
-79.83
-98.57
-110.06
-107.65
-89.71
-61.20
-31.73
-10.48
-1.63
-2.54
-6.45
-7.17
-2.63
4.57
10.05
11.23
9.43
8.67
12.48
21.15
30.93
36.27
33.16
21.59
5.75
-8.21
-15.53
-15.24
-10.20
-5.25
-4.12
-7.32
-12.11
-14.56
-12.16
-5.31
2.95
8.85
9.94
6.17
-0.51
-7.28
-11.64
-12.27
-9.02
-2.99
3.75
8.45
8.75
3.89
-4.62
-13.50
-19.74
-22.48
-23.60
-26.11
-31.72
-38.96
-43.36
-40.29
-28.08
-9.97
6.99
15.45
11.81
-1.74
-18.32
-29.62
-29.84
-17.85
2.90
26.55
47.48
62.27
69.98
71.32
67.79
60.86
52.53
45.37
42.44
46.04
56.27
70.47
83.83
91.59
90.96
82.77
70.96
60.76
56.08
57.59
62.93
68.37
71.42
72.08
72.42
74.64
78.92
82.89
82.72
75.68
61.88
44.72
29.44
20.98
22.47
34.26
54.60
80.72
110.23
141.89
175.97
213.59
255.38
299.90
342.68
377.11
396.69
398.05
382.51
355.53
324.20
294.01
267.22
242.89
218.89
193.74
167.78
142.78
120.76
102.75
88.01
74.51
59.68
41.78
20.65
-2.33
-24.74
-44.32
-59.81
-71.75
-82.04
-93.30
-107.75
-126.23
-147.97
-170.87
-192.45
-210.69
-224.99
-236.12
-246.17
-258.04
-274.89
-299.26
-331.60
-369.05
-404.75
-429.24
-433.18
-411.04
-363.81
-299.34
-230.13
-169.17
-126.03
-104.64
-103.53
-117.92
-141.98
-170.86
-201.18
-230.94
-258.64
-282.58
-300.65
-310.35
-309.49
-297.01
-273.32
-240.19
-200.63
-158.27
-116.54
-77.85
-43.10
-11.78
17.57
46.12
74.10
100.05
121.10
133.63
134.47
122.07
96.69
60.31
15.88
-33.05
-83.00
-130.53
-172.15
-204.45
-223.96
-227.84
-214.64
-185.70
-145.96
-103.85
-69.77
-53.11
-59.24
-87.22
-130.07
-177.29
-218.65
-247.92
-264.58
-272.91
-278.71
-286.02
-294.77
-301.08
-299.62
-286.62
-262.15
-229.88
-195.27
-162.71
-133.53
-105.67
-75.39
-39.81
1.16
44.15
84.26
117.32
142.28
161.57
180.06
202.84
232.98
270.81
314.19
359.66
403.03
439.66
464.50
472.57
460.54
428.15
379.15
320.28
258.82
199.91
145.37
94.67
47.50
6.33
-23.27
-34.73
-24.79
3.31
39.27
68.81
78.78
62.15
20.46
-37.27
-98.09
-149.94
-184.80
-199.60
-195.05
-173.43
-137.32
-89.21
-32.45
28.14
86.43
136.22
172.69
193.17
197.38
187.02
165.50
137.56
108.84
85.02
70.08
64.32
63.77
61.81
52.40
33.76
9.69
-12.13
-24.15
-23.52
-13.89
-3.84
-1.68
-10.90
-27.93
-44.22
-50.86
-43.15
-22.89
3.82
30.26
53.07
73.06
93.69
117.80
145.08
171.66
191.58
199.80
194.08
175.58
147.69
114.87
81.30
50.15
23.69
3.24
-10.43
-17.36
-18.51
-15.60
-10.62
-4.88
1.41
9.32
19.99
33.62
48.66
62.08
70.60
72.00
66.32
55.50
42.64
30.07
18.19
5.01
-12.88
-38.27
-71.60
-109.96
-147.88
-179.14
-198.93
-205.04
-197.99
-181.10
-159.57
-139.83
-127.82
-127.11
-136.85
-151.52
-162.45
-161.32
-143.56
-109.53
-63.75
-12.01
41.23
93.71
144.26
190.70
228.80
252.49
256.32
237.87
199.40
147.65
92.12
42.54
6.48
-11.73
-11.44
4.77
31.70
62.76
91.73
114.82
132.32
148.35
168.70
197.27
233.75
273.42
309.84
338.11
356.47
365.66
366.21
356.83
334.59
297.41
246.65
187.72
128.33
75.04
30.93
-5.39
-38.28
-72.79
-112.75
-159.25
-210.19
-259.82
-300.24
-323.33
-323.51
-299.63
-255.23
-197.42
-134.18
-72.40
-16.82
29.35
63.71
84.71
92.22
88.53
77.90
64.99
52.53
39.99
24.32
1.86
-29.45
-69.28
-115.26
-164.29
-212.49
-254.79
-284.64
-295.22
-282.42
-248.00
-200.94
-154.67
-121.99
-109.70
-116.43
-134.32
-153.36
-166.11
-169.08
-162.01
-145.24
-118.75
-82.66
-38.99
7.19
48.87
79.62
96.73
102.22
101.24
99.33
99.62
102.19
105.25
107.46
108.52
108.78
107.50
101.97
88.44
64.22
30.00
-9.94
-49.22
-82.69
-108.92
-130.39
-151.12
-173.08
-194.05
-207.69
-206.88
-187.57
-151.68
-106.79
-62.83
-27.24
-1.61
17.91
37.15
59.54
83.61
104.26
116.48
118.76
113.30
103.63
90.84
72.50
44.89
7.48
-33.63
-66.92
-80.66
-70.17
-41.65
-10.12
8.08
4.01
-18.91
-46.65
-62.03
-53.31
-19.92
27.57
72.62
100.06
101.74
78.56
38.94
-5.34
-43.12
-66.06
-69.13
-50.07
-9.00
51.08
123.17
196.01
255.18
286.26
279.22
231.91
152.19
56.04
-36.53
-106.81
-142.14
-138.53
-100.93
-41.14
25.59
84.84
126.63
147.93
152.97
150.68
150.63
158.73
174.71
192.38
203.05
199.46
179.12
144.67
101.43
53.99
3.76
-50.68
-111.35
-177.48
-244.04
-302.18
-341.67
-354.91
-339.47
-299.82
-246.45
-193.08
-152.17
-130.72
-128.09
-136.39
-144.31
-141.59
-122.73
-87.50
-39.21
17.57
78.24
137.15
186.39
215.65
215.35
181.02
117.78
41.01
-28.19
-71.11
-79.32
-57.03
-18.70
18.07
39.10
37.78
16.32
-17.22
-52.58
-80.61
-94.38
-90.07
-67.88
-33.26
3.57
31.23
40.25
25.87
-11.03
-63.12
-118.51
-164.32
-190.46
-192.05
-168.33
-122.18
-58.79
15.30
94.03
172.38
245.45
307.48
344.01
341.55
300.32
239.30
183.08
147.00
133.13
134.13
139.66
141.80
140.08
136.58
133.29
129.15
120.70
104.25
77.33
38.99
-8.01
-56.61
-99.82
-133.24
-156.28
-170.70
-178.79
-182.37
-182.75
-180.78
-176.59
-170.45
-163.34
-157.39
-154.81
-156.01
-158.47
-157.01
-145.68
-120.71
-83.12
-38.77
3.48
35.72
54.17
60.14
58.25
53.62
49.44
46.22
43.02
39.01
34.47
30.68
28.80
29.02
30.35
31.16
29.81
25.82
19.89
13.51
8.26
5.02
3.68
3.26
2.35
-0.19
-4.77
-10.90
-17.53
-23.44
-27.88
-30.80
-32.77
-34.87
-38.05
-42.86
-49.18
-56.34
-63.34
-69.36
-74.22
-77.89
-80.85
-83.56
-86.01
-87.41
-86.44
-81.01
-69.48
-51.16
-26.62
2.37
33.34
64.00
92.55
117.45
138.34
155.14
167.97
177.26
184.05
189.60
194.46
197.33
195.58
185.05
163.21
131.06
93.44
57.56
30.15
14.83
10.85
14.67
21.74
28.54
33.14
34.68
31.82
22.71
5.83
-18.47
-46.66
-72.59
-89.65
-93.21
-83.89
-67.10
-50.57
-40.76
-40.06
-46.29
-54.59
-60.45
-61.69
-59.24
-55.62
-53.07
-52.39
-52.85
-53.33
-53.29
-53.21
-54.13
-57.48
-63.88
-72.83
-82.89
-92.07
-98.82
-102.44
-103.26
-102.34
-100.86
-99.46
-97.28
-92.51
-82.81
-66.55
-43.26
-14.14
18.18
50.29
79.33
103.51
121.72
134.89
144.41
151.50
157.29
162.81
168.63
174.18
177.17
173.71
159.97
134.69
99.46
59.94
23.65
-3.19
-18.09
-22.75
-21.36
-18.00
-14.93
-12.29
-9.13
-4.94
-0.39
3.06
4.28
3.39
1.69
0.88
2.32
6.33
12.15
18.31
23.40
26.72
28.57
29.99
32.31
36.31
41.96
48.34
53.86
56.96
56.25
51.26
42.33
30.69
17.71
4.57
-7.87
-19.40
-29.93
-39.43
-47.66
-54.12
-57.91
-58.20
-54.64
-47.65
-38.82
-30.12
-23.67
-21.07
-22.87
-28.46
-36.41
-45.39
-53.33
-60.66
-67.91
-75.64
-84.26
-94.04
-105.10
-117.12
-128.83
-137.31
-138.74
-129.20
-106.97
-74.26
-36.95
-2.68
22.29
35.42
38.35
35.11
29.86
24.94
20.49
15.69
10.05
3.97
-1.12
-4.26
-5.65
-6.46
-8.01
-11.31
-16.07
-20.83
-23.52
-22.17
-15.92
-4.83
9.79
25.90
41.37
54.52
64.21
69.88
71.24
67.91
59.85
47.21
30.55
10.97
-9.82
-29.94
-47.48
-60.99
-69.86
-73.81
-73.32
-69.31
-62.55
-53.57
-42.93
-31.03
-18.21
-4.89
8.47
21.13
32.32
41.08
46.69
48.57
46.48
40.60
31.38
19.65
6.26
-7.76
-21.47
-33.94
-44.40
-52.28
-57.19
-59.03
-57.89
-54.32
-49.09
-43.31
-37.92
-33.54
-30.54
-28.72
-27.55
-26.29
-24.54
-22.33
-20.40
-19.21
-18.77
-18.83
-18.54
-16.68
-12.18
-4.88
4.29
12.89
19.09
21.96
21.43
18.72
16.18
16.09
19.80
27.12
35.59
43.44
49.80
54.58
59.07
66.34
80.16
104.71
143.44
193.44
250.73
308.66
358.18
384.94
379.55
340.95
277.64
212.87
159.40
121.46
96.53
75.65
51.43
19.87
-20.54
-69.27
-124.86
-186.02
-248.06
-303.98
-346.44
-370.17
-373.26
-358.53
-331.79
-299.85
-269.59
-244.44
-225.27
-211.32
-200.70
-190.40
-177.23
-158.09
-131.16
-97.90
-61.64
-27.09
1.26
21.15
33.78
43.16
55.00
75.11
106.57
149.53
200.37
252.47
297.88
328.74
339.45
328.75
301.19
266.07
235.33
218.60
219.22
232.55
247.07
249.57
230.91
189.77
132.25
68.48
7.93
-45.81
-90.47
-125.15
-148.85
-160.18
-158.25
-144.29
-122.19
-97.70
-76.52
-61.77
-53.95
-50.86
-49.15
-45.92
-40.00
-32.25
-24.68
-19.26
-16.63
-16.22
-16.35
-15.26
-11.82
-6.04
0.98
8.00
14.31
20.13
26.33
33.82
42.82
52.38
61.14
66.40
66.04
59.09
45.94
27.66
5.56
-19.37
-46.36
-74.43
-102.90
-131.18
-158.89
-185.45
-209.49
-228.05
-236.69
-230.97
-208.81
-172.54
-128.98
-87.40
-56.03
-39.01
-35.23
-39.50
-45.43
-48.61
-46.73
-39.63
-28.11
-13.13
4.48
23.57
42.57
59.12
71.01
76.55
75.37
68.49
58.13
47.18
38.40
34.25
35.88
43.66
57.56
77.46
103.06
132.46
161.42
182.77
188.56
172.61
133.90
77.85
14.72
-43.46
-87.60
-113.50
-122.41
-118.76
-107.92
-94.76
-82.95
-75.17
-72.03
-72.37
-72.40
-66.89
-50.95
-21.46
19.88
66.57
108.33
134.59
136.98
111.76
60.94
-8.04
-83.30
-151.49
-199.88
-219.87
-208.34
-168.25
-107.26
-36.12
32.57
86.66
115.89
115.52
87.93
43.13
-4.18
-39.63
-54.08
-46.59
-22.03
12.15
50.41
89.95
128.78
163.17
186.58
192.35
177.05
144.09
102.56
63.92
37.14
25.44
26.38
33.46
40.14
41.33
34.92
20.28
-2.33
-31.86
-66.17
-101.10
-131.86
-153.15
-162.65
-160.84
-151.75
-140.89
-132.34
-127.42
-123.45
-116.31
-101.39
-79.96
-56.11
-36.62
-27.52
-30.21
-40.78
-50.44
-50.11
-33.50
-0.44
44.08
92.31
136.45
171.54
194.39
203.42
196.24
170.69
126.01
65.38
-2.80
-66.96
-114.32
-136.52
-131.27
-103.74
-63.73
-21.94
13.07
37.04
48.55
48.79
39.48
23.46
4.53
-12.69
-23.63
-26.13
-20.46
-10.10
0.94
9.06
12.23
9.68
0.76
-14.39
-35.18
-58.02
-77.49
-86.77
-81.00
-59.81
-27.73
6.73
35.70
53.78
60.74
59.67
55.07
50.47
46.84
43.77
39.59
33.79
26.38
18.47
11.22
5.38
1.50
-0.75
-1.42
-1.34
-1.02
-1.26
-2.58
-5.11
-9.07
-14.17
-20.69
-27.95
-35.24
-40.83
-42.94
-40.66
-34.33
-26.47
-19.68
-16.23
-15.89
-16.97
-17.19
-15.10
-11.02
-5.33
1.99
13.20
30.69
55.42
84.59
111.59
128.85
130.59
116.47
90.47
59.30
28.24
-0.38
-26.86
-52.23
-75.51
-94.17
-104.58
-104.89
-95.57
-79.53
-60.75
-41.90
-24.06
-5.99
13.34
33.91
52.70
64.15
62.23
43.19
9.56
-30.47
-64.34
-81.45
-77.54
-57.10
-31.19
-11.34
-4.44
-8.13
-13.71
-9.96
9.66
44.19
85.83
123.38
148.02
155.74
149.52
135.67
121.31
110.85
105.46
104.84
108.86
119.05
136.59
162.48
188.64
204.37
199.28
167.86
113.11
44.18
-22.32
-78.83
-121.80
-150.37
-164.44
-164.19
-150.63
-123.98
-85.43
-37.41
14.54
63.71
102.94
126.86
133.92
126.51
110.50
91.83
74.43
58.64
43.35
27.60
11.90
-1.61
-11.07
-15.91
-18.10
-21.12
-28.24
-40.48
-56.06
-71.99
-85.13
-94.18
-99.40
-102.18
-103.93
-105.10
-105.25
-103.26
-98.72
-91.82
-83.68
-75.73
-69.08
-64.50
-61.92
-60.98
-60.51
-59.54
-57.17
-53.15
-48.10
-42.95
-38.99
-36.60
-35.73
-35.35
-34.57
-33.00
-30.93
-29.34
-28.80
-29.64
-30.97
-31.72
-30.62
-26.93
-20.63
-12.13
-2.70
6.39
13.34
16.90
16.45
12.56
6.93
1.52
-1.88
-3.06
-2.67
-2.24
-2.63
-3.50
-3.32
0.25
8.83
23.22
42.21
63.52
83.85
100.02
110.11
114.12
114.83
116.76
125.45
144.77
175.53
214.36
254.21
286.67
303.90
301.56
279.05
239.91
190.05
136.22
84.56
39.34
3.12
-23.97
-43.26
-58.07
-72.66
-91.23
-116.28
-146.66
-177.54
-201.02
-209.87
-200.31
-175.01
-142.46
-114.05
-100.07
-105.34
-128.52
-162.35
-197.37
-224.44
-237.32
-233.66
-214.43
-183.92
-147.83
-112.99
-84.92
-67.04
-59.56
-59.65
-63.10
-65.50
-64.65
-59.89
-52.67
-44.76
-37.53
-31.76
-27.31
-24.39
-23.06
-24.28
-28.23
-34.57
-41.72
-47.20
-49.10
-46.18
-39.42
-30.43
-21.65
-14.24
-7.98
-1.37
7.89
20.96
38.23
57.94
78.10
96.34
111.20
122.11
128.77
131.37
129.05
121.48
107.98
89.22
66.94
43.85
23.15
6.83
-3.89
-9.95
-12.53
-13.32
-13.26
-12.48
-10.88
-7.86
-3.82
1.03
5.38
8.46
9.74
9.33
8.19
6.90
6.35
6.04
5.77
4.87
3.32
1.64
0.26
-0.15
-0.25
-0.47
-2.06
-5.15
-9.32
-13.40
-15.78
-15.69
-12.55
-7.48
-1.52
3.69
7.29
9.14
9.34
8.66
7.18
6.04
6.50
11.17
22.36
40.93
65.16
89.81
108.63
115.13
105.94
80.33
40.44
-9.63
-64.11
-114.61
-151.83
-166.44
-154.32
-118.29
-69.28
-22.48
8.65
17.03
5.00
-19.11
-44.54
-64.13
-75.67
-81.58
-86.08
-91.81
-99.17
-106.01
-110.02
-109.56
-104.84
-97.03
-87.20
-76.23
-63.94
-50.83
-37.86
-27.12
-20.47
-18.20
-18.27
-16.90
-11.20
0.26
16.00
33.35
49.62
63.37
74.84
85.54
97.06
109.40
122.15
134.67
147.22
160.88
177.00
196.95
222.48
254.32
290.74
327.29
357.23
373.31
370.55
348.14
303.56
240.85
168.63
97.02
34.05
-16.39
-54.47
-81.72
-99.82
-109.79
-112.19
-108.77
-102.51
-96.72
-93.44
-93.11
-94.25
-95.00
-93.84
-89.75
-83.06
-75.15
-67.76
-62.10
-58.40
-55.89
-53.52
-50.45
-45.97
-40.14
-33.56
-27.20
-21.60
-16.89
-12.57
-8.03
-2.85
3.45
10.66
18.33
25.51
31.48
35.49
37.51
37.17
34.43
29.61
22.93
14.72
5.17
-5.53
-17.35
-30.17
-43.61
-57.02
-69.21
-78.80
-84.19
-84.03
-77.69
-65.35
-47.97
-26.83
-3.71
19.70
41.66
60.52
74.57
81.83
80.42
68.77
46.82
15.42
-22.07
-61.27
-98.00
-129.26
-153.89
-172.20
-185.67
-195.78
-204.67
-214.38
-226.38
-240.44
-254.00
-262.24
-259.64
-245.31
-217.72
-179.85
-137.66
-97.31
-62.35
-32.64
-5.41
22.51
52.68
83.91
113.18
137.85
156.80
170.48
179.93
185.77
187.82
185.39
178.37
167.28
153.63
139.52
126.94
117.04
109.80
104.19
98.57
91.91
83.82
74.85
66.17
59.00
53.99
50.91
48.84
46.54
43.21
38.74
33.69
29.21
26.32
25.47
26.25
27.65
28.46
27.92
26.20
24.12
23.14
24.44
28.48
34.60
41.40
47.45
51.53
53.92
55.08
55.71
56.50
58.09
60.85
64.65
68.63
70.26
66.25
52.94
28.89
-4.18
-41.02
-74.70
-99.33
-112.12
-114.53
-110.19
-103.48
-96.66
-89.91
-82.14
-72.28
-60.71
-48.53
-37.65
-28.87
-22.54
-18.06
-14.50
-11.34
-8.03
-4.90
-1.88
0.53
2.54
4.36
6.52
9.47
13.16
17.77
22.62
27.64
32.39
37.06
41.94
47.27
53.08
58.73
64.07
68.12
70.51
70.70
68.73
65.08
60.24
54.56
47.96
41.09
34.23
28.21
23.70
20.90
19.28
21.19
26.31
32.69
38.53
42.16
43.09
41.80
39.10
36.17
33.50
31.48
30.40
31.30
34.84
40.63
47.15
51.53
51.57
45.91
35.24
21.74
8.52
-1.78
-7.90
-9.53
-7.67
-3.35
1.46
4.52
3.52
-2.99
-14.63
-29.53
-44.32
-56.16
-63.04
-65.27
-64.81
-64.30
-65.89
-69.93
-75.84
-81.59
-85.43
-85.99
-83.06
-77.25
-69.64
-62.12
-57.07
-58.03
-67.09
-83.60
-102.13
-113.50
-108.64
-82.73
-39.12
12.04
56.69
83.97
89.63
76.11
49.25
14.16
-25.20
-65.88
-103.36
-134.13
-155.42
-167.09
-171.73
-172.77
-172.21
-168.35
-157.75
-137.99
-113.51
-91.04
-75.24
-66.00
-59.31
-51.18
-40.54
-31.27
-30.22
-47.19
-84.50
-133.20
-176.99
-201.46
-201.71
-183.68
-160.38
-144.96
-150.53
-180.19
-226.06
-275.39
-318.47
-352.47
-378.52
-397.31
-370.79
-279.91
-138.05
16.68
149.34
244.49
303.09
334.02
347.61
351.61
344.49
324.35
294.01
261.21
234.18
218.13
213.82
218.30
225.83
224.69
205.29
164.64
108.08
46.04
-9.21
-46.55
-58.30
-42.85
-7.83
34.82
73.85
101.86
115.82
116.62
107.46
92.84
76.45
59.22
41.71
25.55
14.01
9.85
14.18
23.77
32.45
32.96
18.87
-11.93
-55.89
-104.17
-145.53
-169.11
-167.91
-140.13
-90.39
-28.39
34.01
85.96
120.99
137.35
137.69
126.30
107.70
85.47
62.49
41.60
24.78
12.98
4.72
-3.55
-16.69
-38.97
-72.07
-113.74
-157.16
-192.89
-211.01
-204.69
-172.18
-117.76
-50.58
17.90
76.24
115.68
130.92
121.55
91.67
49.90
7.57
-24.41
-38.49
-33.26
-12.84
14.94
42.40
64.32
78.69
86.12
87.64
84.29
76.49
65.05
51.35
37.42
25.26
15.86
9.25
4.10
-0.76
-6.09
-11.47
-15.74
-17.57
-16.04
-11.37
-4.31
3.64
11.34
17.87
22.72
25.81
27.11
27.09
26.17
25.15
24.35
23.88
23.41
22.46
21.01
19.09
17.12
14.97
12.56
9.53
5.93
2.31
-0.68
-2.33
-3.13
-4.16
-7.47
-14.76
-26.81
-42.91
-60.58
-76.45
-86.52
-87.91
-78.99
-60.48
-35.07
-6.74
20.12
42.12
57.01
64.48
65.04
60.10
51.27
40.28
29.12
19.44
12.65
8.93
7.66
7.27
6.17
3.42
-1.19
-6.77
-12.40
-16.86
-19.49
-19.64
-16.92
-11.29
-3.11
6.18
14.75
20.28
21.43
17.96
11.03
2.78
-4.86
-10.23
-12.82
-12.27
-8.76
-2.37
6.35
16.09
25.05
30.93
32.42
29.31
23.37
17.18
13.27
12.97
15.71
19.65
21.86
20.05
12.75
0.37
-14.98
-30.15
-41.67
-47.37
-46.69
-41.58
-35.06
-30.30
-28.84
-29.88
-31.38
-31.31
-29.81
-29.03
-32.26
-41.49
-55.66
-70.81
-81.11
-81.83
-70.47
-47.47
-14.96
23.57
63.15
97.17
118.16
121.43
107.65
84.90
65.16
58.61
67.58
84.28
94.96
86.95
56.48
9.94
-38.82
-76.17
-94.62
-94.44
-81.68
-63.03
-43.37
-24.39
-6.73
8.64
19.63
23.64
19.54
8.32
-6.33
-19.95
-28.39
-29.57
-23.86
-13.44
-1.86
7.75
12.85
12.84
8.42
1.61
-5.18
-10.10
-12.20
-12.19
-11.12
-10.52
-10.98
-12.10
-12.51
-10.33
-4.41
5.57
17.96
30.43
39.96
44.25
42.32
34.63
23.28
10.63
-0.78
-9.77
-15.97
-19.91
-22.33
-23.44
-23.27
-21.34
-17.91
-13.42
-8.99
-5.49
-3.25
-1.96
-0.68
1.04
3.52
6.13
8.21
9.13
8.61
6.89
4.17
1.04
-2.29
-5.28
-7.56
-8.78
-8.81
-7.94
-6.50
-5.16
-4.03
-3.17
-2.06
0.03
3.62
8.98
15.11
20.19
21.25
16.04
4.24
-11.22
-24.25
-27.85
-16.61
9.70
45.84
81.81
106.58
111.89
95.10
60.41
16.86
-23.80
-51.44
-60.03
-49.32
-24.48
5.78
31.46
44.41
39.82
18.70
-12.48
-42.97
-61.18
-59.47
-37.41
-3.44
28.69
45.23
39.47
14.64
-17.83
-44.20
-55.82
-52.13
-40.32
-29.48
-25.64
-28.46
-32.40
-30.84
-19.90
-1.27
19.79
36.79
45.48
45.17
37.94
27.29
16.25
7.15
0.75
-2.68
-3.62
-2.82
-1.06
0.44
0.85
-0.67
-3.97
-8.48
-12.93
-15.93
-16.53
-14.25
-9.94
-4.84
-0.83
1.03
0.40
-2.08
-5.01
-7.15
-7.22
-5.02
-0.73
4.46
9.21
12.37
13.25
12.15
9.59
6.70
4.01
1.99
0.63
-0.28
-0.86
-1.39
-1.75
-2.20
-2.54
-2.74
-2.55
-1.54
0.53
3.85
7.88
12.01
15.14
16.53
15.94
13.62
10.57
7.63
5.81
5.22
5.81
6.98
8.21
9.25
9.91
10.40
10.53
10.34
9.44
7.64
5.00
1.86
-0.93
-2.81
-3.18
-2.32
-0.71
0.81
1.53
1.26
-0.03
-1.84
-4.03
-6.25
-8.55
-10.90
-13.11
-14.89
-15.62
-15.10
-13.07
-10.08
-6.79
-4.11
-2.71
-2.62
-3.51
-4.32
-4.51
-3.56
-1.82
0.13
1.83
3.05
4.24
5.63
7.55
9.59
11.30
12.28
12.44
12.22
11.72
11.15
9.85
7.38
3.42
-1.72
-7.15
-11.94
-15.06
-16.33
-15.66
-13.52
-10.30
-6.50
-2.68
0.72
3.02
4.22
4.21
3.48
2.51
1.74
1.55
1.89
2.78
3.55
3.86
3.11
1.16
-1.68
-4.84
-7.28
-8.54
-8.21
-6.80
-4.88
-3.09
-1.79
-0.74
0.21
1.58
3.16
4.73
5.72
5.86
5.29
4.52
4.57
5.96
9.07
13.26
17.61
21.03
22.80
23.09
22.56
22.61
23.99
26.95
30.48
32.87
32.45
28.23
20.93
12.24
4.84
0.65
0.50
3.61
7.93
11.13
10.85
6.00
-3.77
-17.24
-32.02
-44.57
-50.79
-47.82
-35.43
-17.97
-3.29
-0.34
-14.64
-44.46
-80.02
-106.00
-108.19
-79.46
-24.36
42.20
100.22
132.10
128.85
91.92
31.92
-36.37
-97.74
-139.99
-155.36
-141.27
-101.59
-46.38
9.32
50.36
66.42
57.07
32.50
9.31
3.54
22.75
62.98
110.07
146.26
157.34
138.07
93.76
37.07
-16.62
-55.40
-73.42
-71.95
-56.99
-36.10
-16.09
-1.55
4.21
-0.43
-15.87
-39.74
-66.74
-89.56
-100.98
-97.32
-79.55
-53.48
-26.29
-3.88
11.53
21.30
28.30
35.39
43.35
51.47
57.45
58.97
54.24
42.71
25.73
6.01
-12.03
-24.38
-27.96
-22.24
-9.20
7.43
23.36
35.62
42.57
44.70
43.16
39.40
34.46
28.75
22.84
17.00
12.20
8.83
7.31
7.50
8.92
11.18
13.13
13.26
8.43
-4.59
-28.28
-61.60
-98.87
-130.78
-147.09
-141.60
-114.17
-71.86
-25.26
15.34
43.67
58.70
62.92
60.48
54.20
45.91
36.33
26.46
17.93
12.33
10.99
13.54
18.84
24.51
28.42
29.20
26.58
21.85
16.56
12.50
10.07
8.89
7.56
4.82
0.39
-5.00
-9.44
-11.54
-10.44
-7.01
-2.93
-0.15
-0.05
-2.44
-6.43
-10.21
-12.78
-13.70
-13.59
-13.36
-13.49
-14.12
-14.39
-13.86
-12.11
-9.65
-7.17
-5.21
-3.95
-2.61
-0.72
2.32
5.95
9.25
11.05
10.55
8.02
4.18
0.52
-2.07
-2.92
-2.24
-0.59
1.38
2.96
4.03
4.36
4.34
4.06
3.82
3.74
3.74
3.97
4.12
4.42
4.69
5.11
5.65
6.26
7.08
7.96
9.11
10.16
11.04
11.36
11.06
10.40
9.63
9.38
9.69
10.73
11.92
12.90
13.34
13.10
12.64
12.20
12.50
13.61
15.77
18.57
21.46
23.83
25.05
25.19
24.30
23.16
22.31
22.40
23.72
26.07
29.07
31.66
33.05
32.23
28.97
23.57
17.15
11.38
7.46
5.87
5.09
2.32
-6.70
-25.95
-57.70
-100.87
-149.76
-195.15
-225.49
-231.22
-207.36
-156.09
-86.30
-11.04
56.01
104.91
131.03
135.93
125.32
106.51
86.18
68.43
54.84
44.42
35.23
24.35
8.74
-14.45
-47.02
-87.73
-131.36
-168.14
-187.26
-180.80
-148.62
-99.12
-45.71
-0.71
30.66
50.50
65.43
79.75
91.96
95.72
85.20
60.93
30.63
5.98
-4.79
-0.86
10.99
20.95
22.47
15.03
3.76
-5.23
-7.94
-4.75
1.30
7.12
11.07
13.63
15.55
17.25
17.84
16.42
12.68
7.20
1.37
-3.64
-6.67
-7.65
-6.62
-3.95
-0.04
4.53
8.63
11.12
10.64
7.10
1.29
-4.80
-9.02
-10.05
-7.78
-4.07
-1.25
-1.73
-5.69
-10.99
-13.64
-9.35
4.33
27.46
57.04
88.47
115.71
132.75
134.57
118.79
87.79
48.62
12.04
-12.04
-18.16
-8.20
9.66
25.12
30.53
24.55
11.15
-3.10
-13.24
-17.52
-17.14
-14.43
-10.39
-4.60
4.61
17.56
32.62
46.21
54.18
53.70
43.78
26.29
5.16
-13.96
-25.70
-25.94
-12.91
11.41
41.20
66.74
77.91
68.14
38.08
-4.35
-46.69
-76.49
-86.97
-78.98
-61.01
-44.33
-37.74
-44.27
-62.03
-86.33
-111.84
-136.12
-155.12
-165.27
-168.24
-168.93
-170.89
-174.33
-177.65
-176.69
-166.22
-141.45
-101.14
-48.67
8.45
61.31
101.36
123.95
130.44
127.26
123.29
125.86
138.37
159.83
187.28
208.97
213.95
197.08
162.16
118.42
73.75
35.84
1.64
-30.40
-57.98
-75.69
-78.16
-63.72
-35.10
1.63
39.04
70.58
92.54
102.90
101.63
90.02
71.00
48.15
25.28
4.86
-12.78
-28.22
-42.46
-54.21
-59.63
-52.91
-29.74
10.16
61.28
113.20
154.70
176.85
176.93
158.77
131.51
105.24
87.52
80.83
82.19
85.68
84.44
74.24
54.23
27.66
0.13
-22.38
-35.28
-37.20
-29.92
-18.44
-8.79
-6.58
-14.77
-32.92
-57.90
-84.94
-109.90
-130.11
-145.41
-157.24
-168.16
-180.22
-193.38
-205.25
-210.79
-204.33
-181.03
-139.59
-83.24
-19.76
40.19
86.14
109.79
107.40
79.49
30.99
-30.19
-94.05
-149.87
-188.09
-201.90
-189.47
-153.95
-103.31
-48.08
1.75
39.43
63.18
75.34
80.60
82.66
82.50
77.91
64.92
40.75
5.34
-37.79
-83.28
-124.96
-157.29
-175.45
-175.72
-156.68
-120.89
-76.74
-36.73
-13.74
-14.79
-37.60
-71.04
-100.32
-113.96
-107.90
-85.84
-54.70
-20.33
14.74
49.92
83.52
111.25
126.91
125.58
105.88
71.14
28.22
-14.77
-49.98
-71.03
-73.30
-55.46
-20.40
24.15
66.92
96.62
105.75
93.46
64.75
27.48
-11.69
-48.66
-81.73
-109.15
-126.99
-130.00
-113.60
-77.36
-26.05
31.04
85.02
129.65
162.96
186.58
203.16
214.82
222.60
227.01
227.61
225.27
218.64
204.79
180.40
143.36
94.06
35.88
-25.46
-84.20
-131.18
-159.17
-163.33
-143.32
-105.14
-60.73
-24.62
-8.91
-20.22
-52.82
-96.66
-140.51
-176.43
-202.33
-221.04
-236.84
-240.49
-245.66
-246.08
-237.18
-216.69
-185.98
-149.32
-111.75
-76.27
-42.88
-11.42
21.47
53.90
80.34
93.73
89.12
66.67
32.86
-1.45
-26.27
-32.02
-16.81
15.45
57.05
99.83
137.47
167.14
189.32
205.95
221.56
238.33
256.60
274.50
288.27
292.85
283.33
256.43
211.46
152.20
84.25
15.76
-43.91
-86.45
-107.23
-107.15
-92.63
-73.48
-59.14
-57.20
-70.32
-96.13
-128.80
-161.32
-186.89
-199.49
-194.53
-165.44
-113.88
-51.52
4.05
38.89
49.22
40.42
21.58
0.37
-19.58
-39.47
-60.99
-83.97
-105.36
-121.48
-128.65
-125.11
-111.35
-89.57
-63.29
-34.47
-3.33
31.37
71.29
117.30
169.00
224.73
282.06
332.12
366.70
378.55
362.94
319.21
251.32
167.26
77.35
-8.05
-80.87
-135.45
-169.49
-183.44
-179.32
-159.68
-126.92
-83.31
-31.85
22.65
73.76
113.46
134.27
132.36
109.28
71.64
28.72
-11.23
-43.38
-66.60
-82.16
-91.61
-94.91
-90.75
-78.17
-58.05
-33.65
-9.59
9.99
22.75
28.95
30.93
31.23
30.21
25.14
11.14
-15.70
-55.36
-102.51
-147.09
-177.32
-184.06
-164.41
-122.16
-65.38
-2.86
57.59
108.68
143.06
153.98
136.97
91.95
24.47
-54.98
-131.12
-186.19
-207.81
-195.10
-157.97
-109.94
-61.31
-17.08
21.46
54.36
81.48
101.72
114.09
118.89
118.41
115.82
114.12
115.36
120.19
128.06
137.16
145.30
151.27
154.87
156.29
155.77
153.33
148.67
141.59
132.07
120.76
109.48
100.98
98.05
102.69
115.66
135.92
161.22
188.30
213.70
234.67
249.32
256.22
254.39
245.48
230.67
211.30
188.59
163.60
137.51
111.35
84.74
57.57
30.32
3.14
-24.15
-52.25
-81.98
-113.62
-146.77
-183.12
-222.95
-264.91
-307.21
-348.87
-390.22
-432.01
-474.18
-515.18
-556.53
-596.88
-632.09
-656.86
-667.41
-663.08
-646.39
-622.01
-595.63
-577.85
-573.91
-581.19
-590.47
-591.13
-575.92
-543.45
-497.73
-410.88
-278.94
-118.90
40.85
177.90
283.13
356.82
402.79
425.59
430.42
417.37
389.29
351.97
312.42
275.58
243.15
214.94
190.31
169.16
147.76
124.74
100.80
79.52
63.35
52.54
46.03
42.27
39.87
35.11
25.91
12.26
-4.28
-22.27
-41.05
-60.14
-79.07
-97.15
-114.77
-131.59
-146.21
-156.43
-159.86
-156.77
-147.40
-132.59
-113.73
-93.10
-72.87
-54.61
-38.97
-25.87
-14.81
-4.93
4.17
12.33
18.80
22.57
23.06
20.51
16.16
11.88
9.72
10.86
15.30
22.07
29.95
38.48
48.48
62.29
83.25
115.10
160.78
221.35
294.95
376.19
456.69
526.41
576.25
600.34
597.92
573.41
534.77
491.10
449.96
415.94
390.14
371.10
356.28
343.70
332.91
324.63
319.74
317.86
316.81
313.04
303.43
286.88
265.26
242.67
222.97
207.37
192.89
173.36
142.30
96.55
38.14
-26.29
-88.49
-142.39
-186.03
-221.47
-252.39
-281.44
-308.99
-333.76
-354.47
-370.65
-382.40
-389.13
-388.96
-379.13
-357.44
-323.87
-281.12
-234.23
-189.29
-152.15
-127.11
-116.08
-118.22
-130.12
-147.15
-164.83
-180.31
-192.59
-201.56
-206.61
-206.03
-198.00
-182.24
-160.99
-137.89
-115.85
-95.10
-73.11
-46.83
-15.85
15.65
40.34
51.60
47.91
34.58
21.90
20.68
37.09
70.19
112.71
154.80
188.67
211.39
224.69
233.02
241.02
251.16
263.21
275.05
284.46
291.25
297.03
303.09
307.93
306.49
292.06
259.93
210.60
150.43
89.78
38.12
-1.13
-31.85
-62.74
-102.13
-153.80
-215.98
-283.19
-348.89
-402.44
-432.60
-431.83
-401.13
-348.92
-285.74
-220.04
-157.44
-101.43
-54.50
-18.73
6.11
22.28
34.14
46.49
62.51
82.26
104.24
123.98
135.27
133.96
118.68
92.16
61.00
33.84
18.32
18.47
29.89
38.53
31.60
1.81
-49.34
-111.98
-172.14
-217.13
-239.98
-230.55
-192.80
-136.72
-72.90
-8.77
51.46
104.88
148.57
181.69
203.17
211.34
207.58
195.00
176.91
155.60
131.46
103.07
67.82
26.43
-18.69
-62.30
-99.67
-128.22
-147.79
-160.00
-167.05
-170.66
-171.65
-171.18
-176.02
-185.47
-197.22
-209.41
-220.65
-229.62
-234.86
-234.67
-228.85
-203.90
-157.55
-93.93
-21.66
49.92
113.46
163.28
201.26
228.26
244.18
247.36
237.35
213.78
177.22
128.92
72.72
13.64
-45.13
-100.84
-151.38
-184.92
-190.67
-164.01
-109.70
-38.95
36.62
106.97
166.37
212.03
245.43
267.17
275.95
270.68
252.34
224.04
187.85
145.13
95.70
38.99
-25.78
-99.09
-180.09
-266.02
-341.97
-394.96
-418.36
-413.57
-385.86
-340.84
-283.07
-217.20
-149.16
-85.79
-35.08
-2.05
13.25
14.97
8.72
-1.07
-13.16
-25.00
-33.13
-34.80
-27.44
-8.99
21.29
61.71
107.52
150.93
182.20
194.87
187.87
166.43
139.88
117.27
103.76
98.83
98.55
98.75
97.77
96.31
95.89
97.33
99.33
99.52
95.55
87.20
76.64
67.17
61.85
61.57
65.17
69.53
72.01
70.22
63.99
55.08
45.66
37.40
30.23
22.63
12.05
-3.69
-25.83
-54.34
-86.66
-119.60
-148.31
-167.22
-171.27
-158.54
-131.48
-96.71
-62.73
-36.58
-21.67
-16.66
-17.71
-20.74
-23.54
-26.06
-29.14
-33.29
-37.69
-41.01
-42.03
-40.88
-38.78
-37.53
-38.65
-42.56
-48.55
-55.34
-61.88
-67.51
-72.46
-77.37
-82.89
-88.94
-94.94
-98.48
-96.99
-88.45
-71.85
-47.51
-17.04
16.83
50.86
82.03
107.76
126.07
135.66
136.18
128.04
112.62
91.83
67.79
42.99
19.85
0.38
-13.94
-22.12
-23.97
-19.58
-9.68
4.28
20.50
37.00
51.74
62.92
69.27
70.28
66.47
58.73
48.19
36.10
23.58
11.64
1.39
-6.34
-10.90
-11.25
-7.07
0.83
10.85
20.68
27.83
30.68
28.22
15.98
-5.83
-35.11
-69.58
-107.44
-147.84
-190.53
-234.44
-277.80
-317.60
-350.87
-374.28
-385.55
-384.26
-371.71
-350.46
-322.64
-290.30
-253.95
-213.29
-167.94
-117.89
-63.32
-4.26
53.89
105.78
145.18
167.43
170.79
157.98
136.57
117.24
109.87
119.56
145.35
180.01
215.92
247.42
272.35
291.61
306.95
319.17
327.98
333.44
335.66
337.61
340.80
344.12
344.10
336.81
321.08
299.03
275.79
256.32
247.73
253.78
274.26
305.73
342.86
380.14
412.59
436.42
429.43
380.78
291.38
174.04
46.90
-74.89
-182.47
-272.35
-340.64
-390.81
-420.61
-426.78
-408.01
-367.18
-311.95
-252.83
-201.46
-167.49
-156.56
-165.26
-186.04
-210.43
-231.79
-246.85
-255.43
-259.19
-259.81
-258.33
-251.71
-235.85
-206.98
-163.06
-104.58
-34.32
43.51
124.18
202.10
271.52
325.08
354.98
355.58
325.98
271.71
203.87
135.65
78.09
37.27
13.13
1.60
-2.52
-4.24
-7.83
-16.95
-34.65
-62.57
-99.95
-142.70
-183.61
-211.96
-218.05
-199.40
-163.27
-122.92
-90.61
-73.30
-72.00
-83.51
-102.65
-124.05
-143.46
-156.48
-158.50
-146.08
-119.29
-82.77
-44.70
-14.75
-1.47
-9.24
-36.11
-74.68
-111.70
-133.38
-131.50
-107.58
-72.60
-42.00
-27.98
-33.10
-49.10
-61.24
-56.49
-29.72
15.12
69.11
124.61
179.17
234.28
290.81
344.95
387.37
407.15
397.27
358.77
300.63
235.48
173.86
121.18
77.91
41.64
9.50
-21.06
-51.90
-83.61
-114.88
-142.01
-159.53
-162.00
-146.94
-116.59
-78.57
-44.39
-24.83
-24.90
-42.37
-70.93
-104.33
-138.50
-170.39
-196.24
-212.02
-213.78
-200.84
-178.05
-155.30
-143.54
-149.66
-172.85
-204.98
-232.54
-241.80
-224.36
-180.40
-118.71
-53.60
-0.49
28.77
29.56
6.45
-27.64
-55.56
-62.14
-40.22
6.57
65.86
122.22
163.68
185.61
190.87
186.66
180.58
178.01
181.23
189.80
200.32
206.71
200.99
175.99
129.18
65.75
-1.22
-54.74
-80.81
-75.27
-46.46
-12.31
7.60
0.77
-32.83
-81.10
-126.04
-151.52
-149.00
-118.90
-68.25
-7.30
53.40
104.19
137.11
147.17
134.13
103.73
66.89
36.67
23.80
33.36
63.08
104.92
147.97
181.50
197.63
192.97
169.41
134.10
98.52
75.48
75.04
100.22
145.76
199.96
249.13
282.73
296.13
290.16
268.49
235.31
194.13
149.16
106.96
76.20
64.46
73.93
98.98
127.68
146.95
147.56
127.41
91.07
46.25
0.01
-43.30
-81.93
-118.18
-151.47
-178.91
-196.87
-202.76
-197.01
-183.30
-167.27
-154.38
-147.31
-145.38
-144.89
-141.19
-130.41
-111.04
-84.99
-56.90
-32.15
-14.05
-3.58
0.21
-2.10
-11.31
-29.47
-58.39
-97.55
-143.58
-190.23
-231.81
-260.17
-269.29
-256.83
-224.93
-179.38
-127.00
-77.95
-34.79
0.79
26.64
39.55
36.87
19.27
-9.15
-39.85
-62.49
-67.82
-52.71
-20.08
22.73
67.62
109.14
144.76
174.64
198.93
216.30
222.26
212.09
183.27
137.58
81.13
21.49
-33.47
-78.02
-109.60
-130.21
-144.13
-155.84
-168.39
-183.00
-200.04
-217.73
-232.54
-239.93
-236.58
-221.03
-194.45
-160.36
-119.17
-76.10
-37.39
-9.16
11.41
28.73
46.39
62.23
72.87
74.35
64.11
44.27
21.71
5.90
4.63
21.65
55.17
98.91
143.26
177.77
194.55
190.26
166.21
126.15
74.92
16.90
-43.69
-103.09
-156.36
-195.95
-212.82
-200.62
-160.73
-103.62
-46.19
-3.85
15.57
15.75
9.86
14.07
39.49
87.07
148.36
209.74
259.03
288.33
295.11
281.07
250.01
206.03
152.54
93.02
28.99
-32.73
-82.92
-113.39
-120.28
-105.28
-74.85
-38.06
-4.06
20.03
31.49
30.15
18.04
-0.37
-18.92
-31.17
-32.62
-21.44
-1.26
20.14
33.80
33.84
20.39
-1.04
-22.65
-37.81
-43.66
-41.21
-33.00
-22.81
-15.34
-14.94
-24.38
-43.52
-69.16
-96.56
-121.52
-141.64
-155.94
-166.93
-178.76
-194.37
-213.07
-229.85
-237.07
-227.74
-197.52
-147.23
-82.84
-13.19
53.33
110.77
156.38
189.54
210.75
222.70
229.37
234.79
241.49
249.17
254.08
250.96
235.43
201.74
152.44
97.55
49.82
17.68
2.70
-1.60
-2.21
-4.10
-10.86
-24.65
-46.63
-76.45
-111.23
-144.87
-169.48
-177.85
-164.29
-131.22
-88.18
-48.06
-20.85
-10.29
-14.22
-27.53
-44.78
-61.63
-74.38
-78.19
-68.30
-42.11
-1.71
45.66
88.80
115.91
119.36
98.12
58.73
12.33
-29.99
-61.49
-81.41
-93.84
-104.69
-118.78
-138.20
-161.25
-182.85
-195.88
-193.59
-172.24
-132.87
-81.45
-26.74
22.46
60.46
86.44
104.07
119.15
136.83
159.68
186.84
214.69
237.79
250.63
249.56
234.44
208.86
178.67
149.98
126.79
110.06
97.32
83.59
64.10
36.64
2.85
-32.11
-60.97
-77.19
-77.46
-62.78
-40.96
-23.27
-18.58
-29.24
-50.98
-75.90
-96.43
-107.20
-107.86
-102.68
-97.49
-98.54
-111.58
-140.67
-185.98
-243.09
-301.47
-347.43
-370.10
-362.43
-323.46
-259.38
-181.64
-103.08
-33.67
23.20
69.96
109.94
147.54
186.17
225.82
263.87
296.57
314.15
310.15
295.50
277.01
253.99
228.79
205.77
190.94
189.30
202.32
226.53
253.22
268.84
262.67
231.84
180.74
119.33
58.45
6.37
-32.59
-58.34
-75.04
-87.35
-98.06
-109.25
-121.15
-132.04
-137.70
-131.91
-108.76
-65.70
-4.22
70.71
149.86
221.94
275.50
301.69
296.79
263.12
208.39
143.45
79.98
26.31
-14.15
-42.58
-63.40
-81.99
-104.01
-133.95
-173.97
-221.15
-266.77
-297.60
-300.32
-268.19
-204.99
-126.09
-52.40
-3.32
10.77
-9.46
-54.67
-111.18
-165.90
-207.64
-228.68
-224.46
-195.98
-150.50
-100.17
-57.96
-31.18
-19.08
-12.96
-2.35
19.34
51.29
86.01
113.98
127.39
123.36
102.88
70.11
30.66
-9.35
-43.78
-68.19
-80.91
-84.39
-83.85
-86.09
-96.81
-119.22
-153.27
-195.22
-238.47
-273.96
-293.14
-289.99
-264.05
-220.88
-169.98
-121.57
-82.23
-53.70
-32.93
-15.19
3.60
25.14
48.92
74.12
101.00
131.94
169.92
216.42
268.90
320.07
359.54
377.62
369.06
334.68
280.66
215.64
148.10
85.41
34.25
1.17
-8.74
5.65
38.62
78.02
108.71
118.16
101.48
62.30
9.78
-46.76
-101.67
-153.58
-202.49
-246.21
-278.65
-291.22
-277.07
-234.82
-170.88
-97.97
-31.39
15.65
35.21
25.62
-9.62
-63.82
-128.42
-193.93
-250.46
-288.63
-301.34
-285.46
-243.38
-182.70
-114.76
-51.18
-0.57
33.68
53.96
66.56
79.25
98.15
125.98
161.71
201.71
241.57
277.63
307.62
329.81
342.29
342.48
327.82
297.26
252.60
198.74
142.65
91.48
50.53
22.21
5.91
-0.99
-1.75
0.21
1.63
-0.88
-10.56
-29.68
-57.76
-90.83
-121.83
-142.80
-148.65
-139.83
-123.21
-109.54
-108.35
-122.93
-148.33
-173.48
-186.26
-178.92
-151.12
-108.91
-60.62
-12.74
32.24
74.01
111.44
141.07
158.08
158.82
142.94
114.09
79.41
47.28
24.75
15.62
19.46
31.62
44.75
50.97
44.56
24.66
-2.78
-27.13
-38.66
-34.16
-18.01
2.25
20.75
35.76
48.96
63.05
78.74
94.22
106.34
111.98
110.72
103.17
90.89
75.92
60.10
44.10
28.00
11.81
-4.11
-18.33
-29.49
-36.51
-39.10
-37.57
-33.69
-30.03
-27.68
-29.02
-36.39
-52.47
-79.34
-118.18
-164.47
-213.07
-258.98
-298.31
-327.89
-343.38
-340.45
-316.24
-272.05
-213.88
-152.20
-97.61
-57.05
-33.36
-21.12
-14.07
-7.27
1.78
14.52
30.99
51.13
74.72
100.90
128.13
153.73
175.14
184.98
179.07
156.30
119.26
72.86
22.64
-26.81
-72.65
-113.61
-149.37
-178.83
-201.75
-217.60
-226.16
-227.66
-223.03
-212.96
-198.21
-179.37
-155.80
-126.67
-91.03
-50.03
-5.87
38.41
81.01
120.56
156.24
188.63
218.29
245.69
270.89
293.66
313.50
332.32
352.67
377.26
409.22
449.80
498.74
554.90
617.22
670.65
702.66
703.38
667.82
597.89
499.35
381.71
257.58
140.92
43.66
-25.59
-63.19
-76.34
-73.96
-66.10
-60.52
-62.03
-73.14
-95.20
-127.48
-168.93
-218.57
-272.16
-327.55
-382.69
-435.66
-484.64
-528.06
-563.81
-590.20
-605.99
-596.89
-554.53
-477.64
-373.46
-255.14
-136.52
-27.99
64.84
140.52
200.83
246.65
279.14
300.90
314.12
320.49
320.15
312.98
299.23
280.13
255.80
226.44
191.98
154.13
114.57
72.60
27.64
-19.86
-67.79
-113.90
-155.66
-191.18
-219.67
-241.60
-261.46
-283.69
-311.24
-344.56
-382.56
-423.59
-466.60
-511.65
-541.52
-545.47
-520.10
-471.70
-412.87
-356.16
-308.79
-271.19
-237.96
-200.67
-155.49
-102.44
-46.17
5.96
46.99
73.20
85.28
86.81
85.11
83.08
82.11
82.42
84.30
88.57
96.08
106.94
120.78
137.54
154.84
172.12
190.34
211.61
238.46
273.44
315.55
359.71
401.30
434.03
454.71
462.98
461.05
452.57
440.77
426.70
408.85
391.58
368.50
334.02
286.22
227.96
166.03
108.46
61.14
26.13
1.75
-17.49
-34.44
-49.36
-60.79
-67.75
-72.00
-78.14
-90.43
-108.85
-127.98
-136.17
-120.96
-74.81
1.12
97.03
197.75
287.78
355.17
392.90
400.33
381.42
343.21
293.92
240.98
189.47
141.69
97.44
55.02
12.94
-29.86
-73.97
-119.79
-167.55
-217.18
-268.09
-319.37
-370.31
-420.83
-472.07
-525.95
-583.62
-643.65
-700.85
-746.79
-772.38
-771.26
-742.49
-691.17
-626.31
-557.49
-491.60
-431.45
-376.37
-324.17
-273.28
-224.02
-178.71
-140.31
-110.87
-90.31
-76.35
-65.64
-55.43
-44.94
-35.24
-28.18
-24.78
-24.35
-24.74
-23.46
-18.82
-10.29
1.95
17.71
37.16
60.53
87.39
116.11
143.88
167.40
184.07
193.20
196.67
198.37
202.35
210.65
222.03
232.38
236.80
231.98
217.47
195.37
168.91
141.11
114.28
90.41
71.46
58.85
52.45
49.97
47.43
41.01
28.94
12.55
-4.32
-17.21
-22.85
-20.20
-10.59
3.05
17.24
28.79
35.56
36.96
34.04
29.11
24.85
23.34
25.31
30.01
35.82
41.32
46.08
50.65
55.83
61.67
66.95
69.75
68.69
63.86
56.73
49.26
42.62
36.98
32.26
29.04
28.93
33.60
43.40
56.49
69.47
79.13
84.20
85.75
86.04
86.97
89.06
91.67
94.03
95.98
97.80
99.44
100.03
98.05
92.53
83.97
74.38
66.24
61.17
58.87
57.48
54.75
49.29
41.24
31.87
22.72
14.88
8.81
4.38
1.24
-1.03
-2.99
-5.44
-9.16
-14.52
-21.05
-27.53
-32.36
-34.33
-33.21
-29.95
-26.31
-24.24
-25.18
-29.50
-36.28
-43.52
-48.81
-50.43
-48.23
-43.60
-38.74
-35.27
-33.47
-32.19
-30.15
-26.91
-23.36
-21.01
-20.61
-21.53
-21.92
-19.85
-14.33
-5.68
4.84
15.80
26.00
34.52
40.64
44.30
46.37
48.60
53.05
60.71
70.76
80.88
88.47
92.25
92.90
92.58
93.54
97.15
103.56
112.32
122.92
134.86
147.11
157.75
164.51
165.78
161.87
155.24
149.89
149.65
156.43
169.36
185.15
199.59
209.46
213.71
213.15
209.27
202.51
191.39
173.14
145.34
107.58
62.26
13.61
-34.08
-78.20
-118.49
-156.40
-193.67
-231.64
-271.19
-312.94
-356.84
-401.32
-442.25
-473.07
-486.64
-477.58
-444.50
-390.57
-322.50
-248.64
-177.26
-115.40
-68.44
-39.73
-29.99
-36.80
-54.48
-75.09
-90.32
-93.92
-83.36
-60.33
-29.67
2.45
30.57
51.31
63.75
68.95
68.91
65.53
60.02
53.07
45.40
38.15
32.80
30.69
32.02
35.66
39.39
40.95
39.16
34.46
28.52
23.10
18.93
15.28
10.67
3.76
-5.72
-16.67
-27.13
-34.88
-38.07
-35.88
-28.83
-18.77
-8.56
-1.12
1.78
0.11
-4.54
-9.86
-14.06
-16.54
-17.90
-19.32
-21.84
-25.67
-30.24
-34.31
-36.51
-35.89
-32.31
-26.46
-19.44
-12.19
-5.07
1.97
8.92
15.10
19.04
18.98
13.74
3.50
-9.87
-23.22
-33.07
-36.73
-33.31
-24.27
-12.98
-3.63
0.36
-2.37
-10.77
-21.98
-32.53
-39.34
-40.31
-34.43
-21.75
-3.38
18.47
40.82
60.64
75.76
85.53
90.84
93.45
95.20
97.35
100.22
103.16
104.94
104.26
100.46
94.06
86.59
79.94
75.45
73.15
71.74
69.54
65.39
59.21
51.86
44.40
37.55
31.45
25.94
20.70
15.42
9.73
3.31
-3.87
-11.47
-18.83
-25.31
-30.53
-34.34
-36.64
-37.22
-35.89
-32.76
-28.26
-22.86
-16.59
-9.12
-0.06
10.22
20.36
28.42
32.98
33.87
32.35
30.31
29.18
29.40
30.54
31.83
32.57
32.39
31.03
28.40
24.59
20.10
15.76
12.35
10.14
8.75
7.30
4.80
0.65
-5.17
-12.04
-18.92
-24.73
-28.75
-30.69
-30.75
-29.40
-27.38
-25.69
-25.67
-28.75
-36.02
-47.56
-62.02
-76.90
-89.33
-97.15
-99.13
-95.05
-85.22
-70.17
-50.79
-28.52
-5.38
16.53
35.54
50.89
62.41
70.02
73.48
72.49
67.22
58.70
48.83
39.76
33.12
29.50
28.55
29.43
31.24
33.30
35.00
35.82
35.40
33.84
31.83
30.50
30.90
33.12
36.00
37.44
35.21
27.91
15.65
-0.11
-17.25
-33.79
-48.51
-61.08
-71.80
-81.20
-89.57
-96.86
-102.65
-106.34
-107.40
-105.70
-101.71
-96.36
-90.78
-85.79
-81.66
-77.99
-74.06
-69.21
-63.19
-56.08
-48.06
-39.29
-29.81
-19.87
-9.99
-0.88
6.85
13.06
18.22
23.11
28.29
33.62
38.27
41.13
41.35
38.68
33.59
26.95
19.61
12.22
5.25
-1.01
-6.32
-10.61
-13.87
-16.08
-17.06
-16.53
-14.27
-10.42
-5.60
-0.56
4.17
8.74
13.77
20.06
27.93
36.98
46.28
54.72
61.54
66.44
69.46
70.75
70.48
68.87
66.37
63.62
61.21
59.43
58.08
56.47
53.79
49.48
43.48
36.37
29.17
22.96
18.51
15.97
14.72
13.50
10.80
5.28
-3.66
-15.69
-29.68
-44.07
-57.36
-68.55
-77.24
-83.59
-88.02
-90.95
-92.49
-92.34
-89.72
-83.54
-72.91
-57.65
-38.77
-18.46
0.39
15.42
25.70
32.44
38.50
47.15
60.60
78.96
100.20
121.02
138.22
149.67
155.00
155.33
152.38
147.73
142.17
135.71
128.02
118.87
108.41
97.11
85.48
73.87
62.81
53.29
46.94
45.59
50.18
59.86
71.71
81.40
84.64
78.70
62.97
38.91
9.31
-22.48
-53.01
-79.12
-98.31
-109.29
-112.20
-108.74
-101.43
-92.88
-84.88
-78.11
-72.29
-66.78
-61.07
-55.21
-49.81
-45.60
-43.12
-42.43
-43.16
-44.77
-46.80
-48.94
-50.98
-52.68
-53.59
-53.28
-51.37
-47.80
-42.94
-37.43
-32.00
-27.35
-23.93
-21.73
-20.46
-19.65
-18.89
-18.05
-17.06
-15.82
-14.02
-11.34
-7.61
-3.10
1.60
5.92
9.62
12.98
16.37
19.91
23.20
25.45
25.96
24.64
22.22
19.97
19.20
20.59
23.86
27.88
31.17
32.57
31.87
29.78
27.47
25.96
25.45
25.12
23.61
19.69
12.89
3.90
-5.66
-13.90
-19.26
-21.18
-20.28
-18.05
-16.31
-16.56
-19.52
-25.03
-32.22
-39.77
-46.31
-50.87
-53.16
-53.81
-54.09
-55.31
-58.16
-62.42
-67.05
-70.85
-72.92
-73.03
-71.38
-68.38
-64.25
-59.03
-52.62
-44.77
-35.14
-23.35
-9.34
6.40
22.66
37.86
50.53
59.90
66.01
69.54
71.41
72.52
73.59
75.17
77.48
80.33
83.09
84.94
85.29
84.18
82.24
80.44
79.47
79.52
80.22
80.98
81.33
81.16
80.73
80.53
80.97
82.20
84.04
85.96
87.28
87.50
86.47
84.63
82.78
81.92
82.70
85.25
89.09
93.40
97.59
101.47
105.19
108.80
111.80
112.97
110.92
104.53
93.60
78.96
62.05
44.48
27.53
12.21
-0.75
-10.56
-16.61
-18.74
-17.56
-14.90
-13.74
-17.72
-30.09
-52.91
-86.02
-127.32
-173.50
-220.83
-266.43
-308.16
-343.99
-371.50
-388.15
-392.22
-383.98
-365.86
-340.71
-310.55
-275.43
-234.10
-186.15
-134.06
-83.44
-41.41
-13.77
-1.72
-1.67
-6.51
-8.29
-0.73
19.54
53.42
100.44
154.55
208.90
255.82
289.40
307.18
310.28
301.67
284.21
260.02
230.74
198.84
167.28
139.19
116.86
101.27
92.09
88.23
87.82
87.97
84.99
74.36
52.41
18.24
-25.01
-70.73
-111.10
-140.11
-155.81
-160.08
-157.05
-150.56
-142.66
-133.66
-123.32
-112.11
-101.50
-93.25
-88.26
-85.97
-84.68
-82.32
-77.48
-70.08
-61.30
-52.90
-46.45
-42.59
-40.90
-40.16
-38.98
-36.36
-32.13
-26.91
-21.71
-17.50
-14.77
-13.41
-12.88
-12.43
-11.50
-9.86
-7.71
-5.46
-3.59
-2.44
-2.04
-2.25
-2.71
-3.10
-3.12
-2.62
-1.65
-0.49
0.49
0.90
0.46
-0.76
-2.38
-3.73
-4.15
-3.33
-1.53
0.48
1.71
1.36
-0.67
-3.70
-6.38
-7.43
-6.13
-2.90
0.86
3.37
3.22
0.16
-4.66
-9.07
-10.97
-8.85
-2.83
5.63
14.47
21.72
25.73
25.53
21.04
13.34
5.36
1.22
5.00
18.31
38.09
56.78
64.66
54.38
24.75
-17.88
-62.08
-96.05
-112.03
-109.81
-94.63
-73.64
-52.24
-32.75
-15.28
-0.08
11.62
18.23
19.01
16.18
13.94
16.16
23.93
35.23
45.96
52.13
52.67
48.86
43.38
38.19
33.69
28.60
21.54
12.19
1.19
-10.02
-19.93
-27.09
-30.69
-30.55
-28.29
-27.03
-30.10
-39.33
-53.63
-69.32
-81.42
-85.78
-80.02
-64.26
-40.08
-10.10
22.36
53.06
77.10
90.05
89.00
75.85
55.22
33.68
15.81
4.16
-1.02
-1.17
1.99
7.53
15.11
24.02
32.64
39.29
42.20
40.38
34.12
25.09
15.64
7.78
2.29
-1.16
-3.65
-6.12
-9.00
-12.18
-15.11
-17.23
-18.22
-18.47
-18.68
-19.72
-22.13
-25.73
-29.67
-32.35
-31.87
-26.72
-16.38
-1.50
16.01
33.80
49.73
62.22
70.84
75.94
78.32
78.85
78.58
78.50
79.58
81.82
83.37
81.16
71.89
54.08
29.47
2.75
-20.54
-36.03
-42.71
-43.23
-41.84
-42.32
-46.18
-52.70
-60.25
-68.00
-75.76
-84.02
-93.01
-101.81
-108.52
-110.99
-107.61
-96.33
-80.16
-62.40
-45.90
-32.31
-21.68
-12.74
-3.69
6.86
18.83
30.44
39.68
44.88
45.81
43.98
42.33
43.98
50.88
62.38
75.52
86.04
90.06
85.49
72.84
54.79
34.91
16.65
2.22
-7.87
-14.72
-20.69
-28.77
-41.62
-59.95
-81.36
-99.94
-108.06
-99.34
-71.64
-29.46
16.48
52.48
67.23
56.78
26.70
-10.24
-39.55
-50.99
-42.43
-19.57
7.37
28.55
37.91
34.60
20.56
-0.64
-25.01
-48.81
-68.01
-78.01
-76.80
-64.18
-42.16
-14.44
14.73
41.58
62.86
76.96
83.82
84.87
82.95
81.21
81.42
83.47
85.46
84.23
76.93
62.19
40.55
14.83
-11.11
-33.74
-51.00
-62.49
-69.67
-74.64
-79.21
-84.37
-90.20
-96.51
-102.93
-108.80
-111.84
-109.09
-97.61
-76.23
-46.79
-13.90
16.34
38.91
51.66
55.67
53.87
49.38
44.14
38.91
34.05
30.17
28.21
28.79
31.39
34.42
35.62
33.38
27.19
18.16
8.43
0.63
-2.87
-1.02
5.00
11.71
14.08
7.73
-8.63
-31.77
-54.59
-68.54
-68.13
-52.97
-27.70
0.34
24.92
43.13
55.68
65.05
72.88
78.69
80.46
75.87
63.89
45.14
21.35
-5.44
-33.49
-61.09
-85.85
-104.10
-111.85
-106.61
-89.10
-63.66
-36.97
-14.93
-1.31
3.42
1.37
-4.55
-12.04
-19.87
-27.40
-34.01
-38.80
-41.39
-42.09
-41.84
-41.74
-41.70
-41.01
-37.94
-30.73
-18.47
-1.35
19.75
43.65
68.79
93.06
113.68
127.97
134.34
133.18
126.85
118.35
109.91
101.50
91.25
77.06
58.66
38.59
21.07
9.43
3.82
0.67
-5.47
-18.40
-37.64
-58.10
-72.37
-74.86
-64.48
-45.28
-23.64
-5.05
8.47
18.39
27.59
38.01
49.24
58.77
63.56
62.33
55.39
44.71
32.87
21.37
10.25
-1.70
-16.06
-33.78
-53.80
-73.47
-89.24
-98.17
-99.12
-93.02
-82.53
-70.95
-61.29
-55.40
-54.19
-57.59
-64.29
-71.57
-75.46
-71.90
-57.47
-34.03
-7.01
16.23
29.69
31.17
22.67
8.85
-5.55
-17.90
-28.27
-37.80
-47.59
-57.54
-66.55
-73.69
-78.77
-82.50
-85.90
-90.03
-93.94
-95.74
-93.01
-83.72
-67.01
-43.57
-15.49
13.99
41.57
65.13
