1515734697.00
64.000000
-0.00
-0.00
-0.00
-0.00
-0.00
-0.00
-0.00
-0.00
-0.00
-0.00
0.00
0.01
0.01
-0.00
-0.03
-0.05
-0.05
0.00
0.13
0.36
0.66
1.01
1.37
1.72
2.06
2.40
2.79
3.24
3.80
4.42
5.06
5.66
6.20
6.68
7.15
7.68
8.31
9.14
10.09
11.04
11.88
12.56
13.14
13.76
14.65
15.96
17.91
20.32
22.90
25.38
27.58
29.57
31.68
34.32
37.81
42.54
48.15
54.10
59.83
64.97
69.58
74.14
79.34
85.71
93.76
103.00
112.62
121.73
129.77
136.75
143.30
150.75
157.77
166.64
177.95
191.79
206.97
220.57
228.25
225.36
208.53
176.87
132.76
80.05
23.07
-34.94
-92.44
-149.16
-205.23
-260.37
-313.74
-363.87
-409.83
-450.91
-486.50
-515.74
-537.23
-549.22
-549.96
-538.37
-514.21
-478.67
-433.88
-382.45
-327.02
-269.84
-212.63
-156.66
-102.95
-52.37
-5.90
35.58
71.43
101.35
125.50
144.38
158.69
169.15
176.37
180.75
182.57
182.07
179.51
175.23
169.65
163.18
156.15
148.81
141.30
133.69
126.02
118.33
110.69
103.16
95.80
88.68
81.83
75.25
68.95
62.95
57.25
51.86
46.78
42.03
37.59
33.45
29.61
26.07
22.81
19.83
17.11
14.67
12.48
10.54
8.83
7.35
6.07
4.97
4.05
3.27
2.62
2.09
1.65
1.30
1.01
0.79
0.61
0.48
0.37
0.29
0.22
0.17
0.14
0.11
0.10
0.11
0.12
0.13
0.14
0.12
0.09
0.04
-0.00
-0.02
-0.01
0.02
0.06
0.09
0.11
0.10
0.08
0.07
0.08
0.13
0.20
0.27
0.30
0.29
0.23
0.15
0.10
0.13
0.25
0.42
0.59
0.68
0.62
0.43
0.19
0.01
0.01
0.25
0.66
1.10
1.37
1.34
1.02
0.57
0.22
0.18
0.55
1.20
1.88
2.29
2.25
1.80
1.23
0.87
0.96
1.53
2.38
3.21
3.74
3.84
3.41
2.24
0.05
-3.25
-7.10
-10.33
-11.43
-9.40
-4.37
2.35
8.82
13.38
15.25
14.65
12.31
8.79
4.22
-1.35
-7.58
-13.52
-17.87
-19.59
-18.55
-15.71
-12.75
-11.38
-12.63
-16.20
-20.51
-23.32
-22.84
-18.66
-12.07
-5.42
-0.82
0.92
0.56
-0.42
-1.13
-1.89
-3.79
-7.55
-12.58
-17.12
-19.32
-18.33
-14.69
-9.98
-5.79
-2.87
-1.11
-0.22
-0.39
-2.75
-8.75
-18.91
-32.08
-45.09
-53.58
-53.62
-43.56
-24.97
-2.06
19.99
37.46
48.82
54.62
56.09
53.93
48.21
39.50
30.30
23.27
23.03
32.48
50.55
71.81
88.60
94.67
88.23
72.79
55.41
43.85
43.07
53.84
72.90
94.61
112.66
121.67
118.55
103.27
79.31
52.04
26.94
7.47
-5.98
-15.74
-25.23
-36.77
-50.02
-61.37
-65.58
-58.15
-37.93
-8.42
22.96
47.29
57.50
50.82
29.32
-1.66
-35.98
-68.85
-97.43
-120.02
-134.83
-139.72
-133.54
-117.62
-96.58
-77.01
-64.71
-61.97
-66.54
-73.09
-75.83
-71.41
-60.07
-45.08
-30.85
-21.08
-17.61
-20.21
-27.18
-36.06
-44.49
-50.70
-53.85
-54.00
-51.80
-48.14
-43.77
-39.32
-35.34
-32.44
-31.11
-31.53
-33.41
-36.11
-38.88
-41.02
-41.85
-40.62
-36.73
-30.08
-21.42
-12.27
-4.20
1.86
6.18
9.82
13.91
18.79
23.87
28.13
30.92
32.55
34.18
37.16
42.19
48.90
56.03
61.98
65.40
65.41
61.82
54.84
45.04
33.03
19.44
4.95
-9.69
-23.58
-36.08
-46.96
-56.66
-66.01
-75.72
-85.84
-95.45
-102.86
-106.07
-103.57
-94.67
-79.82
-60.41
-38.45
-16.25
4.14
21.55
36.27
49.99
64.98
82.69
102.73
122.73
139.26
149.52
152.36
148.43
139.27
126.30
110.27
91.50
70.95
50.53
33.04
20.92
15.24
15.20
18.47
22.39
25.00
25.68
25.03
24.53
25.71
29.56
36.16
44.65
53.61
61.52
67.25
70.18
70.15
67.18
61.44
53.25
43.27
32.61
22.57
14.35
8.41
4.48
1.68
-0.94
-3.94
-7.26
-10.41
-12.99
-14.88
-16.42
-18.01
-19.77
-21.25
-21.56
-19.82
-15.57
-9.14
-1.54
5.86
11.85
15.71
17.41
17.54
17.05
17.00
17.99
20.04
22.32
23.43
21.96
17.07
9.08
-0.64
-10.07
-17.45
-21.98
-24.24
-25.86
-28.88
-34.81
-43.90
-54.95
-65.68
-73.64
-77.38
-77.54
-77.14
-81.05
-94.85
-123.24
-168.42
-228.88
-298.80
-368.82
-427.90
-466.04
-476.89
-459.35
-417.11
-356.81
-285.34
-208.03
-128.36
-49.09
26.27
93.04
146.39
183.49
205.01
215.08
219.47
222.93
227.37
231.59
232.79
228.68
219.16
206.27
192.88
180.95
170.38
159.24
144.94
125.94
102.67
77.51
53.75
34.35
20.93
13.49
10.84
11.22
13.19
15.86
18.96
22.51
26.46
30.47
33.98
36.44
37.61
37.72
37.31
36.92
36.84
36.88
36.54
35.24
32.80
29.47
25.91
22.82
20.62
19.24
18.19
16.88
14.85
12.05
8.76
5.44
2.46
-0.02
-2.08
-3.96
-5.86
-7.95
-10.23
-12.67
-15.15
-17.41
-19.12
-19.80
-19.08
-16.72
-12.89
-8.08
-3.02
1.56
5.12
7.43
8.64
9.06
9.12
9.10
9.19
9.41
9.67
9.83
9.69
9.14
8.14
6.85
5.50
4.44
3.92
3.97
4.45
4.93
5.12
4.77
3.95
2.87
1.80
0.95
0.27
-0.43
-1.45
-3.04
-5.35
-8.30
-11.61
-14.82
-17.34
-18.66
-18.38
-16.46
-13.12
-8.86
-4.27
0.13
3.93
6.99
9.34
11.20
12.77
14.20
15.45
16.35
16.72
16.45
15.66
14.61
13.65
12.99
12.66
12.51
12.28
11.76
10.77
9.33
7.47
5.33
3.06
0.82
-1.28
-3.25
-5.18
-7.27
-9.66
-12.41
-15.37
-18.23
-20.55
-21.88
-21.87
-20.41
-17.67
-14.04
-10.00
-5.97
-2.24
1.08
3.96
6.33
8.15
9.36
10.07
10.45
10.72
11.03
11.35
11.53
11.40
10.92
10.21
9.44
8.75
8.09
7.35
6.32
4.98
3.40
1.73
0.16
-1.25
-2.49
-3.60
-4.62
-5.62
-6.71
-8.06
-9.85
-12.18
-14.91
-17.62
-19.68
-20.47
-19.61
-17.09
-13.35
-9.09
-5.02
-1.61
0.97
2.85
4.34
5.66
6.95
8.15
9.20
9.98
10.48
10.72
10.70
10.46
10.01
9.42
8.79
8.24
7.86
7.63
7.47
7.18
6.63
5.77
4.65
3.36
1.95
0.43
-1.20
-2.89
-4.53
-5.98
-7.19
-8.25
-9.35
-10.71
-12.45
-14.54
-16.73
-18.70
-20.06
-20.52
-19.90
-18.22
-15.64
-12.46
-9.04
-5.73
-2.80
-0.39
1.49
2.90
3.97
4.84
5.60
6.29
6.92
7.41
7.72
7.83
7.79
7.69
7.58
7.50
7.33
6.99
6.36
5.41
4.23
2.92
1.63
0.39
-0.78
-1.98
-3.23
-4.51
-5.70
-6.72
-7.62
-8.60
-9.91
-11.62
-13.52
-15.09
-15.69
-14.88
-12.64
-9.39
-5.77
-2.45
0.22
2.18
3.58
4.57
5.29
5.80
6.15
6.44
6.74
7.09
7.38
7.50
7.33
6.87
6.25
5.63
5.16
4.87
4.70
4.52
4.20
3.66
2.85
1.79
0.58
-0.59
-1.50
-1.96
-1.90
-1.48
-1.02
-0.96
-1.68
-3.45
-6.26
-9.81
-13.55
-16.72
-18.60
-18.72
-17.05
-14.00
-10.29
-6.62
-3.47
-0.99
0.89
2.34
3.46
4.28
4.83
5.15
5.33
5.37
5.24
4.87
4.23
3.39
2.45
1.54
0.76
0.11
-0.40
-0.78
-1.05
-1.29
-1.65
-2.30
-3.33
-4.65
-6.05
-7.25
-8.06
-8.45
-8.57
-8.61
-8.72
-9.01
-9.48
-10.16
-11.05
-12.10
-13.15
-13.89
-13.93
-12.99
-11.01
-8.27
-5.30
-2.66
-0.76
0.29
0.66
0.66
0.60
0.68
0.99
1.55
2.41
3.61
5.18
7.02
8.95
10.68
11.92
12.49
12.29
11.45
10.16
8.76
7.49
6.52
5.82
5.23
4.55
3.62
2.50
1.33
0.37
-0.21
-0.39
-0.29
-0.07
0.18
0.39
0.52
0.50
0.24
-0.30
-1.02
-1.61
-1.71
-1.01
0.61
3.00
5.77
8.48
10.73
12.23
12.89
12.72
11.84
10.34
8.32
5.82
2.92
-0.16
-3.08
-5.30
-6.39
-6.09
-4.50
-2.03
0.70
3.17
5.05
6.22
6.75
6.66
5.89
4.28
1.69
-1.84
-6.03
-10.41
-14.44
-17.66
-19.84
-20.97
-21.28
-21.12
-20.88
-20.94
-21.51
-22.64
-24.13
-25.64
-26.70
-26.93
-26.11
-24.27
-21.65
-18.61
-15.63
-13.06
-11.16
-9.95
-9.32
-9.02
-8.78
-8.45
-7.97
-7.45
-7.02
-6.86
-7.06
-7.69
-8.77
-10.30
-12.21
-14.44
-16.92
-19.58
-22.38
-25.32
-28.38
-31.54
-34.75
-37.94
-41.04
-43.99
-46.65
-48.90
-50.64
-51.84
-52.60
-53.02
-53.15
-52.70
-51.16
-47.80
-42.01
-33.52
-22.47
-9.44
4.79
19.41
33.87
47.96
61.88
76.18
91.54
108.44
126.77
145.66
163.64
179.09
190.72
198.08
201.50
201.88
200.21
197.13
192.77
186.71
178.24
166.40
150.47
130.33
106.92
82.39
59.63
41.39
29.01
21.83
17.31
12.25
4.22
-7.34
-21.09
-34.71
-46.17
-54.69
-60.73
-65.49
-70.02
-74.79
-79.71
-84.31
-88.05
-90.20
-90.01
-86.71
-79.91
-69.92
-57.85
-45.37
-34.14
-25.36
-19.52
-16.46
-15.66
-16.41
-18.06
-19.99
-21.84
-23.50
-25.36
-28.16
-32.66
-39.18
-47.13
-55.08
-61.05
-63.35
-61.24
-55.25
-47.00
-38.46
-31.27
-26.19
-23.12
-21.43
-20.51
-20.02
-20.04
-20.77
-22.42
-25.02
-28.38
-32.23
-36.17
-39.87
-43.01
-45.43
-47.08
-47.89
-47.75
-46.23
-42.84
-37.15
-29.14
-19.35
-8.80
1.27
9.94
16.81
22.22
26.90
31.71
37.32
44.13
52.33
61.86
72.26
82.46
90.86
95.67
95.66
90.58
81.37
69.69
57.17
44.88
33.06
21.60
10.40
-0.22
-9.76
-17.96
-25.09
-31.90
-39.07
-46.68
-53.81
-58.95
-60.62
-58.34
-53.00
-46.57
-41.19
-38.10
-37.14
-36.88
-35.45
-31.55
-24.97
-16.43
-7.05
2.21
10.75
18.10
23.88
27.83
30.15
31.60
33.14
35.33
37.71
38.88
37.22
31.99
23.87
14.69
6.38
-0.28
-6.01
-12.61
-21.60
-33.24
-46.14
-57.87
-66.00
-68.94
-66.43
-59.23
-48.78
-36.70
-24.57
-13.69
-5.05
0.83
3.95
4.64
3.48
1.03
-2.19
-5.66
-8.81
-11.10
-12.13
-11.86
-10.72
-9.43
-8.82
-9.45
-11.47
-14.58
-18.15
-21.33
-23.18
-22.88
-19.92
-14.45
-7.34
-0.12
5.54
8.37
7.96
4.96
0.58
-3.86
-7.50
-10.17
-12.06
-13.46
-14.35
-14.57
-13.89
-12.44
-10.69
-9.36
-9.06
-10.05
-12.11
-14.61
-16.90
-18.41
-18.93
-18.47
-17.22
-15.39
-13.13
-10.57
-7.75
-4.67
-1.21
2.76
7.34
12.51
17.95
23.14
27.27
29.67
29.86
27.85
24.06
19.24
14.25
9.85
6.59
4.70
4.14
4.55
5.42
6.17
6.24
5.32
3.30
0.44
-2.78
-5.72
-7.80
-8.67
-8.39
-7.37
-6.26
-5.78
-6.37
-8.09
-10.57
-13.22
-15.37
-16.59
-16.81
-16.28
-15.51
-14.99
-15.08
-15.89
-17.33
-19.20
-21.31
-23.48
-25.54
-27.34
-28.63
-29.19
-28.83
-27.49
-25.15
-21.95
-18.11
-13.89
-9.60
-5.51
-1.83
1.37
4.12
6.56
8.79
10.89
12.87
14.64
16.13
17.25
18.04
18.61
19.08
19.59
20.12
20.57
20.71
20.38
19.54
18.24
16.61
14.74
12.79
10.84
9.07
7.61
6.56
5.88
5.45
5.04
4.45
3.55
2.34
0.87
-0.74
-2.37
-3.86
-4.99
-5.51
-5.20
-3.98
-2.00
0.42
2.86
4.97
6.66
8.02
9.33
10.75
12.28
13.70
14.76
15.26
15.20
14.74
14.07
13.37
12.73
12.20
11.78
11.47
11.28
11.17
11.11
10.99
10.75
10.30
9.58
8.57
7.28
5.80
4.19
2.55
0.88
-0.85
-2.70
-4.68
-6.75
-8.82
-10.77
-12.52
-13.92
-14.90
-15.25
-14.87
-13.68
-11.71
-9.20
-6.45
-3.92
-1.97
-0.87
-0.63
-0.98
-1.48
-1.63
-1.15
-0.01
1.47
2.87
3.80
4.18
4.15
4.05
4.16
4.55
5.10
5.53
5.64
5.31
4.60
3.66
2.66
1.72
0.86
0.06
-0.74
-1.60
-2.56
-3.61
-4.76
-5.95
-7.05
-7.91
-8.30
-8.03
-6.93
-5.01
-2.44
0.46
3.23
5.52
7.06
7.91
8.28
8.50
8.84
9.31
9.80
10.04
9.93
9.52
9.13
9.06
9.48
10.30
11.10
11.51
11.21
10.26
8.89
7.48
6.24
5.19
4.20
3.12
1.92
0.70
-0.41
-1.40
-2.38
-3.59
-5.11
-6.77
-8.17
-8.78
-8.27
-6.63
-4.19
-1.49
0.99
2.97
4.42
5.43
6.22
6.91
7.60
8.31
9.01
9.65
10.14
10.40
10.37
10.05
9.44
8.63
7.76
6.96
6.42
6.19
6.27
6.53
6.73
6.67
6.22
5.34
4.05
2.37
0.33
-2.02
-4.56
-6.99
-8.97
-10.18
-10.44
-9.76
-8.37
-6.64
-4.96
-3.75
-3.26
-3.63
-4.75
-6.32
-7.94
-9.26
-10.11
-10.53
-10.70
-10.74
-10.61
-10.07
-8.81
-6.66
-3.74
-0.43
2.75
5.34
7.18
8.35
9.08
9.58
9.88
9.93
9.63
9.02
8.24
7.50
6.94
6.54
6.15
5.58
4.76
3.76
2.81
2.08
1.54
1.00
0.17
-1.12
-2.81
-4.59
-6.01
-6.63
-6.14
-4.47
-1.72
1.83
5.83
9.92
13.80
17.20
19.96
21.98
23.18
23.53
23.04
21.83
20.14
18.35
16.93
16.19
16.23
16.68
16.84
15.84
13.09
8.46
2.46
-4.06
-10.24
-15.48
-19.63
-22.74
-24.99
-26.47
-27.32
-27.71
-27.94
-28.34
-29.05
-29.97
-30.81
-31.26
-31.12
-30.41
-29.32
-28.03
-26.76
-25.68
-25.00
-24.88
-25.44
-26.57
-28.09
-29.72
-31.22
-32.54
-33.73
-35.02
-36.60
-38.62
-41.07
-43.87
-46.84
-49.74
-52.41
-54.62
-56.19
-56.91
-56.53
-54.77
-51.34
-46.05
-38.88
-30.07
-20.00
-9.24
1.63
12.04
21.43
29.40
35.61
39.98
42.52
43.42
42.92
41.22
38.49
34.87
30.53
25.73
20.80
16.07
11.81
8.26
5.61
4.05
3.63
4.33
5.88
7.95
10.10
12.02
13.59
14.84
16.02
17.43
19.36
21.96
25.27
29.16
33.40
37.67
41.58
44.81
47.04
48.17
48.28
47.74
47.09
46.79
47.06
47.57
47.70
46.70
44.16
40.24
35.63
31.21
27.71
25.39
23.91
22.63
20.79
17.94
14.09
9.73
5.66
2.66
1.18
1.08
1.85
2.72
3.13
2.83
1.91
0.69
-0.57
-1.64
-2.38
-2.58
-2.09
-0.79
1.18
3.48
5.61
7.11
7.83
7.89
7.65
7.52
7.75
8.43
9.44
10.57
11.55
12.21
12.35
11.81
10.44
8.08
4.63
0.12
-5.21
-11.02
-16.83
-22.10
-26.23
-28.57
-28.48
-25.62
-20.12
-12.73
-4.77
2.29
7.22
9.45
9.18
7.10
4.09
0.86
-2.13
-4.67
-6.61
-7.91
-8.55
-8.66
-8.43
-8.07
-7.77
-7.60
-7.55
-7.56
-7.59
-7.60
-7.61
-7.66
-7.79
-8.03
-8.29
-8.45
-8.32
-7.85
-7.11
-6.29
-5.62
-5.16
-4.81
-4.35
-3.64
-2.69
-1.80
-1.30
-1.44
-2.32
-3.73
-5.38
-6.79
-7.48
-6.97
-5.05
-1.89
1.77
4.80
6.01
4.70
1.00
-4.15
-9.36
-13.39
-15.54
-15.82
-14.68
-12.67
-10.27
-7.75
-5.27
-3.05
-1.27
-0.06
0.60
0.89
1.11
1.49
2.20
3.17
4.23
5.11
5.56
5.37
4.50
3.11
1.51
0.06
-0.95
-1.46
-1.58
-1.63
-1.93
-2.73
-4.03
-5.61
-7.07
-7.99
-8.06
-7.17
-5.52
-3.47
-1.38
0.48
2.02
3.31
4.45
5.52
6.55
7.52
8.40
9.14
9.69
9.97
9.92
9.57
9.02
8.46
7.96
7.57
7.24
6.94
6.73
6.68
6.85
7.13
7.30
7.10
6.36
5.10
3.49
1.79
0.21
-1.17
-2.33
-3.25
-3.90
-4.27
-4.43
-4.61
-5.07
-6.06
-7.62
-9.55
-11.46
-12.85
-13.35
-12.75
-11.16
-8.85
-6.25
-3.75
-1.67
-0.19
0.65
0.90
0.72
0.28
-0.15
-0.38
-0.20
0.43
1.45
2.60
3.51
3.88
3.47
2.41
1.03
-0.21
-0.91
-0.93
-0.47
0.13
0.53
0.52
0.13
-0.50
-1.23
-2.02
-2.87
-3.76
-4.58
-5.21
-5.65
-5.99
-6.42
-7.05
-7.86
-8.75
-9.60
-10.49
-11.53
-12.86
-14.40
-15.84
-16.73
-16.67
-15.56
-13.57
-11.09
-8.50
-6.08
-3.98
-2.17
-0.66
0.55
1.41
1.89
2.01
1.92
1.85
2.02
2.57
3.48
4.57
5.58
6.34
6.75
6.89
6.86
6.81
6.80
6.77
6.67
6.37
5.84
5.17
4.52
4.06
3.80
3.63
3.22
2.37
1.00
-0.65
-2.25
-3.40
-3.99
-4.13
-4.07
-4.15
-4.56
-5.43
-6.75
-8.40
-10.10
-11.46
-12.11
-11.74
-10.36
-8.21
-5.76
-3.43
-1.50
-0.04
1.09
2.05
2.96
3.82
4.57
5.13
5.48
5.65
5.75
5.88
6.08
6.36
6.63
6.81
6.87
6.87
6.90
7.01
7.13
7.04
6.55
5.59
4.32
3.07
2.17
1.79
1.79
1.93
1.89
1.57
0.99
0.29
-0.39
-1.06
-1.80
-2.77
-4.02
-5.57
-7.31
-9.19
-11.13
-13.04
-14.77
-16.07
-16.70
-16.41
-15.19
-13.19
-10.81
-8.48
-6.48
-4.92
-3.62
-2.35
-0.89
0.78
2.54
4.14
5.40
6.26
6.80
7.19
7.55
7.95
8.36
8.74
9.09
9.43
9.79
10.11
10.31
10.24
9.82
9.04
8.04
6.97
5.99
5.16
4.43
3.76
3.05
2.25
1.35
0.43
-0.45
-1.23
-1.88
-2.50
-3.18
-4.06
-5.16
-6.42
-7.77
-9.17
-10.71
-12.45
-14.35
-16.19
-17.57
-18.01
-17.21
-15.17
-12.18
-8.74
-5.32
-2.23
0.37
2.44
3.94
4.82
5.08
4.84
4.40
4.12
4.34
5.22
6.64
8.29
9.76
10.70
10.97
10.64
9.94
9.12
8.40
7.84
7.44
7.15
6.89
6.61
6.22
5.63
4.80
3.78
2.76
1.96
1.55
1.38
1.15
0.45
-0.98
-3.03
-5.27
-7.18
-8.38
-8.83
-8.89
-9.04
-9.71
-11.06
-12.96
-15.09
-17.08
-18.57
-19.27
-18.96
-17.54
-15.04
-11.72
-7.99
-4.36
-1.25
1.09
2.65
3.64
4.37
5.12
6.08
7.26
8.54
9.66
10.38
10.59
10.34
9.89
9.53
9.49
9.89
10.64
11.56
12.44
13.10
13.44
13.38
12.93
12.14
11.10
9.93
8.72
7.53
6.39
5.32
4.33
3.44
2.58
1.70
0.70
-0.48
-1.84
-3.29
-4.73
-6.09
-7.36
-8.62
-9.97
-11.45
-13.04
-14.63
-16.04
-17.08
-17.56
-17.32
-16.33
-14.66
-12.52
-10.10
-7.62
-5.21
-2.97
-0.97
0.74
2.10
3.12
3.78
4.16
4.30
4.28
4.21
4.19
4.39
4.90
5.76
6.85
7.94
8.73
9.04
8.86
8.31
7.61
6.91
6.28
5.66
5.00
4.32
3.67
3.15
2.73
2.35
1.84
1.13
0.18
-0.98
-2.31
-3.88
-5.75
-7.99
-10.51
-13.14
-15.56
-17.48
-18.63
-18.82
-17.96
-16.04
-13.19
-9.70
-5.97
-2.41
0.71
3.28
5.35
7.00
8.32
9.34
10.05
10.54
10.89
11.19
11.49
11.77
11.95
12.01
11.96
11.87
11.77
11.64
11.44
11.05
10.46
9.71
8.85
7.99
7.15
6.37
5.58
4.75
3.79
2.67
1.32
-0.23
-1.93
-3.70
-5.40
-6.94
-8.24
-9.38
-10.53
-11.98
-13.98
-16.61
-19.69
-22.75
-25.20
-26.50
-26.31
-24.60
-21.64
-17.84
-13.68
-9.60
-5.85
-2.65
-0.04
2.03
3.66
5.06
6.39
7.77
9.25
10.77
12.11
13.13
13.68
13.79
13.64
13.47
13.50
13.80
14.33
14.87
15.25
15.30
14.93
14.20
13.17
11.99
10.75
9.52
8.30
7.06
5.78
4.44
3.01
1.45
-0.22
-2.03
-3.89
-5.67
-7.30
-8.82
-10.43
-12.36
-14.82
-17.68
-20.57
-22.94
-24.22
-24.12
-22.62
-19.99
-16.60
-12.86
-9.01
-5.25
-1.63
1.80
4.95
7.67
9.79
11.22
11.98
12.29
12.46
12.80
13.43
14.20
14.91
15.34
15.48
15.47
15.56
15.83
16.18
16.36
16.06
15.16
13.75
12.10
10.48
9.02
7.66
6.22
4.54
2.61
0.63
-1.22
-2.75
-4.01
-5.15
-6.37
-7.81
-9.41
-11.08
-12.78
-14.60
-16.69
-19.11
-21.66
-23.80
-24.84
-24.23
-21.83
-17.95
-13.27
-8.51
-4.22
-0.62
2.33
4.81
6.91
8.62
9.84
10.46
10.54
10.24
9.89
9.80
10.16
10.95
12.00
13.09
14.03
14.74
15.28
15.70
15.99
16.09
15.91
15.39
14.59
13.64
12.69
11.90
11.35
11.04
10.93
10.88
10.75
10.45
10.11
10.10
11.06
13.52
17.64
22.84
27.99
31.75
33.09
31.57
27.40
21.33
14.44
8.13
4.09
4.15
9.83
21.59
38.12
56.23
71.47
79.48
77.43
65.08
44.67
20.08
-4.42
-24.94
-38.34
-42.20
-34.96
-16.38
11.88
46.24
81.82
113.75
138.63
155.02
163.25
164.34
159.08
147.75
130.33
107.19
79.62
50.03
21.67
-2.10
-18.81
-27.90
-31.26
-32.99
-38.07
-50.50
-71.95
-101.39
-135.88
-172.14
-207.58
-240.56
-269.74
-293.23
-308.39
-312.54
-304.24
-284.29
-255.97
-224.16
-193.80
-168.43
-149.08
-134.41
-121.50
-107.26
-89.64
-68.28
-44.45
-20.10
3.09
24.51
44.69
64.81
85.80
107.63
129.15
148.38
163.38
173.01
177.35
177.50
175.07
171.59
168.15
165.40
163.69
163.18
163.59
163.97
162.52
156.86
144.87
125.63
100.23
71.53
43.18
18.15
-2.42
-19.38
-34.89
-50.91
-68.29
-86.33
-103.55
-118.65
-131.29
-141.93
-151.22
-159.27
-165.38
-168.51
-167.93
-163.73
-156.59
-147.22
-135.88
-122.33
-106.31
-88.10
-68.83
-50.01
-32.86
-17.62
-3.51
10.90
26.81
44.49
63.06
80.53
94.55
103.20
105.69
102.74
96.13
88.08
80.19
73.08
66.44
59.85
53.40
48.02
44.99
45.09
47.94
51.86
54.70
54.79
51.78
46.67
41.11
36.48
32.99
29.78
25.42
18.82
9.99
0.06
-9.12
-15.91
-19.58
-20.61
-20.41
-20.56
-22.03
-24.74
-27.59
-28.96
-27.41
-22.32
-14.16
-4.32
5.44
13.63
19.52
23.18
25.24
26.25
26.48
25.76
23.81
20.64
16.82
13.43
11.56
11.88
14.18
17.53
20.68
22.74
23.46
23.10
22.11
20.76
19.09
17.08
15.02
13.36
12.55
12.55
12.70
11.94
9.43
5.11
-0.30
-5.56
-9.63
-12.14
-13.34
-13.86
-14.20
-14.58
-14.90
-15.08
-15.07
-14.99
-15.06
-15.28
-15.43
-15.08
-13.80
-11.37
-7.90
-3.77
0.46
4.27
7.53
10.39
13.26
16.52
20.39
24.85
29.80
34.99
40.16
45.18
49.87
54.00
57.33
59.72
61.27
62.39
63.39
64.55
66.36
69.16
72.98
77.19
80.60
81.75
79.67
73.94
65.15
55.18
46.35
40.36
37.51
36.44
34.70
29.76
19.22
1.86
-21.58
-48.80
-76.70
-102.08
-122.11
-135.87
-140.74
-136.57
-127.44
-119.47
-117.14
-121.40
-129.79
-138.45
-144.68
-146.92
-145.52
-141.71
-136.17
-128.71
-118.64
-105.22
-89.17
-72.16
-56.06
-42.84
-33.61
-27.95
-24.29
-20.87
-16.54
-11.44
-6.69
-3.61
-3.20
-5.26
-8.05
-8.92
-5.50
3.43
17.55
35.48
55.47
75.73
94.71
111.08
123.81
132.27
136.56
137.55
136.73
135.57
134.88
134.57
133.83
131.74
127.56
121.02
112.18
101.35
88.97
75.43
61.18
46.69
32.37
18.56
5.48
-6.84
-18.28
-28.61
-37.45
-44.26
-48.61
-50.31
-49.74
-47.82
-45.89
-45.26
-46.65
-49.85
-53.67
-56.41
-56.56
-53.55
-48.03
-41.69
-36.68
-34.66
-36.40
-41.52
-48.89
-57.10
-65.00
-71.95
-77.98
-83.79
-90.62
-99.96
-112.85
-129.11
-146.61
-161.48
-169.20
-166.48
-152.86
-131.14
-106.42
-84.06
-67.71
-58.29
-54.27
-52.90
-51.46
-48.07
-41.75
-32.33
-20.02
-5.40
10.62
26.94
42.32
55.57
65.55
71.34
72.45
69.25
63.13
56.30
51.06
48.95
50.22
53.93
58.56
62.81
66.07
68.44
70.34
72.15
73.96
75.48
76.26
75.72
73.34
68.67
61.46
51.69
39.71
26.15
11.88
-2.23
-15.41
-27.19
-37.48
-46.53
-54.74
-62.18
-68.27
-71.68
-70.57
-63.27
-48.88
-27.87
-1.99
26.19
54.04
79.48
101.32
119.14
132.91
142.47
147.45
147.46
142.43
133.00
120.56
106.91
93.56
81.12
69.10
56.18
41.01
23.05
2.94
-17.67
-36.93
-53.48
-67.04
-78.17
-87.71
-96.05
-102.90
-107.42
-108.82
-106.96
-102.50
-96.73
-90.94
-85.85
-81.35
-76.57
-70.44
-62.16
-51.64
-39.52
-27.00
-15.41
-5.93
0.69
4.12
4.43
2.09
-2.13
-7.18
-11.89
-15.26
-16.72
-16.24
-14.24
-11.41
-8.33
-5.38
-2.63
-0.01
2.54
5.01
7.27
9.23
10.88
12.41
14.02
15.86
17.93
20.02
21.89
23.31
24.23
24.75
25.07
25.37
25.74
26.15
26.55
26.91
27.22
27.43
27.41
27.02
26.13
24.67
22.79
20.63
18.41
16.18
13.99
11.83
9.73
7.70
5.73
3.74
1.51
-1.13
-4.25
-7.69
-11.05
-13.84
-15.61
-16.11
-15.29
-13.41
-10.79
-7.84
-4.87
-2.08
0.42
2.67
4.63
6.36
7.86
9.20
10.43
11.55
12.62
13.58
14.41
15.08
15.61
16.05
16.43
16.77
16.92
16.68
15.78
14.10
11.72
8.98
6.37
4.38
3.24
2.94
3.25
3.82
4.42
4.95
5.51
6.16
6.87
7.41
7.33
6.20
3.69
0.02
-4.13
-7.66
-9.36
-8.47
-4.88
0.62
6.70
11.83
14.84
15.22
13.21
9.65
5.56
1.90
-0.82
-2.47
-3.26
-3.51
-3.47
-3.32
-3.12
-3.02
-3.18
-3.79
-4.88
-6.30
-7.75
-8.88
-9.53
-9.69
-9.61
-9.49
-9.52
-9.70
-9.98
-10.26
-10.50
-10.79
-11.26
-12.17
-13.73
-16.05
-19.00
-22.14
-24.79
-26.18
-25.77
-23.44
-19.59
-14.94
-10.34
-6.38
-3.25
-0.82
1.24
3.23
5.26
7.27
9.07
10.58
11.77
12.75
13.57
14.23
14.61
14.58
14.09
13.19
12.09
10.98
10.02
9.26
8.69
8.21
7.80
7.41
6.98
6.44
5.63
4.48
2.99
1.31
-0.37
-1.87
-3.12
-4.28
-5.62
-7.50
-10.07
-13.19
-16.38
-18.96
-20.32
-20.12
-18.53
-16.06
-13.40
-11.05
-9.20
-7.71
-6.32
-4.82
-3.20
-1.57
-0.00
1.52
3.17
5.17
7.58
10.24
12.79
14.92
16.37
17.12
17.28
17.03
16.54
15.95
15.34
14.76
14.25
13.70
13.04
12.05
10.62
8.77
6.64
4.48
2.46
0.64
-1.17
-3.21
-5.62
-8.32
-10.99
-13.20
-14.51
-14.69
-13.73
-11.87
-9.43
-6.77
-4.20
-1.96
-0.20
1.00
1.67
1.99
2.18
2.46
2.93
3.52
4.01
4.11
3.65
2.59
1.15
-0.36
-1.64
-2.52
-3.04
-3.31
-3.50
-3.72
-4.05
-4.59
-5.42
-6.68
-8.38
-10.45
-12.66
-14.70
-16.34
-17.54
-18.46
-19.34
-20.33
-21.31
-21.99
-22.02
-21.14
-19.40
-17.12
-14.78
-12.74
-11.19
-10.05
-9.08
-7.98
-6.63
-5.05
-3.34
-1.73
-0.33
0.72
1.44
1.85
2.07
2.29
2.77
3.75
5.29
7.29
9.38
11.07
11.93
11.72
10.47
8.42
5.95
3.41
1.08
-0.87
-2.27
-3.11
-3.44
-3.46
-3.48
-3.82
-4.66
-5.88
-7.09
-7.74
-7.41
-5.97
-3.63
-0.94
1.60
3.65
5.18
6.33
7.31
8.26
9.08
9.62
9.68
9.21
8.33
7.30
6.45
6.00
6.00
6.22
6.39
6.15
5.40
4.27
3.04
1.98
1.15
0.46
-0.37
-1.47
-2.77
-4.01
-4.93
-5.44
-5.70
-6.04
-6.76
-7.99
-9.57
-11.23
-12.64
-13.58
-13.89
-13.47
-12.29
-10.33
-7.72
-4.73
-1.71
0.94
2.99
4.40
5.35
6.06
6.74
7.46
8.16
8.75
9.16
9.41
9.56
9.65
9.60
9.33
8.76
7.94
7.03
6.23
5.71
5.43
5.24
4.86
4.09
2.80
1.04
-1.03
-3.22
-5.35
-7.33
-9.05
-10.46
-11.51
-12.23
-12.74
-13.24
-13.95
-14.95
-16.12
-17.16
-17.68
-17.43
-16.38
-14.72
-12.72
-10.64
-8.62
-6.71
-4.99
-3.67
-2.94
-2.91
-3.52
-4.44
-5.29
-5.79
-5.87
-5.71
-5.54
-5.51
-5.62
-5.76
-5.77
-5.64
-5.54
-5.75
-6.60
-8.29
-10.94
-14.47
-18.67
-23.11
-27.24
-30.33
-31.70
-30.87
-27.79
-23.02
-17.59
-12.86
-10.08
-10.11
-13.20
-18.93
-26.48
-34.83
-43.07
-50.53
-56.83
-61.83
-65.51
-67.82
-68.66
-67.79
-64.88
-59.46
-50.91
-38.67
-22.54
-3.19
17.55
36.70
50.73
56.70
53.34
41.80
25.27
7.92
-6.46
-15.48
-18.37
-15.64
-8.55
1.19
11.50
19.99
24.48
23.71
17.97
9.21
0.31
-6.03
-8.19
-5.75
0.90
11.32
25.32
42.68
62.92
85.08
108.07
131.00
153.42
175.13
195.74
214.48
230.36
242.69
251.39
257.00
260.14
261.14
259.91
256.24
250.30
242.73
234.26
224.98
214.07
200.04
181.70
159.14
134.01
108.95
86.23
66.81
49.80
33.43
16.17
-2.21
-20.55
-37.36
-51.89
-65.05
-78.98
-95.93
-116.85
-140.87
-165.84
-189.30
-209.45
-225.31
-236.79
-244.43
-249.78
-255.64
-265.59
-282.46
-306.27
-333.25
-356.68
-369.67
-368.10
-352.25
-326.00
-294.43
-261.42
-228.55
-196.02
-163.95
-133.44
-106.26
-83.61
-65.28
-49.45
-33.79
-16.61
2.25
21.52
39.19
53.33
62.86
67.87
69.69
70.44
72.45
77.52
86.35
98.44
112.25
125.92
137.75
146.73
152.50
155.26
155.46
153.66
150.62
147.24
144.55
143.37
144.01
146.05
148.48
150.22
150.49
149.24
146.94
144.41
142.20
140.44
138.75
136.46
132.82
127.28
119.84
110.83
101.07
91.35
82.24
73.70
65.16
55.70
44.41
30.70
14.39
-4.20
-24.39
-45.20
-65.49
-84.04
-99.78
-112.00
-120.48
-125.57
-127.95
-128.44
-127.67
-126.00
-123.55
-120.28
-116.29
-111.81
-107.25
-102.98
-99.23
-96.02
-93.13
-90.37
-87.60
-84.86
-82.25
-79.84
-77.61
-75.48
-73.41
-71.50
-69.97
-69.11
-69.11
-70.08
-71.99
-74.72
-78.10
-81.90
-85.79
-89.50
-92.86
-95.87
-98.81
-102.09
-106.14
-111.26
-117.58
-124.99
-133.20
-141.72
-149.90
-156.90
-161.89
-164.13
-163.15
-158.83
-151.27
-140.74
-127.40
-111.41
-92.87
-72.06
-49.59
-26.41
-3.81
16.96
34.89
49.51
60.85
69.40
75.81
80.73
84.70
88.10
91.19
94.06
96.73
99.20
101.53
103.91
106.58
109.66
112.96
115.94
117.72
117.47
114.78
109.88
103.68
97.31
91.90
88.01
85.68
84.32
83.06
81.02
77.72
73.61
70.17
69.80
74.71
85.80
101.33
116.80
125.87
122.23
101.97
65.12
16.04
-37.76
-87.78
-126.66
-149.77
-155.69
-145.95
-124.17
-95.18
-63.94
-34.78
-10.74
6.83
18.10
24.51
28.00
30.57
33.59
37.56
41.87
45.11
45.35
40.92
31.26
17.23
1.13
-14.08
-25.32
-29.94
-26.13
-13.42
6.62
30.16
51.93
66.95
72.72
70.50
64.77
60.92
62.45
69.27
78.12
84.77
86.59
83.95
79.75
77.46
79.24
85.07
93.18
101.28
107.79
112.55
116.30
119.91
123.38
125.39
123.64
116.00
101.73
82.25
61.07
42.69
31.14
28.50
34.22
45.30
57.22
65.39
66.50
59.21
44.06
22.84
-2.17
-28.59
-53.95
-75.81
-91.97
-101.04
-102.91
-98.97
-91.74
-84.27
-79.34
-78.95
-84.05
-94.42
-108.68
-124.29
-138.04
-146.70
-147.99
-141.28
-127.65
-109.46
-89.42
-69.97
-52.85
-38.94
-28.12
-19.10
-9.60
2.92
20.09
41.56
64.50
84.48
97.21
100.39
94.58
82.68
68.31
54.00
40.39
26.69
11.94
-3.86
-19.48
-33.16
-43.72
-51.20
-56.85
-62.26
-68.47
-75.41
-81.97
-86.76
-88.88
-88.37
-86.22
-83.74
-81.90
-80.71
-79.20
-75.94
-69.79
-60.55
-49.13
-37.09
-25.78
-15.78
-6.72
2.38
12.38
23.36
34.38
43.85
50.25
52.89
52.29
49.97
47.81
47.13
48.22
50.33
52.12
52.39
50.66
47.25
43.06
39.03
35.80
33.55
32.16
31.38
31.01
30.76
30.17
28.57
25.14
19.15
10.35
-0.88
-13.53
-26.30
-37.91
-47.55
-54.95
-60.18
-63.44
-64.80
-64.37
-62.54
-60.23
-58.70
-59.02
-61.36
-64.58
-66.53
-65.03
-58.92
-48.77
-36.63
-24.95
-15.33
-7.70
-0.47
8.54
20.89
36.72
54.76
73.00
89.57
103.50
114.78
124.01
131.84
138.41
143.24
145.42
144.08
138.87
130.26
119.56
108.67
99.45
93.23
90.41
90.47
92.02
93.25
92.20
87.31
77.86
64.42
48.89
34.12
22.97
17.30
17.32
21.52
27.36
32.27
34.42
33.10
28.53
21.49
12.96
3.95
-4.57
-11.73
-16.99
-20.28
-22.00
-22.95
-24.04
-26.03
-29.29
-33.74
-38.86
-43.85
-47.88
-50.32
-50.97
-50.12
-48.59
-47.52
-48.04
-50.91
-56.26
-63.54
-71.63
-79.26
-85.34
-89.19
-90.68
-90.04
-87.79
-84.51
-80.73
-76.91
-73.43
-70.50
-68.16
-66.25
-64.45
-62.38
-59.73
-56.30
-52.05
-47.07
-41.59
-35.85
-30.09
-24.45
-18.98
-13.62
-8.12
-2.15
4.69
12.66
21.63
30.96
39.56
46.17
49.70
49.68
46.33
40.49
33.13
25.06
16.67
8.15
-0.22
-7.78
-13.57
-16.77
-17.12
-15.21
-12.26
-9.65
-8.32
-8.47
-9.67
-11.31
-12.99
-14.73
-16.88
-19.69
-23.10
-26.64
-29.68
-31.62
-32.04
-30.79
-27.91
-23.58
-18.19
-12.37
-6.98
-2.94
-1.02
-1.60
-4.59
-9.45
-15.43
-21.77
-27.81
-33.15
-37.58
-41.02
-43.40
-44.43
-43.65
-40.42
-34.25
-25.06
-13.34
-0.11
13.35
25.78
36.22
43.98
48.54
49.32
45.72
37.29
23.95
6.21
-14.80
-37.45
-59.90
-80.41
-97.73
-111.33
-121.47
-129.08
-135.28
-140.86
-145.80
-149.10
-148.92
-143.19
-130.29
-109.71
-82.34
-50.38
-17.01
14.25
40.14
58.41
68.24
70.50
67.39
61.87
56.71
53.88
54.32
58.10
64.86
74.24
85.82
98.84
111.91
123.03
130.35
133.06
132.05
129.69
128.76
131.42
138.43
149.33
162.94
178.05
193.49
207.93
219.56
226.20
226.06
218.81
206.22
191.79
179.37
171.59
168.79
169.30
170.58
170.72
169.12
166.05
161.58
154.71
143.38
125.65
101.33
72.78
44.23
19.70
0.77
-14.57
-31.17
-54.45
-87.87
-131.43
-181.90
-234.33
-283.95
-327.40
-362.79
-389.02
-405.05
-409.82
-402.71
-384.41
-357.25
-324.61
-289.69
-254.39
-218.99
-182.81
-145.33
-106.98
-69.19
-33.44
-0.19
31.51
63.20
95.69
127.60
155.27
174.05
180.51
174.48
159.61
142.15
128.44
122.25
123.48
128.63
132.81
132.16
125.40
114.02
101.01
89.31
80.50
74.62
70.71
67.78
65.36
63.43
61.94
60.32
57.39
51.82
42.92
31.08
17.71
4.50
-7.42
-18.17
-29.09
-42.14
-58.94
-79.91
-103.88
-128.20
-149.27
-163.52
-168.27
-162.61
-147.72
-126.55
-102.84
-79.85
-59.37
-41.37
-24.69
-8.07
8.78
24.77
37.74
45.44
46.58
41.78
33.61
25.94
22.52
25.34
33.62
43.84
51.05
50.89
41.39
23.75
1.58
-20.61
-39.10
-51.82
-58.32
-59.06
-54.98
-47.25
-37.40
-27.24
-18.47
-12.21
-8.54
-6.72
-5.56
-4.12
-2.08
0.25
2.11
2.69
1.20
-2.89
-9.75
-18.93
-29.24
-38.97
-46.29
-49.99
-49.91
-47.01
-42.97
-39.55
-37.88
-38.11
-39.53
-40.81
-40.55
-37.56
-31.28
-21.91
-10.66
0.37
8.70
12.18
9.94
2.80
-6.82
-15.73
-21.11
-21.46
-16.97
-9.27
-0.74
6.33
10.28
10.36
6.79
0.56
-6.81
-13.76
-19.02
-21.93
-22.54
-21.56
-20.06
-19.19
-19.82
-22.16
-25.81
-29.71
-32.49
-32.82
-29.74
-22.83
-12.42
0.34
13.64
25.18
32.90
35.63
33.58
28.42
22.67
18.78
18.24
21.18
26.46
32.33
37.13
39.69
39.55
36.80
31.92
25.71
19.10
13.14
8.72
6.34
5.84
6.42
6.85
6.02
3.42
-0.51
-4.58
-7.26
-7.28
-4.05
2.19
10.47
19.35
27.09
32.05
32.99
29.63
23.02
15.40
9.65
8.23
12.22
20.84
31.78
42.15
49.54
52.68
51.63
47.41
41.47
35.22
29.69
25.47
22.73
21.21
20.25
18.90
16.15
11.23
3.99
-4.98
-14.36
-22.48
-27.88
-29.82
-28.69
-26.00
-23.76
-23.84
-27.12
-33.12
-40.08
-45.47
-46.85
-42.80
-33.52
-20.93
-8.06
1.93
6.86
6.19
1.13
-5.95
-12.40
-16.12
-16.17
-12.78
-7.20
-1.11
3.76
5.97
4.66
-0.36
-8.66
-19.36
-31.31
-43.30
-54.29
-63.49
-70.51
-75.36
-78.41
-80.21
-81.28
-81.88
-81.93
-81.17
-79.35
-76.36
-72.27
-67.23
-61.50
-55.37
-49.18
-43.25
-37.71
-32.47
-27.19
-21.42
-14.78
-7.11
1.51
10.75
20.13
29.12
37.20
44.07
49.61
54.05
57.82
61.27
64.58
67.50
69.59
70.51
70.26
69.28
68.22
67.61
67.64
68.08
68.48
68.45
67.79
66.66
65.38
64.33
63.68
63.35
63.03
62.30
60.87
58.66
55.81
52.58
49.21
45.90
42.75
39.95
37.78
36.56
36.36
36.70
36.48
34.25
28.80
19.84
8.24
-4.18
-15.39
-23.89
-29.19
-31.74
-32.50
-32.35
-31.86
-31.21
-30.49
-29.72
-28.89
-27.87
-26.44
-24.32
-21.47
-18.14
-14.89
-12.27
-10.61
-9.77
-9.23
-8.36
-6.72
-4.30
-1.52
0.94
2.40
2.41
0.82
-2.25
-6.49
-11.43
-16.44
-20.76
-23.52
-24.14
-22.49
-19.15
-15.26
-12.18
-10.95
-11.85
-14.28
-17.02
-18.75
-18.48
-15.72
-10.37
-2.52
7.67
19.69
32.42
43.99
52.10
54.77
51.09
41.79
29.00
15.54
3.95
-4.23
-8.76
-10.42
-10.45
-10.08
-10.16
-11.09
-12.92
-15.50
-18.62
-22.01
-25.36
-28.26
-30.28
-31.00
-30.24
-28.12
-25.10
-21.88
-19.14
-17.30
-16.37
-16.02
-15.69
-14.91
-13.43
-11.28
-8.67
-5.84
-2.95
-0.10
2.58
4.83
6.30
6.71
6.04
4.64
3.15
2.23
2.30
3.37
5.09
6.91
8.29
8.99
8.96
8.35
7.30
5.93
4.30
2.44
0.46
-1.44
-3.04
-4.15
-4.73
-4.85
-4.70
-4.50
-4.42
-4.56
-5.02
-5.84
-6.97
-8.25
-9.41
-10.08
-9.94
-8.84
-6.87
-4.33
-1.61
0.92
3.08
4.82
6.13
7.06
7.58
7.74
7.62
7.37
7.18
7.13
7.24
7.41
7.53
7.45
7.13
6.56
5.80
4.95
4.12
3.40
2.87
2.46
2.02
1.37
0.40
-0.87
-2.28
-3.58
-4.61
-5.35
-5.93
-6.59
-7.51
-8.73
-10.13
-11.43
-12.31
-12.50
-11.83
-10.32
-8.13
-5.51
-2.76
-0.15
2.17
4.08
5.55
6.55
7.10
7.26
7.19
7.09
7.17
7.55
8.16
8.80
9.24
9.36
9.15
8.73
8.26
7.83
7.46
7.11
6.74
6.32
5.82
5.21
4.37
3.23
1.79
0.20
-1.29
-2.44
-3.14
-3.46
-3.69
-4.14
-5.07
-6.47
-8.09
-9.50
-10.25
-10.04
-8.85
-6.90
-4.55
-2.21
-0.18
1.39
2.52
3.33
3.98
4.59
5.21
5.78
6.23
6.47
6.45
6.20
5.79
5.29
4.81
4.42
4.15
4.01
3.92
3.80
3.53
3.06
2.40
1.66
0.93
0.33
-0.12
-0.44
-0.69
-0.97
-1.30
-1.68
-2.11
-2.58
-3.12
-3.81
-4.74
-5.99
-7.53
-9.19
-10.72
-11.82
-12.26
-11.97
-10.98
-9.41
-7.39
-5.10
-2.71
-0.44
1.47
2.89
3.78
4.18
4.23
4.12
3.98
3.92
3.95
4.04
4.09
4.05
3.85
3.54
3.20
2.95
2.83
2.78
2.69
2.50
2.19
1.87
1.68
1.72
1.96
2.28
2.52
2.55
2.34
1.94
1.47
0.99
0.51
-0.03
-0.71
-1.56
-2.60
-3.75
-5.03
-6.45
-8.12
-10.05
-12.09
-13.88
-14.94
-14.86
-13.46
-10.95
-7.82
-4.71
-2.16
-0.38
0.70
1.38
2.00
2.77
3.70
4.63
5.30
5.50
5.15
4.35
3.32
2.32
1.56
1.13
1.02
1.13
1.33
1.53
1.66
1.71
1.68
1.57
1.36
1.05
0.65
0.23
-0.16
-0.53
-0.95
-1.52
-2.30
-3.25
-4.17
-4.86
-5.14
-4.99
-4.59
-4.22
-4.18
-4.66
-5.63
-6.92
-8.18
-9.00
-9.02
-8.07
-6.26
-3.90
-1.48
0.53
1.90
2.61
2.85
2.88
2.93
3.10
3.35
3.67
3.99
4.34
4.71
5.07
5.29
5.22
4.79
4.01
3.08
2.25
1.72
1.51
1.48
1.39
1.07
0.46
-0.32
-1.04
-1.57
-1.83
-1.94
-2.03
-2.25
-2.64
-3.16
-3.75
-4.32
-4.86
-5.36
-5.90
-6.55
-7.32
-8.16
-8.95
-9.53
-9.70
-9.35
-8.44
-7.00
-5.19
-3.22
-1.31
0.33
1.54
2.25
2.47
2.31
1.93
1.51
1.18
1.01
1.04
1.17
1.34
1.45
1.52
1.62
1.84
2.28
2.90
3.59
4.18
4.54
4.65
4.52
4.18
3.63
2.80
1.71
0.42
-0.87
-1.96
-2.73
-3.23
-3.66
-4.30
-5.33
-6.85
-8.82
-11.05
-13.29
-15.19
-16.43
-16.76
-16.05
-14.44
-12.21
-9.74
-7.33
-5.18
-3.29
-1.62
-0.13
1.19
2.31
3.24
3.98
4.57
4.97
5.18
5.16
4.93
4.58
4.22
3.94
3.78
3.71
3.63
3.49
3.19
2.71
2.03
1.22
0.32
-0.59
-1.46
-2.26
-3.02
-3.76
-4.54
-5.39
-6.31
-7.30
-8.35
-9.45
-10.60
-11.79
-12.97
-14.03
-14.79
-15.03
-14.52
-13.13
-10.89
-8.04
-4.95
-1.99
0.53
2.49
3.91
4.86
5.44
5.68
5.62
5.34
4.99
4.79
4.86
5.22
5.75
6.24
6.53
6.55
6.38
6.12
5.88
5.70
5.55
5.35
5.05
4.61
4.00
3.17
2.09
0.77
-0.72
-2.19
-3.40
-4.22
-4.63
-4.85
-5.23
-6.14
-7.81
-10.14
-12.80
-15.22
-16.91
-17.56
-17.17
-15.94
-14.19
-12.14
-9.92
-7.60
-5.22
-2.89
-0.74
1.12
2.74
4.25
5.85
7.63
9.56
11.42
12.94
13.94
14.41
14.45
14.23
13.86
13.38
12.74
11.99
11.15
10.34
9.56
8.73
7.71
6.42
4.90
3.38
2.15
1.38
1.11
1.16
1.27
1.13
0.49
-0.84
-2.90
-5.59
-8.62
-11.48
-13.65
-14.73
-14.54
-13.20
-11.03
-8.37
-5.51
-2.65
0.10
2.65
4.93
6.89
8.52
9.82
10.87
11.72
12.43
13.08
13.69
14.23
14.64
14.81
14.66
14.15
13.34
12.32
11.22
10.12
9.12
8.25
7.50
6.88
6.33
5.83
5.32
4.81
4.33
3.91
3.52
3.07
2.45
1.51
0.18
-1.55
-3.57
-5.66
-7.53
-8.81
-9.14
-8.31
-6.33
-3.52
-0.40
2.49
4.77
6.34
7.37
8.13
8.82
9.49
10.12
10.70
11.28
11.98
12.87
13.88
14.82
15.47
15.67
15.40
14.74
13.79
12.69
11.58
10.53
9.62
8.80
7.95
6.84
5.28
3.23
0.83
-1.63
-3.83
-5.55
-6.78
-7.69
-8.59
-9.83
-11.73
-14.51
-18.23
-22.72
-27.64
-32.46
-36.68
-39.91
-41.97
-42.87
-42.77
-41.85
-40.26
-38.11
-35.51
-32.60
-29.57
-26.63
-23.93
-21.46
-19.08
-16.62
-13.90
-10.86
-7.47
-3.82
-0.00
3.82
7.47
10.76
13.69
16.52
19.70
23.71
28.78
34.66
40.69
46.11
50.40
53.59
56.10
58.37
60.52
62.16
62.72
61.81
59.62
56.78
54.09
51.96
50.33
48.73
46.65
43.81
40.19
35.87
30.92
25.34
19.27
13.22
8.06
4.70
3.75
4.96
7.27
9.03
8.68
5.28
-1.04
-9.14
-17.37
-24.11
-28.40
-30.10
-29.72
-28.01
-25.56
-22.65
-19.35
-15.76
-12.05
-8.54
-5.43
-2.69
-0.00
3.03
6.55
10.22
13.29
14.95
14.91
13.72
12.68
13.19
16.00
20.55
25.06
27.21
25.17
18.44
8.05
-3.79
-14.59
-22.40
-26.32
-26.57
-24.23
-20.71
-17.34
-15.03
-14.15
-14.60
-15.96
-17.77
-19.58
-21.13
-22.23
-22.78
-22.68
-21.88
-20.42
-18.48
-16.33
-14.25
-12.41
-10.70
-8.81
-6.36
-3.20
0.40
3.81
6.26
7.24
6.70
5.03
2.83
0.54
-1.65
-3.72
-5.55
-6.80
-7.00
-5.89
-3.72
-1.22
0.54
0.64
-1.32
-5.07
-9.75
-14.10
-16.90
-17.30
-15.07
-10.65
-5.01
0.65
5.30
8.30
9.51
9.12
7.60
5.61
3.88
3.24
4.27
7.12
11.23
15.48
18.54
19.44
18.00
14.95
11.59
9.19
8.57
9.78
12.28
15.25
17.95
19.93
21.01
21.13
20.27
18.37
15.50
11.91
8.14
4.87
2.69
1.83
2.10
2.93
3.61
3.57
2.50
0.48
-2.17
-4.93
-7.23
-8.59
-8.61
-7.18
-4.52
-1.14
2.25
4.94
6.40
6.50
5.43
3.65
1.63
-0.28
-1.92
-3.25
-4.23
-4.76
-4.70
-4.08
-3.13
-2.34
-2.33
-3.62
-6.38
-10.50
-15.55
-21.00
-26.32
-31.12
-35.13
-38.30
-40.75
-42.77
-44.71
-46.76
-48.95
-51.07
-52.83
-54.09
-55.09
-56.33
-58.41
-61.67
-65.94
-70.55
-74.56
-77.10
-77.61
-75.95
-72.32
-67.16
-61.04
-54.66
-48.79
-44.25
-41.62
-40.96
-41.59
-42.16
-40.94
-36.49
-28.21
-16.61
-3.33
9.42
19.56
25.71
27.56
25.69
21.28
15.57
9.53
3.69
-1.69
-6.33
-9.67
-10.81
-8.74
-2.75
7.27
20.77
36.72
53.95
71.34
87.86
102.54
114.41
122.65
126.94
127.86
126.88
125.89
126.39
128.70
131.80
133.74
132.60
127.27
117.93
105.95
93.44
82.56
74.93
71.28
71.37
74.29
78.85
84.08
89.54
95.23
101.27
107.68
114.23
120.56
126.45
131.60
135.53
137.40
136.42
132.52
126.76
121.20
117.88
117.66
119.39
120.38
117.52
108.58
92.94
71.20
44.41
13.39
-21.19
-58.40
-96.75
-134.66
-171.40
-207.69
-245.12
-284.45
-323.61
-356.96
-376.61
-375.29
-349.54
-301.33
-237.32
-166.34
-96.64
-34.32
16.71
53.78
74.94
79.60
69.69
50.47
29.64
14.98
11.53
19.74
35.62
52.79
65.24
69.49
65.20
54.26
39.26
22.34
4.82
-12.34
-27.89
-40.19
-47.53
-48.95
-44.83
-36.91
-27.76
-19.81
-14.56
-12.21
-11.97
-12.57
-13.01
-12.93
-12.64
-12.71
-13.54
-15.04
-16.66
-17.72
-17.73
-16.59
-14.68
-12.47
-10.37
-8.43
-6.49
-4.21
-1.42
1.83
5.18
8.10
10.07
10.76
10.08
8.17
5.34
1.88
-1.92
-5.88
-9.84
-13.67
-17.18
-20.15
-22.36
-23.67
-24.11
-23.86
-23.26
-22.66
-22.24
-22.04
-21.83
-21.31
-20.33
-18.99
-17.65
-16.73
-16.58
-17.21
-18.36
-19.60
-20.54
-21.00
-20.96
-20.55
-19.92
-19.12
-18.22
-17.26
-16.32
-15.56
-15.06
-14.87
-14.87
-14.89
-14.72
-14.21
-13.36
-12.28
-11.24
-10.46
-10.09
-10.12
-10.46
-10.88
-11.24
-11.45
-11.58
-11.70
-11.95
-12.44
-13.25
-14.40
-15.86
-17.48
-19.00
-20.09
-20.45
-19.87
-18.37
-16.21
-13.80
-11.57
-9.84
-8.77
-8.35
-8.49
-9.01
-9.75
-10.55
-11.29
-11.91
-12.41
-12.80
-13.11
-13.34
-13.52
-13.71
-14.14
-15.06
-16.66
-18.90
-21.53
-24.14
-26.37
-28.11
-29.60
-31.22
-33.31
-35.94
-38.84
-41.54
-43.61
-44.73
-44.86
-44.06
-42.32
-39.53
-35.45
-29.85
-22.68
-14.20
-4.95
4.41
13.21
21.03
27.66
33.14
37.62
41.23
43.96
45.70
46.32
45.74
44.06
41.55
38.57
35.44
32.45
29.79
27.73
26.58
26.67
28.15
30.85
34.23
37.49
39.87
40.93
40.69
39.55
38.06
36.63
35.35
34.01
32.28
29.93
26.95
23.58
20.10
16.69
13.39
10.12
6.83
3.66
0.93
-0.89
-1.43
-0.57
1.44
4.09
6.76
8.89
10.20
10.68
10.50
9.88
8.98
7.85
6.51
4.99
3.45
2.18
1.46
1.40
1.84
2.47
2.89
2.86
2.35
1.55
0.75
0.18
-0.06
-0.07
-0.03
-0.14
-0.57
-1.36
-2.47
-3.75
-5.04
-6.19
-7.12
-7.85
-8.54
-9.34
-10.45
-11.95
-13.83
-15.92
-17.98
-19.62
-20.52
-20.33
-18.92
-16.31
-12.81
-8.90
-5.06
-1.67
1.15
3.49
5.52
7.32
8.81
9.83
10.21
9.96
9.26
8.35
7.43
6.52
5.57
4.53
3.46
2.49
1.79
1.43
1.36
1.41
1.48
1.48
1.46
1.44
1.37
1.15
0.61
-0.34
-1.68
-3.22
-4.68
-5.80
-6.47
-6.79
-7.04
-7.58
-8.64
-10.21
-12.00
-13.58
-14.48
-14.42
-13.38
-11.57
-9.34
-7.05
-4.93
-3.09
-1.48
-0.05
1.28
2.47
3.45
4.14
4.50
4.62
4.65
4.69
4.81
4.94
4.94
4.75
4.36
3.90
3.56
3.49
3.74
4.22
4.71
4.97
4.83
4.25
3.32
2.24
1.15
0.13
-0.84
-1.87
-3.05
-4.48
-6.15
-8.06
-10.15
-12.34
-14.49
-16.31
-17.49
-17.71
-16.79
-14.78
-11.99
-8.81
-5.66
-2.83
-0.44
1.53
3.20
4.72
6.21
7.71
9.17
10.48
11.51
12.13
12.33
12.22
11.97
11.72
11.52
11.29
10.89
10.20
9.18
7.91
6.53
5.19
3.94
2.77
1.64
0.48
-0.73
-1.92
-3.03
-3.97
-4.71
-5.30
-5.83
-6.46
-7.33
-8.52
-9.96
-11.47
-12.75
-13.50
-13.48
-12.58
-10.89
-8.59
-5.91
-3.14
-0.48
1.93
4.09
6.05
7.85
9.45
10.72
11.53
11.85
11.78
11.53
11.34
11.32
11.45
11.63
11.73
11.75
11.70
11.60
11.37
10.90
10.09
9.01
7.83
6.79
6.04
5.57
5.17
4.64
3.81
2.72
1.55
0.56
-0.13
-0.56
-0.91
-1.47
-2.40
-3.74
-5.39
-7.09
-8.50
-9.25
-9.00
-7.64
-5.36
-2.65
-0.21
1.35
1.75
1.16
0.12
-0.76
-1.03
-0.58
0.36
1.42
2.17
2.34
1.75
0.46
-1.26
-2.81
-3.43
-2.41
0.53
5.02
10.05
14.32
16.78
17.00
15.31
12.47
9.37
6.52
4.15
2.19
0.59
-0.64
-1.44
-1.81
-1.95
-2.11
-2.55
-3.35
-4.43
-5.62
-6.87
-8.24
-9.85
-11.81
-14.06
-16.37
-18.33
-19.55
-19.79
-19.06
-17.66
-16.04
-14.63
-13.64
-13.01
-12.49
-11.76
-10.67
-9.21
-7.60
-6.07
-4.77
-3.75
-2.95
-2.34
-1.85
-1.52
-1.34
-1.28
-1.24
-1.10
-0.78
-0.31
0.16
0.41
0.28
-0.20
-0.86
-1.43
-1.67
-1.53
-1.15
-0.77
-0.56
-0.61
-0.87
-1.26
-1.73
-2.33
-3.19
-4.41
-6.01
-7.90
-9.89
-11.67
-12.92
-13.32
-12.68
-10.95
-8.27
-4.89
-1.16
2.57
5.98
8.82
10.95
12.36
13.12
13.40
13.41
13.35
13.43
13.74
14.31
15.06
15.82
16.41
16.68
16.61
16.27
15.78
15.19
14.47
13.51
12.24
10.64
8.89
7.15
5.62
4.40
3.52
2.93
2.56
2.36
2.17
1.80
1.02
-0.36
-2.26
-4.32
-5.89
-6.23
-4.75
-1.33
3.67
9.39
14.81
19.05
21.60
22.45
21.92
20.49
18.54
16.33
13.93
11.44
9.02
6.93
5.38
4.46
4.06
3.89
3.64
3.12
2.31
1.38
0.56
0.02
-0.17
-0.11
0.03
0.05
-0.20
-0.81
-1.77
-2.99
-4.28
-5.50
-6.54
-7.45
-8.38
-9.51
-11.00
-12.90
-15.09
-17.32
-19.22
-20.41
-20.63
-19.74
-17.86
-15.32
-12.53
-9.86
-7.51
-5.46
-3.53
-1.51
0.74
3.21
5.71
7.97
9.68
10.63
10.81
10.39
9.72
9.14
8.92
9.09
9.53
10.03
10.43
10.70
10.89
11.00
10.93
10.50
9.62
8.38
7.07
5.98
5.30
4.95
4.64
4.06
3.06
1.66
0.06
-1.55
-3.09
-4.55
-5.94
-7.27
-8.44
-9.25
-9.49
-9.03
-7.84
-6.02
-3.74
-1.21
1.46
4.13
6.69
8.98
10.76
11.84
12.18
11.95
11.56
11.45
11.91
12.89
14.11
15.16
15.77
15.87
15.60
15.12
14.51
13.73
12.73
11.52
10.20
8.95
7.91
7.10
6.46
5.85
5.15
4.28
3.18
1.85
0.36
-1.21
-2.72
-4.01
-4.99
-5.71
-6.39
-7.33
-8.73
-10.60
-12.65
-14.42
-15.45
-15.45
-14.46
-12.78
-10.88
-9.17
-7.83
-6.76
-5.71
-4.49
-3.04
-1.57
-0.40
0.22
0.21
-0.25
-0.88
-1.42
-1.76
-1.91
-1.90
-1.65
-0.97
0.33
2.26
4.50
6.52
7.69
7.62
6.26
3.91
1.12
-1.57
-3.77
-5.29
-6.02
-5.87
-4.77
-2.65
0.36
3.97
7.77
11.28
14.21
16.48
18.23
19.72
21.19
22.78
24.45
26.04
27.32
28.09
28.21
27.70
26.68
25.39
24.04
22.82
21.77
20.88
20.10
19.34
18.51
17.50
16.24
14.65
12.74
10.58
8.27
5.97
3.79
1.88
0.31
-0.91
-1.85
-2.71
-3.66
-4.84
-6.22
-7.64
-8.90
-9.90
-10.65
-11.32
-12.10
-13.13
-14.41
-15.88
-17.42
-18.93
-20.26
-21.24
-21.63
-21.22
-19.91
-17.85
-15.38
-12.96
-10.95
-9.50
-8.52
-7.76
-7.02
-6.26
-5.57
-5.11
-4.93
-4.98
-5.07
-5.02
-4.73
-4.20
-3.45
-2.48
-1.28
0.14
1.63
2.95
3.83
4.08
3.75
3.06
2.28
1.66
1.30
1.18
1.19
1.25
1.27
1.16
0.84
0.23
-0.71
-1.89
-3.15
-4.32
-5.27
-5.98
-6.54
-7.01
-7.30
-7.30
-6.79
-5.70
-4.11
-2.29
-0.62
0.61
1.25
1.36
1.17
0.95
0.87
0.97
1.22
1.56
1.97
2.44
2.97
3.51
3.94
4.13
4.00
3.63
3.21
3.01
3.20
3.83
4.69
5.53
6.01
5.96
5.30
4.16
2.72
1.20
-0.24
-1.48
-2.55
-3.53
-4.53
-5.62
-6.77
-7.89
-8.84
-9.60
-10.20
-10.65
-10.91
-10.81
-10.18
-8.92
-7.13
-5.15
-3.34
-1.95
-1.05
-0.48
-0.02
0.53
1.20
1.88
2.45
2.79
2.85
2.71
2.52
2.43
2.52
2.80
3.15
3.39
3.38
3.06
2.49
1.77
1.05
0.39
-0.19
-0.71
-1.22
-1.73
-2.25
-2.69
-3.00
-3.16
-3.16
-3.07
-3.01
-3.09
-3.38
-3.91
-4.61
-5.39
-6.13
-6.74
-7.11
-7.16
-6.84
-6.13
-5.16
-4.06
-3.02
-2.14
-1.45
-0.90
-0.40
0.11
0.66
1.22
1.75
2.22
2.58
2.82
2.92
2.95
2.94
2.98
3.08
3.19
3.18
3.00
2.63
2.15
1.65
1.18
0.70
0.11
-0.67
-1.64
-2.69
-3.69
-4.53
-5.18
-5.71
-6.24
-6.80
-7.38
-7.87
-8.19
-8.32
-8.30
-8.20
-8.04
-7.75
-7.21
-6.26
-4.80
-2.89
-0.70
1.45
3.26
4.50
5.06
5.04
4.64
4.09
3.59
3.21
2.95
2.73
2.49
2.21
1.88
1.56
1.30
1.18
1.25
1.49
1.83
2.17
2.39
2.37
2.06
1.46
0.62
-0.32
-1.15
-1.68
-1.79
-1.48
-0.98
-0.57
-0.54
-1.02
-1.91
-3.00
-4.05
-4.95
-5.64
-6.12
-6.34
-6.15
-5.48
-4.31
-2.83
-1.30
-0.01
0.92
1.50
1.93
2.42
3.13
4.10
5.19
6.19
6.85
7.01
6.66
6.02
5.39
5.01
4.99
5.21
5.45
5.51
5.31
4.88
4.35
3.78
3.16
2.39
1.41
0.24
-0.99
-2.11
-2.94
-3.39
-3.49
-3.38
-3.29
-3.44
-3.92
-4.72
-5.69
-6.65
-7.49
-8.25
-9.03
-9.89
-10.75
-11.32
-11.33
-10.59
-9.14
-7.26
-5.31
-3.59
-2.24
-1.25
-0.55
-0.09
0.15
0.22
0.21
0.25
0.44
0.81
1.28
1.72
1.97
1.99
1.81
1.53
1.25
1.02
0.85
0.73
0.67
0.69
0.79
0.93
1.02
0.96
0.67
0.17
-0.43
-0.96
-1.28
-1.32
-1.12
-0.77
-0.35
0.04
0.33
0.44
0.33
0.05
-0.31
-0.57
-0.59
-0.29
0.24
0.86
1.41
1.74
1.86
1.85
1.85
1.96
2.22
2.59
3.00
3.39
3.73
4.02
4.20
4.23
4.02
3.54
2.75
1.74
0.64
-0.41
-1.27
-1.86
-2.17
-2.23
-2.17
-2.15
-2.36
-2.88
-3.70
-4.69
-5.64
-6.35
-6.74
-6.88
-6.93
-7.08
-7.48
-8.14
-8.99
-9.82
-10.40
-10.57
-10.19
-9.25
-7.83
-6.10
-4.28
-2.55
-1.07
0.13
1.07
1.76
2.21
2.42
2.40
2.23
2.07
2.14
2.60
3.45
4.55
5.62
6.41
6.77
6.67
6.20
5.43
4.45
3.34
2.21
1.21
0.48
0.09
-0.03
-0.05
-0.24
-0.73
-1.56
-2.61
-3.71
-4.69
-5.45
-6.01
-6.45
-6.88
-7.42
-8.11
-8.91
-9.73
-10.41
-10.70
-10.39
-9.35
-7.58
-5.29
-2.82
-0.56
1.19
2.30
2.82
2.89
2.69
2.37
2.03
1.80
1.72
1.81
2.02
2.25
2.45
2.64
2.91
3.37
4.00
4.67
5.17
5.35
5.11
4.54
3.79
3.00
2.24
1.52
0.81
0.13
-0.50
-1.09
-1.66
-2.27
-2.97
-3.72
-4.44
-5.06
-5.58
-6.15
-6.97
-8.25
-10.00
-12.01
-13.87
-15.10
-15.37
-14.58
-12.92
-10.75
-8.41
-6.13
-4.02
-2.04
-0.20
1.45
2.81
3.82
4.53
5.10
5.70
6.43
7.23
7.97
8.49
8.68
8.51
8.05
7.46
6.92
6.60
6.57
6.77
6.97
6.84
6.21
5.07
3.71
2.53
1.88
1.87
2.30
2.81
3.05
2.82
2.12
1.11
-0.03
-1.12
-2.09
-3.00
-3.94
-5.10
-6.63
-8.58
-10.87
-13.27
-15.45
-16.99
-17.57
-17.00
-15.28
-12.63
-9.41
-6.03
-2.89
-0.29
1.62
2.87
3.59
4.02
4.41
4.96
5.73
6.67
7.61
8.42
8.99
9.33
9.49
9.54
9.54
9.50
9.47
9.48
9.54
9.56
9.40
8.90
8.02
6.85
5.64
4.63
3.92
3.46
3.06
2.52
1.74
0.73
-0.38
-1.45
-2.39
-3.21
-3.99
-4.82
-5.80
-6.98
-8.32
-9.73
-11.00
-11.86
-12.04
-11.34
-9.75
-7.45
-4.78
-2.16
0.05
1.64
2.57
2.97
3.02
2.90
2.75
2.67
2.75
3.05
3.59
4.31
5.09
5.81
6.35
6.70
6.89
7.01
7.08
7.15
7.19
7.19
7.15
7.05
6.90
6.62
6.19
5.53
4.64
3.51
2.19
0.74
-0.77
-2.25
-3.57
-4.64
-5.44
-6.05
-6.65
-7.45
-8.56
-9.93
-11.31
-12.36
-12.72
-12.17
-10.66
-8.37
-5.61
-2.75
-0.16
1.90
3.29
4.07
4.39
4.49
4.59
4.82
5.24
5.82
6.47
7.12
7.73
8.28
8.73
9.02
9.10
8.94
8.60
8.24
8.04
8.16
8.56
9.02
9.18
8.77
7.68
6.06
4.21
2.42
0.80
-0.64
-2.03
-3.37
-4.62
-5.66
-6.47
-7.15
-7.91
-8.88
-10.03
-11.11
-11.77
-11.70
-10.78
-9.12
-7.00
-4.69
-2.50
-0.66
0.68
1.49
1.87
2.07
2.43
3.17
4.26
5.43
6.29
6.52
6.03
5.00
3.80
2.83
2.36
2.45
2.94
3.59
4.13
4.36
4.18
3.60
2.66
1.45
0.00
-1.56
-3.11
-4.50
-5.59
-6.38
-6.95
-7.45
-7.99
-8.52
-8.87
-8.81
-8.26
-7.34
-6.43
-5.94
-6.09
-6.75
-7.45
-7.56
-6.63
-4.62
-1.86
1.05
3.58
5.48
6.76
7.62
8.18
8.46
8.36
7.80
6.86
5.73
4.64
3.69
2.84
1.88
0.68
-0.77
-2.31
-3.69
-4.80
-5.82
-7.20
-9.56
-13.35
-18.63
-24.95
-31.44
-37.16
-41.40
-43.81
-44.36
-43.05
-39.81
-34.59
-27.63
-19.71
-12.06
-6.01
-2.61
-2.32
-5.18
-11.05
-19.79
-31.26
-44.91
-59.48
-73.11
-83.67
-89.46
-89.63
-84.42
-74.79
-62.09
-47.82
-33.25
-19.21
-5.96
6.87
19.96
33.83
48.44
63.13
76.98
89.40
100.40
110.41
119.83
128.42
135.35
139.78
141.64
142.19
143.78
149.02
159.56
175.29
194.28
213.56
230.21
242.35
249.72
253.34
254.81
255.49
255.99
256.14
255.39
253.41
250.32
246.63
242.87
239.16
235.09
229.74
222.12
211.50
197.78
181.47
163.62
145.37
127.32
109.30
90.17
68.30
42.18
11.23
-23.98
-61.88
-100.49
-137.87
-172.27
-202.11
-225.93
-242.62
-251.95
-254.88
-253.38
-249.47
-244.05
-236.14
-223.02
-201.49
-169.59
-128.13
-81.08
-34.74
3.91
29.14
38.00
30.76
10.51
-18.00
-49.86
-80.92
-108.39
-130.56
-146.48
-155.60
-157.78
-153.48
-143.94
-131.06
-116.85
-102.88
-89.91
-77.95
-66.61
-55.71
-45.56
-37.06
-31.28
-29.14
-30.98
-36.44
-44.56
-53.95
-63.25
-71.25
-77.08
-80.32
-80.75
-78.35
-73.12
-65.15
-54.68
-42.28
-28.88
-15.67
-3.95
5.29
11.50
14.71
15.43
14.46
12.67
10.79
9.30
8.39
7.98
7.80
7.58
6.99
5.75
3.60
0.32
-4.22
-10.01
-16.76
-23.93
-30.73
-36.36
-40.21
-41.99
-41.75
-39.75
-36.34
-31.84
-26.57
-20.95
-15.48
-10.73
-7.14
-4.90
-3.87
-3.71
-4.00
-4.44
-4.88
-5.36
-6.06
-7.20
-8.99
-11.55
-14.78
-18.27
-21.42
-23.56
-24.25
-23.46
-21.59
-19.36
-17.45
-16.23
-15.70
-15.55
-15.36
-14.82
-13.87
-12.64
-11.29
-9.97
-8.81
-7.94
-7.49
-7.64
-8.43
-9.78
-11.40
-12.95
-14.20
-15.17
-16.07
-17.29
-19.13
-21.68
-24.81
-28.16
-31.38
-34.23
-36.73
-39.12
-41.74
-44.98
-49.12
-54.36
-60.71
-68.14
-76.46
-85.26
-93.94
-101.66
-107.50
-110.56
-110.20
-106.10
-98.45
-87.93
-75.63
-62.86
-50.89
-40.77
-33.11
-27.98
-24.88
-22.71
-20.01
-15.28
-7.48
3.50
16.49
29.41
39.84
45.97
47.35
45.16
41.79
39.98
41.94
48.62
59.56
73.15
87.21
99.49
108.25
112.49
112.04
107.55
100.15
91.30
82.32
74.17
67.27
61.55
56.64
52.08
47.63
43.40
39.80
37.39
36.62
37.71
40.49
44.58
49.43
54.56
59.51
64.02
67.94
71.29
74.11
76.29
77.39
76.51
72.58
64.75
53.00
38.52
23.52
10.62
1.89
-1.86
-1.57
0.53
1.48
-1.27
-9.24
-22.52
-39.83
-59.11
-77.95
-94.20
-106.10
-112.51
-112.88
-107.37
-96.99
-83.50
-69.20
-56.28
-46.31
-39.68
-35.64
-32.68
-29.18
-24.17
-17.57
-10.28
-3.66
0.93
2.66
1.37
-2.56
-8.35
-15.20
-22.29
-28.99
-34.63
-38.72
-40.89
-41.01
-39.19
-35.55
-30.23
-23.20
-14.60
-4.87
4.99
13.55
19.32
21.28
19.39
14.62
8.77
3.76
1.05
1.12
3.41
6.56
8.90
9.00
6.11
0.31
-7.55
-16.18
-24.25
-30.61
-34.49
-35.68
-34.50
-31.87
-29.01
-27.12
-26.92
-28.57
-31.75
-35.95
-40.78
-45.97
-51.28
-56.10
-59.26
-58.98
-53.19
-40.11
-19.00
9.34
42.47
76.77
108.42
134.42
153.46
166.07
173.97
179.07
182.56
184.55
184.27
180.71
173.17
161.53
146.17
127.81
107.34
85.63
63.48
41.55
20.36
0.31
-18.18
-34.60
-48.35
-58.89
-65.90
-69.46
-70.03
-68.32
-64.99
-60.48
-55.02
-48.65
-41.50
-33.79
-25.84
-18.00
-10.58
-3.86
1.80
5.88
7.83
7.24
4.04
-1.29
-7.62
-13.47
-17.43
-18.81
-18.07
-16.81
-17.18
-20.86
-28.21
-37.96
-47.78
-55.39
-59.57
-60.75
-60.67
-61.46
-64.71
-70.90
-79.38
-88.90
-98.09
-105.84
-111.37
-114.19
-114.02
-110.70
-104.31
-95.02
-83.18
-69.29
-54.03
-38.31
-23.21
-9.72
1.47
10.15
16.64
21.49
25.26
28.21
30.37
31.74
32.58
33.53
35.40
38.78
43.60
49.08
53.88
56.59
56.28
52.80
46.83
39.53
32.25
26.04
21.51
18.66
17.02
15.81
14.23
11.69
8.06
3.67
-0.85
-4.75
-7.38
-8.30
-7.29
-4.37
0.09
5.33
10.41
14.37
16.66
17.34
17.03
16.59
16.65
17.44
18.72
20.06
21.08
21.63
21.75
21.49
20.86
19.80
18.30
16.48
14.55
12.79
11.38
10.33
9.45
8.42
6.87
4.49
1.14
-3.10
-7.90
-12.74
-17.01
-20.24
-22.11
-22.64
-22.14
-21.05
-19.81
-18.70
-17.86
-17.32
-17.04
-16.99
-17.09
-17.11
-16.68
-15.33
-12.66
-8.52
-3.12
3.11
9.68
16.37
23.14
30.00
36.96
44.05
51.62
60.44
71.53
85.45
101.71
118.51
133.20
143.32
147.51
145.84
139.25
128.49
113.53
93.64
68.33
38.36
6.08
-25.23
-52.54
-74.10
-89.80
-100.69
-108.12
-112.97
-115.63
-116.33
-115.53
-113.92
-111.98
-109.57
-105.87
-100.06
-92.12
-83.47
-76.69
-74.44
-78.14
-87.12
-98.75
-109.46
-116.07
-116.49
-109.73
-95.34
-72.87
-42.04
-3.39
40.92
86.98
129.86
165.13
190.30
205.58
213.30
216.46
217.08
215.58
211.26
203.48
192.92
181.60
172.01
165.54
161.33
156.27
146.30
128.26
101.40
67.68
30.89
-4.90
-36.76
-63.50
-85.57
-104.43
-121.83
-139.20
-157.31
-176.19
-195.22
-213.44
-229.93
-244.25
-256.55
-267.44
-277.60
-287.31
-296.31
-303.66
-307.83
-306.48
-296.34
-273.50
-234.42
-177.70
-105.80
-25.57
53.09
120.47
170.58
203.33
224.19
241.44
262.14
289.07
319.85
348.40
367.64
371.89
357.96
325.22
275.32
212.31
142.96
76.46
22.68
-10.73
-21.18
-12.41
6.89
26.56
38.81
40.76
34.53
24.99
16.79
12.21
10.86
10.87
10.41
8.83
6.53
4.40
3.03
2.63
3.33
5.75
11.16
20.99
35.99
55.36
76.50
95.65
109.21
114.96
112.81
104.61
93.19
81.22
70.18
60.10
49.93
38.44
25.02
10.10
-5.12
-19.13
-30.72
-39.24
-44.56
-46.97
-46.95
-45.23
-42.61
-39.85
-37.50
-35.80
-34.80
-34.41
-34.60
-35.48
-37.25
-40.04
-43.85
-48.55
-53.96
-60.02
-66.58
-73.38
-79.90
-85.61
-90.07
-93.26
-95.52
-97.42
-99.61
-102.25
-105.05
-107.35
-108.68
-108.93
-108.42
-107.76
-107.55
-108.39
-110.19
-112.32
-114.11
-115.32
-116.37
-117.89
-120.42
-124.20
-129.68
-136.39
-143.27
-149.27
-154.00
-157.91
-161.62
-165.55
-169.82
-175.04
-180.33
-183.62
-182.75
-176.62
-165.79
-151.53
-135.13
-117.55
-100.23
-82.56
-62.58
-38.41
-9.61
22.50
56.37
90.92
132.29
177.64
217.93
244.17
253.72
252.13
244.98
235.85
226.88
219.20
210.22
199.17
186.65
174.02
162.28
151.41
141.04
130.61
119.28
105.46
89.45
73.46
60.73
53.89
53.56
58.56
66.24
73.31
76.47
74.65
68.89
61.24
53.44
45.92
38.42
30.52
22.00
12.53
2.17
-9.12
-21.57
-35.39
-50.42
-65.67
-79.45
-89.79
-94.98
-93.64
-85.01
-69.45
-48.75
-26.07
-5.24
10.35
18.86
20.51
17.24
11.58
5.50
-0.19
-5.74
-11.72
-18.38
-25.32
-31.68
-36.55
-39.32
-39.81
-38.27
-35.40
-32.20
-29.76
-29.04
-30.46
-33.80
-38.16
-42.30
-45.06
-45.64
-43.76
-39.66
-34.01
-27.78
-22.18
-18.34
-16.90
-17.61
-19.17
-19.70
-17.44
-11.60
-2.75
7.57
17.50
25.71
31.74
35.81
38.41
39.90
40.45
40.27
39.78
39.47
39.75
40.66
41.94
43.27
44.60
46.23
48.57
51.76
55.48
58.96
61.30
61.82
60.25
56.73
51.61
45.30
38.14
30.47
22.63
14.91
7.50
0.44
-6.33
-12.94
-19.39
-25.56
-31.19
-35.96
-39.64
-42.12
-43.41
-43.62
-42.81
-40.95
-37.95
-33.71
-28.31
-22.09
-15.64
-9.67
-4.80
-1.39
0.61
1.60
2.19
3.01
4.54
6.95
10.14
13.72
17.21
20.21
22.49
24.01
24.87
25.13
24.80
23.88
22.43
20.67
18.98
17.66
16.86
16.41
16.02
15.41
14.43
13.21
11.91
10.72
9.72
8.92
8.29
7.90
7.90
8.35
9.24
10.38
11.51
12.32
12.59
12.23
11.27
9.79
7.93
5.84
3.68
1.62
-0.20
-1.74
-3.04
-4.23
-5.42
-6.67
-7.92
-9.08
-10.07
-10.90
-11.63
-12.37
-13.14
-13.93
-14.59
-15.02
-15.18
-15.13
-14.96
-14.66
-14.11
-13.12
-11.57
-9.55
-7.38
-5.51
-4.29
-3.77
-3.63
-3.37
-2.55
-1.02
0.96
2.94
4.45
5.30
5.60
5.62
5.62
5.68
5.62
5.19
4.23
2.81
1.26
-0.05
-0.89
-1.32
-1.73
-2.55
-4.14
-6.48
-9.24
-11.86
-13.84
-14.93
-15.23
-15.16
-15.28
-16.08
-17.73
-20.04
-22.42
-24.09
-24.35
-22.81
-19.63
-15.49
-11.48
-8.75
-8.10
-9.68
-12.91
-16.60
-19.42
-20.40
-19.17
-16.14
-12.24
-8.51
-5.71
-3.98
-2.75
-0.78
3.43
11.13
22.53
36.31
49.60
58.64
60.09
52.34
36.41
15.70
-4.98
-21.05
-29.50
-29.62
-22.86
-12.07
-0.44
9.34
15.57
17.75
16.35
12.46
7.37
2.25
-2.12
-5.39
-7.64
-9.33
-11.08
-13.47
-16.70
-20.35
-23.33
-24.30
-22.23
-17.05
-9.77
-2.24
3.59
6.45
6.13
3.38
-0.51
-4.33
-7.35
-9.32
-10.30
-10.35
-9.38
-7.22
-3.79
0.74
5.87
10.94
15.33
18.68
20.93
22.17
22.50
21.84
20.00
16.84
12.44
7.29
2.13
-2.23
-5.19
-6.60
-6.84
-6.61
-6.75
-7.86
-10.16
-13.41
-17.03
-20.37
-22.97
-24.62
-25.42
-25.65
-25.58
-25.33
-24.85
-23.99
-22.65
-20.88
-18.93
-17.17
-15.87
-15.12
-14.71
-14.31
-13.60
-12.47
-11.06
-9.62
-8.38
-7.40
-6.59
-5.77
-4.81
-3.69
-2.48
-1.28
-0.22
0.52
0.76
0.34
-0.83
-2.67
-4.94
-7.30
-9.45
-11.23
-12.70
-14.03
-15.32
-16.56
-17.53
-17.91
-17.49
-16.20
-14.16
-11.67
-9.05
-6.54
-4.31
-2.31
-0.46
1.37
3.27
5.20
7.02
8.58
9.74
10.44
10.79
11.00
11.24
11.66
12.18
12.67
12.92
12.82
12.43
11.91
11.38
10.86
10.22
9.25
7.84
6.02
4.03
2.13
0.52
-0.81
-2.01
-3.31
-4.90
-6.86
-9.13
-11.54
-13.86
-15.81
-17.16
-17.71
-17.32
-15.97
-13.77
-10.92
-7.71
-4.49
-1.54
1.01
3.16
5.08
6.94
8.88
10.87
12.82
14.68
16.48
18.31
20.23
22.19
23.98
25.31
26.05
26.25
26.15
25.97
25.85
25.70
25.36
24.69
23.73
22.59
21.47
20.44
19.41
18.26
16.91
15.35
13.69
12.02
10.34
8.63
6.80
4.82
2.69
0.45
-1.82
-4.13
-6.44
-8.74
-10.89
-12.65
-13.78
-14.05
-13.36
-11.73
-9.31
-6.36
-3.12
0.15
3.30
6.22
8.85
11.15
13.03
14.39
15.17
15.37
15.10
14.53
13.82
13.07
12.30
11.47
10.54
9.58
8.69
7.98
7.46
7.01
6.45
5.63
4.58
3.46
2.47
1.74
1.17
0.49
-0.52
-2.02
-3.86
-5.76
-7.35
-8.42
-9.00
-9.31
-9.75
-10.75
-12.61
-15.48
-19.15
-23.11
-26.60
-28.78
-29.01
-27.06
-23.26
-18.35
-13.32
-9.03
-6.04
-4.45
-4.00
-4.19
-4.57
-4.82
-4.76
-4.38
-3.68
-2.66
-1.36
0.13
1.65
2.98
3.97
4.60
5.00
5.49
6.36
7.80
9.75
11.87
13.68
14.71
14.75
13.84
12.33
10.66
9.17
8.04
7.26
6.72
6.32
6.01
5.80
5.69
5.59
5.25
4.34
2.53
-0.33
-4.03
-7.95
-11.18
-12.85
-12.46
-10.08
-6.42
-2.42
1.06
3.62
5.38
6.81
8.40
10.41
12.75
15.19
17.46
19.48
21.36
23.25
25.28
27.42
29.55
31.53
33.27
34.69
35.78
36.49
36.81
36.75
36.40
35.85
35.16
34.25
32.99
31.24
28.90
25.91
22.25
17.88
12.68
6.62
-0.25
-7.69
-15.29
-22.58
-29.10
-34.44
-38.28
-40.35
-40.50
-38.73
-35.35
-31.08
-26.88
-23.82
-22.65
-23.67
-26.60
-30.78
-35.47
-40.16
-44.61
-48.77
-52.60
-55.91
-58.45
-59.97
-60.45
-60.09
-59.31
-58.54
-58.14
-58.32
-59.09
-60.32
-61.72
-62.87
-63.17
-61.82
-57.95
-50.78
-39.99
-25.99
-9.95
6.42
21.37
33.70
42.94
49.38
53.67
56.48
58.34
59.67
60.87
62.38
64.48
67.09
69.70
71.50
71.68
69.76
65.80
60.36
54.32
48.65
44.19
41.50
40.80
41.95
44.50
47.76
50.93
53.27
54.18
53.37
50.87
47.08
42.61
38.13
34.22
31.16
28.94
27.26
25.58
23.34
20.15
15.94
11.01
5.94
1.36
-2.30
-4.98
-6.93
-8.66
-10.61
-13.13
-16.30
-20.03
-24.07
-28.10
-31.73
-34.51
-36.08
-36.22
-35.04
-32.88
-30.24
-27.66
-25.50
-23.90
-22.78
-21.97
-21.28
-20.62
-19.98
-19.34
-18.69
-17.92
-16.95
-15.75
-14.45
-13.23
-12.23
-11.38
-10.32
-8.57
-5.71
-1.62
3.34
8.50
13.07
16.43
18.24
18.51
17.43
15.33
12.55
9.51
6.78
4.94
4.46
5.41
7.31
9.23
10.21
9.71
7.93
5.86
4.79
5.77
9.13
14.52
21.03
27.58
33.16
36.99
38.64
37.99
35.11
30.21
23.64
15.89
7.55
-0.75
-8.40
-14.76
-19.52
-23.05
-26.52
-31.54
-39.63
-51.65
-67.28
-85.00
-101.71
-114.25
-120.80
-121.62
-118.64
-114.33
-110.78
-108.66
-107.52
-104.71
-97.68
-85.68
-70.50
-55.50
-43.94
-38.19
-38.37
-42.97
-46.78
-43.97
-30.68
-6.66
25.47
61.86
98.09
131.03
158.16
181.06
202.60
225.05
249.15
275.07
303.22
332.88
362.53
370.09
338.47
267.59
177.61
94.28
33.86
2.87
-8.99
-11.44
-11.80
-11.04
-7.29
-0.71
6.42
10.48
8.65
-0.55
-15.62
-34.19
-51.48
-63.37
-68.59
-69.16
-68.89
-71.02
-77.59
-88.11
-101.28
-113.86
-122.70
-126.03
-124.13
-118.63
-111.38
-104.08
-97.40
-91.94
-87.56
-84.05
-81.44
-79.65
-78.06
-75.20
-69.39
-59.38
-45.61
-30.03
-15.64
-5.46
-1.46
-4.00
-11.81
-22.68
-34.35
-45.24
-54.74
-63.13
-71.16
-79.69
-89.21
-99.43
-109.00
-115.59
-116.24
-108.23
-89.99
-61.95
-26.90
10.43
44.49
70.31
84.88
87.81
81.22
68.78
54.52
41.62
31.96
26.08
23.63
23.95
26.36
30.20
34.75
39.22
42.92
45.46
46.94
47.90
49.12
51.23
54.40
58.13
61.41
63.18
62.70
60.02
56.04
52.15
49.68
49.31
50.74
52.83
54.18
53.70
51.10
46.81
41.66
36.40
31.27
26.11
20.55
14.39
7.71
0.90
-5.58
-11.41
-16.47
-20.84
-24.73
-28.37
-31.88
-35.30
-38.57
-41.54
-44.15
-46.34
-48.24
-49.96
-51.59
-53.02
-53.99
-54.15
-53.24
-51.20
-48.24
-44.74
-41.16
-37.86
-35.12
-33.12
-31.92
-31.48
-31.56
-31.68
-31.24
-29.70
-26.86
-22.90
-18.43
-14.12
-10.49
-7.72
-5.63
-3.91
-2.25
-0.55
1.18
2.79
4.16
5.28
6.23
7.21
8.33
9.74
11.35
12.92
14.10
14.57
14.16
12.90
11.00
8.66
5.99
2.94
-0.58
-4.58
-8.84
-12.91
-16.33
-18.78
-20.29
-21.21
-22.13
-23.58
-25.84
-28.83
-32.17
-35.30
-37.60
-38.64
-38.15
-36.15
-32.88
-28.77
-24.37
-20.22
-16.73
-14.08
-12.25
-10.98
-9.96
-8.91
-7.69
-6.32
-4.99
-3.92
-3.31
-3.19
-3.44
-3.80
-3.94
-3.57
-2.55
-0.82
1.51
4.29
7.29
10.22
12.71
14.40
15.00
14.40
12.75
10.41
7.96
5.99
4.98
5.13
6.26
7.89
9.20
9.46
8.14
5.20
1.07
-3.49
-7.64
-10.77
-12.48
-12.65
-11.36
-8.83
-5.35
-1.37
2.56
5.95
8.49
10.16
11.24
12.11
13.10
14.26
15.45
16.47
17.21
17.75
18.28
18.96
19.76
20.44
20.57
19.70
17.52
14.01
9.49
4.58
0.08
-3.17
-4.61
-4.10
-2.00
0.93
3.82
5.91
6.81
6.48
5.17
3.23
0.99
-1.35
-3.79
-6.45
-9.48
-12.94
-16.63
-20.08
-22.66
-23.74
-22.89
-20.08
-15.69
-10.44
-5.18
-0.71
2.45
4.15
4.56
4.17
3.50
3.03
3.05
3.58
4.51
5.62
6.69
7.54
8.06
8.23
8.08
7.72
7.25
6.85
6.58
6.52
6.67
6.86
6.85
6.42
5.39
3.87
2.15
0.71
-0.05
0.01
0.69
1.48
1.75
1.01
-0.88
-3.63
-6.67
-9.31
-10.97
-11.34
-10.42
-8.39
-5.57
-2.21
1.46
5.27
9.02
12.55
15.78
18.74
21.57
24.38
27.20
29.88
32.15
33.76
34.57
34.53
33.77
32.43
30.74
28.91
27.20
25.83
24.95
24.47
24.17
23.71
22.85
21.49
19.79
17.99
16.27
14.70
13.17
11.58
9.94
8.38
7.11
6.15
5.40
4.70
4.27
4.69
6.66
10.36
15.13
19.59
22.37
22.88
21.78
20.62
20.97
23.60
28.16
33.58
38.80
43.26
46.95
49.97
52.11
52.83
51.60
48.46
44.14
39.76
36.31
34.18
32.95
31.67
29.16
24.51
17.20
7.20
-5.10
-18.94
-33.32
-47.15
-59.38
-69.21
-76.19
-80.16
-81.17
-79.25
-74.47
-66.97
-57.07
-45.40
-32.82
-20.32
-8.90
0.66
7.94
12.92
15.99
17.78
19.00
20.13
21.28
22.14
22.20
21.06
18.79
15.93
13.41
12.10
12.38
14.01
16.23
18.18
19.30
19.53
19.17
18.58
17.94
17.13
15.89
14.14
12.06
10.07
8.58
7.70
7.11
6.06
3.63
-0.88
-7.60
-16.00
-24.91
-32.97
-39.00
-42.50
-43.62
-43.04
-41.56
-39.64
-37.36
-34.40
-30.45
-25.52
-20.06
-14.86
-10.73
-8.17
-7.20
-7.45
-8.29
-9.18
-9.80
-10.10
-10.26
-10.56
-11.33
-12.84
-15.26
-18.63
-22.85
-27.60
-32.45
-36.92
-40.62
-43.27
-44.83
-45.37
-45.08
-44.33
-43.54
-43.09
-43.24
-43.96
-44.90
-45.51
-45.23
-43.64
-40.62
-36.38
-31.28
-25.82
-20.41
-15.37
-10.86
-6.87
-3.31
-0.06
2.88
5.44
7.45
8.78
9.41
9.46
9.11
8.59
8.01
7.48
7.03
6.66
6.33
5.93
5.37
4.57
3.58
2.53
1.66
1.16
0.99
0.97
0.75
0.02
-1.38
-3.37
-5.69
-7.98
-9.90
-11.17
-11.60
-11.18
-9.97
-8.19
-6.11
-4.05
-2.26
-0.91
0.01
0.60
1.05
1.48
1.94
2.35
2.64
2.72
2.56
2.25
1.87
1.49
1.14
0.84
0.59
0.40
0.26
0.09
-0.22
-0.82
-1.82
-3.21
-4.92
-6.80
-8.67
-10.39
-11.87
-13.05
-13.96
-14.67
-15.28
-15.85
-16.36
-16.56
-16.00
-14.03
-9.95
-3.16
6.56
18.88
32.93
47.36
60.71
71.70
79.51
83.79
84.72
82.74
78.45
72.48
65.40
57.70
49.77
41.86
34.09
26.51
19.11
11.93
5.07
-1.24
-6.77
-11.32
-14.86
-17.57
-19.74
-21.71
-23.76
-26.01
-28.43
-30.80
-32.87
-34.37
-35.15
-35.18
-34.63
-33.73
-32.67
-31.47
-30.04
-28.17
-25.76
-22.90
-19.86
-16.98
-14.46
-12.28
-10.22
-7.96
-5.21
-1.83
2.11
6.46
10.98
15.42
19.57
23.27
26.39
28.87
30.72
32.03
32.97
33.77
34.67
35.83
37.23
38.73
40.01
40.76
40.76
39.93
38.33
35.99
32.92
29.05
24.37
18.99
13.20
7.39
1.91
-3.03
-7.41
-11.33
-14.93
-18.23
-21.19
-23.68
-25.63
-27.06
-28.13
-29.05
-30.02
-31.10
-32.22
-33.16
-33.69
-33.61
-32.83
-31.35
-29.31
-26.83
-24.04
-21.05
-17.97
-14.96
-12.18
-9.72
-7.66
-5.94
-4.47
-3.16
-1.96
-0.92
-0.06
0.61
1.15
1.67
2.24
2.90
3.55
4.11
4.54
4.85
5.11
5.45
5.97
6.65
7.41
8.05
8.33
8.11
7.31
6.05
4.57
3.15
2.04
1.35
1.04
0.97
0.92
0.73
0.31
-0.22
-0.49
0.12
2.30
6.61
13.10
21.23
29.88
37.67
43.30
45.96
45.42
42.08
36.75
30.39
23.98
18.27
13.76
10.60
8.52
6.98
5.22
2.57
-1.39
-6.58
-12.50
-18.34
-23.25
-26.61
-28.23
-28.33
-27.41
-26.11
-24.99
-24.43
-24.58
-25.34
-26.49
-27.72
-28.68
-29.11
-28.84
-27.82
-26.12
-23.86
-21.22
-18.35
-15.37
-12.45
-9.70
-7.18
-4.92
-2.91
-1.07
0.63
2.18
3.56
4.74
5.74
6.61
7.40
8.10
8.61
8.83
8.71
8.35
7.91
7.59
7.58
7.91
8.51
9.26
9.96
10.48
10.61
10.20
9.12
7.36
5.07
2.56
0.21
-1.66
-2.89
-3.55
-3.89
-4.29
-5.05
-6.31
-8.00
-9.85
-11.48
-12.51
-12.69
-11.95
-10.43
-8.38
-6.10
-3.83
-1.70
0.24
1.97
3.50
4.78
5.77
6.44
6.83
7.00
7.01
6.91
6.76
6.60
6.47
6.40
6.43
6.59
6.84
7.11
7.30
7.27
6.94
6.26
5.28
4.08
2.79
1.48
0.21
-1.03
-2.26
-3.49
-4.74
-6.05
-7.49
-9.08
-10.72
-12.19
-13.19
-13.43
-12.81
-11.48
-9.79
-8.12
-6.66
-5.35
-3.89
-1.99
0.42
3.14
5.75
7.75
8.88
9.16
8.90
8.52
8.38
8.69
9.51
10.73
12.21
13.71
15.05
16.05
16.66
16.99
17.27
17.82
18.97
20.89
23.62
26.97
30.71
34.56
38.32
41.82
44.95
47.67
49.99
51.98
53.75
55.48
57.41
59.74
62.69
66.40
70.81
75.72
80.71
85.28
88.87
90.96
91.14
89.07
84.59
77.67
68.48
57.35
44.70
30.93
16.43
1.49
-13.59
-28.48
-42.78
-56.04
-67.86
-77.85
-85.77
-91.49
-95.02
-96.55
-96.36
-94.83
-92.28
-88.97
-85.05
-80.58
-75.69
-70.59
-65.58
-61.01
-57.18
-54.23
-52.14
-50.71
-49.60
-48.43
-46.77
-44.30
-40.82
-36.41
-31.40
-26.28
-21.62
-17.77
-14.78
-12.43
-10.38
-8.32
-6.15
-3.99
-2.04
-0.47
0.72
1.64
2.47
3.34
4.29
5.25
6.12
6.80
7.23
7.43
7.43
7.32
7.13
6.83
6.36
5.64
4.71
3.64
2.58
1.58
0.60
-0.53
-1.94
-3.63
-5.38
-6.78
-7.47
-7.21
-6.09
-4.33
-2.27
-0.20
1.70
3.35
4.73
5.85
6.77
7.52
8.20
8.83
9.42
9.94
10.31
10.48
10.47
10.34
10.15
10.01
9.97
10.04
10.19
10.35
10.43
10.32
9.91
9.18
8.17
7.00
5.86
4.85
3.99
3.13
2.04
0.49
-1.56
-3.96
-6.30
-8.10
-8.95
-8.65
-7.33
-5.30
-2.96
-0.61
1.59
3.61
5.50
7.26
8.85
10.22
11.29
12.05
12.49
12.66
12.60
12.35
11.96
11.51
11.04
10.60
10.20
9.81
9.42
8.98
8.46
7.85
7.15
6.41
5.69
5.00
4.34
3.69
3.01
2.28
1.49
0.60
-0.46
-1.75
-3.28
-4.93
-6.45
-7.50
-7.83
-7.32
-6.06
-4.31
-2.41
-0.64
0.88
2.19
3.42
4.69
6.03
7.30
8.26
8.76
8.79
8.52
8.18
7.96
7.86
7.76
7.55
7.20
6.80
6.45
6.23
6.10
5.98
5.77
5.44
5.01
4.51
3.91
3.20
2.37
1.50
0.70
0.07
-0.40
-0.78
-1.18
-1.70
-2.33
-3.00
-3.61
-4.01
-4.14
-3.91
-3.29
-2.27
-0.88
0.78
2.57
4.27
5.68
6.64
7.06
6.96
6.48
5.83
5.25
4.93
4.94
5.20
5.55
5.80
5.86
5.77
5.63
5.56
5.61
5.71
5.75
5.59
5.16
4.41
3.33
1.95
0.33
-1.38
-3.00
-4.38
-5.41
-6.12
-6.60
-7.00
-7.40
-7.85
-8.31
-8.65
-8.67
-8.20
-7.11
-5.40
-3.22
-0.87
1.34
3.16
4.43
5.13
5.33
5.11
4.59
3.91
3.23
2.71
2.48
2.55
2.90
3.43
4.00
4.52
4.92
5.16
5.27
5.27
5.18
4.94
4.47
3.67
2.53
1.17
-0.18
-1.29
-2.07
-2.56
-2.91
-3.30
-3.83
-4.50
-5.29
-6.25
-7.39
-8.65
-9.84
-10.65
-10.77
-10.09
-8.70
-6.93
-5.13
-3.59
-2.38
-1.45
-0.68
0.03
0.70
1.35
1.95
2.49
2.96
3.35
3.69
3.99
4.29
4.60
4.89
5.11
5.21
5.15
4.95
4.60
4.18
3.69
3.10
2.36
1.44
0.40
-0.60
-1.38
-1.82
-1.94
-1.89
-1.86
-2.01
-2.37
-2.90
-3.51
-4.22
-5.05
-6.01
-6.94
-7.58
-7.62
-6.86
-5.36
-3.42
-1.53
-0.05
0.84
1.22
1.34
1.46
1.76
2.27
2.90
3.57
4.24
4.88
5.49
6.03
6.41
6.53
6.38
6.02
5.58
5.19
4.88
4.61
4.25
3.70
2.94
2.01
1.05
0.12
-0.73
-1.54
-2.30
-2.98
-3.54
-3.95
-4.27
-4.62
-5.12
-5.84
-6.74
-7.66
-8.40
-8.83
-8.86
-8.48
-7.70
-6.54
-5.01
-3.22
-1.31
0.57
2.31
3.86
5.20
6.32
7.13
7.53
7.42
6.79
5.76
4.57
3.46
2.66
2.27
2.21
2.31
2.37
2.28
2.02
1.74
1.53
1.41
1.29
1.02
0.49
-0.29
-1.16
-1.96
-2.54
-2.89
-3.08
-3.26
-3.56
-4.05
-4.79
-5.74
-6.84
-7.88
-8.62
-8.82
-8.34
-7.28
-5.90
-4.57
-3.52
-2.80
-2.27
-1.73
-1.04
-0.27
0.46
1.04
1.47
1.88
2.45
3.25
4.20
5.13
5.80
6.08
5.98
5.58
5.04
4.49
4.03
3.69
3.43
3.13
2.70
2.09
1.36
0.60
-0.04
-0.52
-0.87
-1.17
-1.50
-1.95
-2.53
-3.29
-4.23
-5.33
-6.46
-7.41
-7.97
-7.97
-7.41
-6.43
-5.27
-4.15
-3.19
-2.45
-1.89
-1.50
-1.27
-1.25
-1.43
-1.78
-2.21
-2.58
-2.75
-2.68
-2.38
-1.98
-1.60
-1.32
-1.13
-1.01
-0.94
-0.92
-0.98
-1.18
-1.50
-1.92
-2.40
-2.93
-3.51
-4.11
-4.60
-4.82
-4.63
-4.07
-3.28
-2.48
-1.84
-1.34
-0.86
-0.32
0.32
0.98
1.55
1.96
2.26
2.52
2.74
2.86
2.76
2.39
1.79
1.13
0.59
0.21
-0.02
-0.17
-0.22
-0.02
0.61
1.80
3.51
5.55
7.59
9.36
10.71
11.56
11.92
11.78
11.04
9.63
7.54
4.88
1.89
-1.11
-3.80
-6.06
-7.89
-9.50
-11.12
-12.90
-14.85
-16.85
-18.74
-20.44
-21.94
-23.32
-24.61
-25.75
-26.52
-26.70
-26.10
-24.75
-22.88
-20.81
-18.83
-17.09
-15.58
-14.25
-13.08
-12.09
-11.32
-10.73
-10.14
-9.32
-8.06
-6.31
-4.21
-1.98
0.16
2.08
3.73
5.09
6.10
6.75
7.01
7.04
7.04
7.23
7.68
8.31
8.93
9.31
9.33
8.97
8.30
7.38
6.32
5.21
4.27
3.73
3.78
4.45
5.59
6.89
8.01
8.75
9.06
9.09
9.05
9.09
9.24
9.41
9.47
9.32
8.96
8.45
7.87
7.27
6.64
5.97
5.26
4.51
3.81
3.21
2.78
2.47
2.21
1.88
1.45
0.92
0.40
-0.01
-0.25
-0.38
-0.52
-0.79
-1.28
-1.93
-2.69
-3.47
-4.18
-4.73
-5.03
-4.97
-4.48
-3.59
-2.48
-1.39
-0.50
0.10
0.47
0.76
1.06
1.38
1.66
1.84
1.91
1.90
1.92
2.01
2.18
2.32
2.33
2.15
1.85
1.67
1.89
2.74
4.23
6.16
8.13
9.78
10.92
11.61
12.11
12.70
13.52
14.51
15.49
16.21
16.59
16.64
16.45
16.05
15.40
14.43
13.15
11.67
10.23
9.01
8.03
7.15
6.12
4.78
3.15
1.43
-0.10
-1.25
-2.02
-2.53
-2.95
-3.37
-3.81
-4.16
-4.38
-4.41
-4.27
-3.95
-3.42
-2.61
-1.40
0.26
2.26
4.35
6.21
7.51
8.16
8.30
8.26
8.34
8.74
9.37
10.01
10.35
10.23
9.64
8.74
7.66
6.51
5.28
3.93
2.48
1.07
-0.10
-0.86
-1.13
-1.02
-0.76
-0.56
-0.58
-0.80
-1.14
-1.46
-1.73
-2.02
-2.51
-3.43
-4.95
-7.08
-9.65
-12.37
-15.00
-17.48
-20.02
-22.91
-26.34
-30.20
-34.09
-37.42
-39.78
-40.94
-40.97
-39.95
-37.84
-34.49
-29.76
-23.73
-16.79
-9.67
-3.15
2.27
6.48
9.79
12.72
15.76
19.09
22.63
26.09
29.23
32.01
34.57
37.20
40.04
42.98
45.70
47.80
49.03
49.34
48.91
47.98
46.81
45.64
44.63
43.86
43.29
42.77
42.04
40.81
38.94
36.44
33.48
30.22
26.74
23.01
19.02
14.87
10.87
7.37
4.60
2.46
0.53
-1.86
-5.36
-10.42
-17.19
-25.43
-34.63
-44.02
-52.78
-60.24
-66.05
-70.23
-73.15
-75.15
-76.38
-76.61
-75.40
-72.44
-67.78
-61.89
-55.50
-49.25
-43.46
-38.15
-33.18
-28.45
-24.03
-20.02
-16.54
-13.58
-11.11
-9.08
-7.59
-6.77
-6.68
-7.21
-8.05
-8.83
-9.21
-9.03
-8.29
-7.19
-6.05
-5.23
-5.07
-5.72
-7.05
-8.62
-9.77
-9.87
-8.55
-5.85
-2.21
1.68
5.08
7.40
8.36
7.98
6.63
4.89
3.41
2.70
2.99
4.18
5.89
7.61
8.87
9.32
8.84
7.50
5.54
3.35
1.47
0.37
0.40
1.56
3.52
5.62
7.17
7.69
7.08
5.66
3.95
2.49
1.75
2.02
3.45
6.02
9.37
12.74
15.13
15.59
13.74
9.96
5.40
1.45
-0.84
-1.15
0.01
1.75
3.16
3.77
3.57
2.87
2.07
1.42
0.95
0.51
-0.08
-0.91
-1.81
-2.50
-2.69
-2.32
-1.73
-1.51
-2.18
-3.89
-6.20
-8.18
-8.84
-7.40
-3.62
2.20
9.27
16.47
22.48
25.98
26.00
22.23
15.29
6.59
-2.02
-8.88
-13.04
-14.42
-13.67
-11.72
-9.47
-7.62
-6.64
-6.91
-8.65
-11.76
-15.74
-19.71
-22.70
-23.99
-23.33
-20.98
-17.49
-13.45
-9.23
-5.05
-0.98
3.02
7.06
11.36
15.98
20.70
24.84
27.48
27.84
25.86
22.34
18.68
16.21
15.53
16.27
17.32
17.49
16.12
13.33
9.80
6.32
3.42
1.23
-0.42
-1.76
-2.95
-4.04
-5.03
-6.02
-7.24
-8.86
-10.87
-12.93
-14.44
-14.76
-13.47
-10.54
-6.34
-1.49
3.27
7.21
9.77
10.66
10.03
8.41
6.60
5.40
5.27
6.15
7.57
8.91
9.77
10.07
9.95
9.60
8.98
7.92
6.20
3.81
1.05
-1.62
-3.76
-5.25
-6.28
-7.28
-8.62
-10.44
-12.55
-14.59
-16.14
-16.84
-16.40
-14.66
-11.60
-7.47
-2.87
1.27
3.96
4.52
2.88
-0.24
-3.58
-5.79
-5.92
-3.79
-0.02
4.27
7.90
10.04
10.44
9.36
7.44
5.29
3.42
2.08
1.31
1.06
1.21
1.59
2.06
2.44
2.58
2.34
1.63
0.44
-1.16
-3.01
-4.84
-6.43
-7.65
-8.46
-8.92
-9.07
-8.85
-8.08
-6.63
-4.54
-2.17
-0.03
1.43
2.05
2.04
1.80
1.67
1.71
1.73
1.49
0.94
0.25
-0.27
-0.43
-0.32
-0.25
-0.51
-1.18
-2.06
-2.85
-3.29
-3.40
-3.38
-3.42
-3.63
-3.93
-4.19
-4.38
-4.60
-4.99
-5.52
-5.84
-5.39
-3.65
-0.47
3.70
7.81
10.55
10.83
8.27
3.37
-2.59
-7.98
-11.45
-12.31
-10.69
-7.42
-3.64
-0.37
1.80
2.77
2.76
2.08
0.89
-0.71
-2.60
-4.46
-5.79
-6.08
-5.07
-2.97
-0.34
2.24
4.60
7.00
9.84
13.11
16.15
17.91
17.67
15.74
13.51
12.65
14.10
17.37
20.68
22.02
20.38
16.21
11.14
6.86
4.11
2.42
0.66
-2.05
-5.67
-9.27
-11.60
-11.85
-10.10
-7.28
-4.64
-3.15
-3.12
-4.13
-5.28
-5.64
-4.62
-2.15
1.34
5.14
8.57
11.12
12.59
13.10
13.02
12.98
13.68
15.75
19.46
24.57
30.24
35.22
38.20
38.23
35.01
28.99
21.22
13.02
5.65
0.06
-3.22
-4.16
-3.12
-0.82
1.87
3.94
4.57
3.27
0.14
-4.14
-8.45
-11.73
-13.43
-13.82
-13.93
-15.11
-18.40
-24.13
-31.80
-40.35
-48.53
-55.31
-59.99
-62.31
-62.37
-60.49
-57.10
-52.69
-47.74
-42.72
-38.08
-34.15
-31.01
-28.37
-25.63
-22.06
-17.18
-11.04
-4.26
2.28
7.81
12.05
15.22
17.84
20.30
22.71
24.87
26.46
27.23
27.12
26.25
24.84
23.12
21.31
19.70
18.58
18.31
19.11
20.95
23.50
26.14
28.14
28.91
28.21
26.12
23.11
19.81
16.87
14.87
14.17
14.91
16.97
19.94
23.17
25.81
26.99
26.07
22.93
18.03
12.40
7.28
3.62
1.74
1.14
0.78
-0.42
-3.11
-7.13
-11.54
-14.95
-16.01
-13.92
-8.86
-1.97
4.94
10.17
12.88
13.52
13.50
14.44
17.30
22.02
27.72
33.22
37.33
38.75
36.23
29.08
18.04
5.82
-3.55
-6.39
-1.51
8.70
19.13
24.38
21.44
10.97
-3.52
-17.88
-29.45
-37.84
-44.15
-49.46
-53.83
-56.32
-55.88
-52.21
-46.05
-38.71
-31.35
-24.36
-17.36
-9.77
-1.60
6.15
11.72
13.35
10.20
3.05
-5.83
-13.40
-16.97
-15.16
-8.35
1.60
12.15
20.98
26.62
28.74
27.93
25.26
21.90
18.78
16.61
15.71
16.07
17.21
18.21
17.87
15.11
9.49
1.57
-6.99
-13.92
-17.19
-15.87
-10.59
-3.34
3.38
7.63
8.83
7.79
6.07
4.94
4.71
4.61
3.41
0.32
-4.48
-9.91
-14.60
-17.63
-18.85
-18.80
-18.17
-17.42
-16.56
-15.39
-13.88
-12.34
-11.36
-11.53
-13.05
-15.59
-18.40
-20.51
-20.94
-18.95
-14.19
-6.90
1.95
10.80
17.80
21.47
21.19
17.42
11.56
5.37
0.47
-2.12
-2.03
0.55
5.09
10.87
17.06
22.74
27.06
29.38
29.46
27.58
24.35
20.63
17.19
14.49
12.59
11.17
9.66
7.39
3.83
-1.26
-7.65
-14.58
-20.89
-25.27
-26.64
-24.59
-19.55
-12.69
-5.70
-0.35
1.95
0.57
-4.01
-10.12
-15.15
-16.32
-11.75
-1.47
12.44
26.50
37.35
43.21
44.46
43.17
41.66
41.22
41.47
40.83
37.65
31.16
21.79
10.78
-0.59
-11.58
-21.93
-31.41
-39.34
-44.58
-46.00
-43.26
-37.34
-30.40
-24.96
-22.75
-23.83
-26.60
-28.53
-27.31
-21.93
-13.06
-2.60
7.15
14.46
18.62
19.84
18.81
16.20
12.43
7.70
2.23
-3.65
-9.53
-15.10
-20.24
-25.12
-29.90
-34.43
-37.87
-38.85
-35.92
-28.38
-16.76
-2.79
11.37
24.05
34.59
43.29
50.52
55.96
58.38
56.21
48.65
36.47
22.00
8.26
-2.31
-8.71
-11.51
-12.16
-12.23
-12.84
-14.60
-17.84
-22.77
-29.32
-36.74
-43.26
-46.16
-42.66
-31.05
-11.68
12.64
37.34
57.54
69.68
72.65
67.89
58.45
47.61
37.67
29.45
22.56
16.09
9.22
1.57
-6.91
-16.15
-26.07
-36.31
-45.90
-53.16
-56.11
-53.41
-45.34
-33.97
-22.58
-14.24
-10.45
-10.64
-12.66
-14.04
-13.21
-9.88
-4.77
1.15
7.18
12.83
17.45
20.05
19.53
15.32
7.90
-1.16
-9.77
-16.21
-19.69
-20.50
-19.60
-18.23
-17.50
-18.25
-20.66
-23.96
-26.34
-25.47
-19.54
-8.31
6.52
21.95
35.01
43.92
48.50
49.60
48.23
44.86
39.55
32.48
24.33
16.21
9.06
3.05
-2.48
-8.61
-16.09
-25.05
-34.98
-45.02
-54.09
-60.98
-64.29
-62.82
-56.06
-44.63
-30.24
-15.21
-1.61
9.33
17.37
22.85
25.95
26.39
23.51
16.90
7.05
-4.44
-15.18
-22.86
-26.15
-25.26
-21.85
-18.38
-17.00
-18.53
-22.01
-24.95
-24.42
-18.41
-6.66
9.13
26.10
41.29
52.63
59.26
61.23
58.97
52.82
42.95
29.83
14.54
-0.97
-14.33
-23.39
-27.03
-25.66
-21.04
-15.67
-11.91
-11.28
-14.13
-19.87
-27.17
-34.22
-38.87
-39.01
-33.34
-22.17
-7.79
6.33
16.99
22.80
24.78
25.40
26.85
29.58
32.03
31.85
27.63
19.95
11.08
3.60
-1.09
-3.38
-4.93
-7.53
-12.18
-18.86
-26.81
-34.78
-41.10
-43.83
-41.13
-32.23
-18.17
-1.77
13.38
24.55
31.06
34.33
36.70
39.77
43.37
45.83
45.20
40.70
33.28
25.03
17.96
12.89
9.20
5.50
0.63
-5.53
-11.89
-16.69
-18.38
-16.48
-11.88
-6.44
-2.20
-0.45
-1.36
-4.07
-7.38
-10.32
-12.60
-14.51
-16.55
-18.97
-21.52
-23.46
-23.82
-21.96
-17.89
-12.48
-7.18
-3.42
-2.02
-2.71
-4.37
-5.56
-5.34
-3.70
-1.42
0.40
1.08
0.71
-0.05
-0.39
0.11
1.27
2.51
3.19
2.99
2.00
0.62
-0.65
-1.47
-1.82
-1.84
-1.83
-2.01
-2.47
-3.16
-3.97
-4.80
-5.64
-6.47
-7.25
-7.87
-8.12
-7.79
-6.77
-5.11
-3.07
-1.07
0.47
1.28
1.32
0.82
0.14
-0.34
-0.41
-0.09
0.46
1.00
1.31
1.30
1.00
0.47
-0.15
-0.76
-1.20
-1.38
-1.26
-0.90
-0.48
-0.24
-0.44
-1.19
-2.43
-3.96
-5.43
-6.55
-7.18
-7.35
-7.28
-7.20
-7.25
-7.36
-7.33
-6.92
-6.07
-4.87
-3.62
-2.63
-2.12
-2.11
-2.47
-2.95
-3.37
-3.67
-3.92
-4.28
-4.88
-5.81
-7.05
-8.51
-10.10
-11.70
-13.25
-14.73
-16.13
-17.42
-18.53
-19.28
-19.46
-18.91
-17.59
-15.60
-13.21
-10.75
-8.51
-6.73
-5.56
-5.04
-5.12
-5.68
-6.45
-7.12
-7.42
-7.23
-6.61
-5.75
-4.88
-4.15
-3.60
-3.22
-2.92
-2.65
-2.39
-2.19
-2.14
-2.43
-3.21
-4.58
-6.55
-8.98
-11.65
-14.37
-17.00
-19.48
-21.72
-23.49
-24.37
-23.86
-21.54
-17.28
-11.36
-4.34
3.04
10.16
16.66
22.45
27.63
32.29
36.44
39.93
42.57
44.25
44.99
44.96
44.39
43.44
42.12
40.29
37.77
34.46
30.49
26.17
21.92
18.10
14.83
12.03
9.50
7.07
4.73
2.67
1.20
0.61
1.03
2.38
4.41
6.71
8.85
10.44
11.26
11.29
10.62
9.44
7.89
6.05
3.97
1.67
-0.78
-3.27
-5.67
-7.90
-9.97
-11.91
-13.74
-15.40
-16.74
-17.62
-18.00
-17.91
-17.47
-16.82
-16.09
-15.31
-14.53
-13.76
-12.96
-12.05
-10.89
-9.29
-7.17
-4.60
-1.76
1.12
3.84
6.37
8.80
11.25
13.85
16.72
20.07
24.09
29.01
34.88
41.43
48.05
53.86
58.00
59.92
59.48
57.00
53.02
48.09
42.68
37.05
31.52
26.44
22.25
19.31
17.69
17.11
17.00
16.74
15.97
14.63
12.95
11.20
9.51
7.86
6.16
4.41
2.76
1.51
0.94
1.19
2.13
3.46
4.73
5.53
5.67
5.25
4.68
4.53
5.39
7.58
11.09
15.57
20.44
25.12
29.09
32.01
33.58
33.61
31.95
28.62
23.93
18.43
12.87
8.00
4.36
2.08
0.85
-0.02
-1.34
-3.68
-7.23
-11.76
-16.81
-22.04
-27.39
-33.06
-39.32
-46.21
-53.36
-60.06
-65.55
-69.23
-70.88
-70.56
-68.48
-64.93
-60.28
-55.15
-50.39
-46.92
-45.34
-45.66
-47.22
-48.86
-49.45
-48.29
-45.37
-41.28
-36.85
-32.90
-29.91
-27.95
-26.86
-26.29
-25.86
-25.22
-24.15
-22.56
-20.57
-18.37
-16.25
-14.45
-13.11
-12.27
-11.82
-11.48
-10.76
-9.07
-5.96
-1.49
3.60
7.91
9.92
8.60
4.07
-2.43
-8.96
-13.63
-15.34
-14.06
-10.58
-6.10
-1.70
1.90
4.31
5.41
5.24
4.01
2.12
0.15
-1.23
-1.39
0.05
3.15
7.55
12.51
17.02
20.04
20.73
18.74
14.45
9.01
4.18
1.80
3.15
8.23
15.59
22.73
27.01
26.75
21.88
13.97
5.46
-1.29
-4.84
-4.97
-2.41
1.63
5.99
9.83
12.70
14.46
15.17
14.96
13.93
12.00
8.99
4.79
-0.49
-6.36
-12.15
-17.19
-21.26
-24.54
-27.52
-30.56
-33.52
-35.63
-35.74
-32.87
-26.71
-18.01
-8.46
-0.23
4.72
5.23
1.24
-6.15
-15.04
-23.00
-27.53
-26.49
-18.59
-4.03
15.32
36.20
54.91
68.53
75.85
77.60
75.70
72.22
68.46
64.82
61.18
57.54
54.20
51.48
49.10
45.91
40.20
30.49
16.39
-1.01
-19.38
-35.91
-48.21
-54.77
-55.20
-50.14
-41.12
-30.24
-19.72
-11.23
-5.42
-1.74
1.13
4.44
8.67
13.25
17.08
19.25
19.61
18.75
17.42
15.84
13.45
9.20
2.25
-7.27
-17.77
-26.43
-29.84
-25.15
-11.28
10.42
36.31
61.51
81.56
93.81
98.07
95.97
89.82
81.26
70.85
58.32
43.56
27.13
10.41
-5.14
-18.61
-30.11
-40.48
-50.51
-60.22
-68.56
-73.79
-74.31
-69.49
-59.87
-46.84
-32.03
-16.77
-1.98
11.62
23.31
32.40
38.51
41.86
43.17
43.25
42.39
40.11
35.59
28.46
19.63
11.33
6.66
8.48
18.45
36.41
60.27
86.27
109.65
125.58
130.19
121.72
101.17
72.13
39.82
9.51
-14.99
-32.20
-42.91
-49.50
-55.01
-62.28
-73.21
-88.23
-106.03
-123.75
-137.79
-144.90
-142.96
-131.38
-110.83
-82.98
-50.33
-16.48
13.99
36.20
46.43
43.65
30.20
11.01
-8.26
-23.42
-32.91
-37.62
-39.59
-40.53
-41.05
-40.77
-38.97
-35.30
-30.07
-24.20
-18.97
-15.69
-15.42
-18.71
-25.57
-35.55
-47.96
-62.20
-77.73
-93.86
-109.39
-122.51
-130.87
-132.27
-125.29
-109.81
-87.03
-59.07
-28.39
2.73
32.47
59.58
83.43
103.80
120.73
134.17
143.94
149.83
151.97
151.09
148.61
146.21
145.16
145.80
147.31
148.20
147.01
143.01
136.45
128.49
120.72
114.87
112.62
115.47
124.61
140.53
162.64
188.97
216.28
240.63
258.22
266.51
264.72
253.88
236.13
213.69
188.10
159.93
129.18
95.79
60.03
22.38
-16.83
-57.82
-101.24
-147.67
-196.79
-246.89
-294.84
-336.61
-368.23
-386.70
-390.77
-381.13
-360.04
-330.50
-295.08
-255.22
-211.15
-162.66
-110.17
-55.67
-2.66
44.66
82.45
108.34
121.60
122.91
113.68
95.96
72.50
46.73
22.12
0.85
-17.02
-33.51
-51.12
-70.88
-90.87
-106.45
-112.17
-104.29
-82.76
-51.35
-16.39
15.63
39.98
54.80
61.01
61.38
59.08
56.41
53.93
50.27
43.21
31.06
13.85
-6.38
-26.59
-44.11
-57.76
-67.88
-75.56
-81.49
-85.43
-86.43
-83.70
-77.36
-68.70
-59.71
-52.11
-46.59
-42.51
-38.26
-32.19
-23.47
-12.55
-1.06
8.83
15.23
17.22
15.09
10.18
4.20
-1.33
-5.59
-8.53
-10.66
-12.64
-14.92
-17.47
-19.87
-21.55
-22.14
-21.63
-20.35
-18.77
-17.33
-16.30
-15.81
-15.95
-16.73
-18.03
-19.51
-20.70
-21.20
-20.95
-20.37
-20.16
-20.93
-22.78
-25.34
-27.92
-29.93
-31.10
-31.43
-31.03
-29.87
-27.80
-24.67
-20.55
-15.76
-10.75
-5.84
-0.94
4.45
10.99
19.11
28.72
39.09
48.99
57.07
62.26
63.97
62.20
57.36
50.09
41.05
30.76
19.64
7.91
-4.28
-16.87
-29.79
-42.81
-55.50
-67.29
-77.49
-85.34
-90.06
-90.91
-87.39
-79.58
-68.27
-54.90
-41.19
-28.67
-18.22
-10.00
-3.49
1.94
6.56
10.18
12.45
13.16
12.39
10.49
8.00
5.57
3.61
2.09
0.61
-0.99
-2.62
-4.04
-5.08
-5.78
-6.15
-6.43
-7.07
-8.50
-10.28
-11.32
-10.28
-5.98
2.37
15.48
33.51
55.78
80.66
106.44
131.13
152.67
169.34
178.03
177.71
171.15
164.10
158.70
154.98
151.77
147.40
140.50
130.26
116.94
101.38
84.44
66.55
48.40
30.55
13.29
-3.21
-18.67
-32.22
-42.84
-49.97
-53.88
-55.18
-54.75
-53.49
-52.08
-50.81
-49.45
-47.76
-45.81
-44.08
-42.88
-42.33
-42.26
-42.32
-42.03
-40.92
-38.73
-35.60
-32.03
-28.57
-25.69
-23.64
-22.41
-21.71
-21.10
-20.22
-18.96
-17.54
-16.36
-15.80
-16.07
-17.13
-18.62
-20.07
-20.98
-21.03
-20.10
-18.39
-16.29
-14.29
-12.85
-12.17
-12.06
-11.94
-11.08
-8.83
-5.08
-0.35
4.30
7.58
8.49
6.66
2.59
-2.36
-6.23
-7.07
-3.47
4.81
16.70
30.12
42.69
52.55
58.95
62.24
63.35
63.14
61.84
58.99
53.72
45.20
33.04
17.53
-0.35
-18.86
-35.74
-48.68
-55.89
-56.74
-52.06
-43.91
-34.92
-27.38
-22.67
-21.07
-22.02
-24.60
-27.89
-31.15
-33.79
-35.26
-35.07
-32.94
-28.91
-23.43
-17.23
-11.21
-6.05
-2.06
0.92
3.32
5.54
7.72
9.62
10.83
11.06
10.49
9.72
9.55
10.49
12.48
14.76
16.25
16.00
13.60
9.43
4.35
-0.65
-4.75
-7.58
-9.16
-9.72
-9.51
-8.75
-7.62
-6.36
-5.28
-4.61
-4.38
-4.24
-3.60
-1.86
1.27
5.54
10.24
14.50
17.75
20.02
21.91
24.28
27.79
32.50
37.78
42.54
45.59
46.08
43.74
38.95
32.56
25.66
19.24
13.96
9.97
6.98
4.49
2.07
-0.40
-2.75
-4.59
-5.59
-5.60
-4.66
-2.91
-0.54
2.22
5.12
7.78
9.80
10.85
10.78
9.68
7.79
5.44
2.90
0.38
-1.96
-4.06
-5.86
-7.36
-8.58
-9.60
-10.52
-11.49
-12.67
-14.17
-15.97
-17.96
-19.97
-21.81
-23.41
-24.74
-25.84
-26.67
-27.18
-27.24
-26.77
-25.76
-24.34
-22.71
-21.11
-19.73
-18.70
-18.05
-17.70
-17.55
-17.45
-17.32
-17.07
-16.61
-15.86
-14.73
-13.16
-11.25
-9.17
-7.18
-5.53
-4.37
-3.73
-3.56
-3.73
-4.11
-4.60
-5.13
-5.69
-6.31
-7.01
-7.81
-8.72
-9.65
-10.53
-11.20
-11.58
-11.66
-11.52
-11.32
-11.22
-11.30
-11.44
-11.47
-11.21
-10.57
-9.64
-8.55
-7.46
-6.41
-5.40
-4.40
-3.45
-2.61
-1.93
-1.36
-0.72
0.19
1.54
3.32
5.32
7.24
8.75
9.63
9.83
9.44
8.67
7.72
6.75
5.85
5.03
4.36
3.91
3.78
4.04
4.67
5.55
6.47
7.18
7.52
7.43
6.92
6.12
5.13
4.11
3.20
2.55
2.23
2.27
2.59
3.06
3.50
3.70
3.53
2.93
2.00
0.94
-0.00
-0.62
-0.87
-0.81
-0.65
-0.59
-0.73
-1.08
-1.52
-1.98
-2.41
-2.83
-3.28
-3.74
-4.10
-4.22
-4.03
-3.56
-2.92
-2.27
-1.71
-1.28
-0.93
-0.63
-0.37
-0.19
-0.14
-0.20
-0.27
-0.27
-0.14
0.05
0.14
0.02
-0.37
-0.92
-1.47
-1.89
-2.14
-2.25
-2.29
-2.30
-2.27
-2.17
-2.03
-1.93
-1.97
-2.18
-2.52
-2.87
-3.13
-3.28
-3.39
-3.56
-3.84
-4.23
-4.66
-5.06
-5.41
-5.78
-6.27
-6.96
-7.84
-8.78
-9.57
-10.03
-10.07
-9.74
-9.21
-8.63
-8.07
-7.51
-6.82
-5.86
-4.62
-3.17
-1.69
-0.33
0.87
1.98
3.11
4.32
5.55
6.68
7.54
8.06
8.30
8.42
8.58
8.80
8.96
8.83
8.22
7.13
5.77
4.49
3.62
3.32
3.50
3.95
4.35
4.45
4.14
3.44
2.49
1.42
0.36
-0.67
-1.71
-2.84
-4.15
-5.70
-7.51
-9.52
-11.56
-13.38
-14.66
-15.12
-14.62
-13.20
-11.06
-8.53
-5.87
-3.27
-0.78
1.57
3.73
5.59
7.02
7.93
8.33
8.39
8.32
8.35
8.61
9.12
9.78
10.39
10.77
10.83
10.59
10.10
9.50
8.84
8.18
7.51
6.91
6.50
6.38
6.59
7.05
7.56
7.92
7.99
7.78
7.38
6.92
6.46
5.96
5.34
4.54
3.56
2.50
1.48
0.54
-0.35
-1.28
-2.32
-3.44
-4.47
-5.15
-5.26
-4.71
-3.61
-2.20
-0.79
0.40
1.25
1.84
2.29
2.72
3.17
3.63
4.07
4.44
4.71
4.84
4.84
4.75
4.65
4.63
4.76
5.01
5.32
5.59
5.76
5.84
5.90
6.03
6.22
6.39
6.40
6.17
5.69
5.06
4.44
3.90
3.43
2.99
2.45
1.73
0.78
-0.35
-1.62
-2.93
-4.21
-5.47
-6.81
-8.34
-10.06
-11.76
-13.06
-13.52
-12.84
-11.02
-8.39
-5.47
-2.72
-0.39
1.51
3.13
4.57
5.85
6.90
7.66
8.17
8.57
9.00
9.51
10.03
10.41
10.52
10.36
10.06
9.76
9.50
9.16
8.51
7.34
5.60
3.47
1.27
-0.70
-2.28
-3.56
-4.71
-5.93
-7.31
-8.82
-10.45
-12.10
-13.70
-15.17
-16.48
-17.62
-18.60
-19.36
-19.83
-19.91
-19.44
-18.37
-16.78
-14.94
-13.15
-11.66
-10.51
-9.61
-8.81
-7.89
-6.65
-5.06
-3.38
-1.94
-1.07
-0.77
-0.99
-1.57
-2.03
-1.90
-1.04
0.12
0.91
0.68
-0.53
-2.32
-4.11
-4.82
-3.58
-0.23
4.27
8.54
11.40
12.78
13.13
13.17
14.21
17.61
24.25
34.19
47.01
61.94
78.23
94.27
104.49
103.19
89.08
67.13
44.65
27.82
16.30
8.55
2.78
-2.60
-7.72
-12.34
-16.47
-20.91
-26.83
-35.02
-44.85
-54.88
-63.32
-68.10
-67.75
-62.03
-52.19
-40.22
-28.11
-16.86
-6.91
1.69
9.44
16.95
24.52
31.87
38.33
43.32
47.03
50.18
53.84
58.97
65.75
72.97
78.03
77.67
69.35
52.59
29.37
3.69
-19.49
-35.90
-43.17
-41.26
-32.00
-18.12
-2.25
13.54
27.76
39.37
47.45
51.34
50.75
45.88
37.56
26.96
15.33
3.67
-7.40
-17.75
-27.58
-37.17
-46.62
-55.65
-63.68
-69.96
-73.98
-75.60
-75.17
-73.31
-70.57
-67.35
-63.74
-59.76
-55.43
-50.85
-46.20
-41.61
-37.13
-32.73
-28.41
-24.17
-20.09
-16.16
-12.23
-8.12
-3.63
1.26
6.35
11.28
15.71
19.43
22.45
24.89
26.92
28.64
30.08
31.29
32.30
33.20
34.03
34.84
35.67
36.70
38.25
40.80
44.74
50.11
56.56
63.21
68.99
72.82
73.96
72.24
68.29
63.58
60.07
59.62
63.16
70.19
78.58
85.21
86.82
80.97
66.62
44.15
15.35
-16.96
-49.01
-76.69
-96.20
-104.95
-102.38
-90.01
-71.03
-49.15
-27.75
-9.19
5.22
14.81
19.24
18.17
11.38
-1.11
-18.67
-39.93
-62.70
-84.27
-101.91
-113.33
-117.37
-114.05
-104.49
-90.53
-74.32
-58.07
-43.79
-33.13
-26.92
-24.94
-25.77
-27.33
-27.71
-25.92
-22.08
-17.05
-11.82
-6.87
-2.20
2.47
7.14
11.49
14.91
16.94
17.42
16.39
13.92
9.85
4.05
-3.36
-11.67
-19.66
-26.05
-29.99
-31.42
-31.01
-29.93
-29.30
-29.84
-31.66
-34.44
-37.58
-40.59
-43.09
-44.83
-45.49
-44.55
-41.46
-35.84
-27.75
-17.84
-7.22
2.88
11.44
17.87
22.02
24.06
24.27
22.95
20.31
16.49
11.50
5.29
-2.00
-9.80
-16.87
-21.59
-22.48
-18.97
-11.85
-3.22
4.35
8.79
9.47
7.23
3.87
1.19
0.14
0.62
1.80
2.80
3.38
4.13
6.20
10.72
18.11
27.86
38.57
48.48
56.01
60.16
60.58
57.43
51.09
42.03
30.74
17.90
4.34
-9.09
-21.60
-32.61
-41.62
-48.06
-51.18
-50.18
-44.63
-34.85
-22.14
-8.53
3.78
13.06
18.54
20.32
19.04
15.33
9.49
1.55
-8.41
-19.80
-31.29
-41.01
-47.05
-48.04
-43.61
-34.46
-22.14
-8.61
4.19
14.75
22.15
26.07
26.66
24.33
19.57
12.82
4.71
-3.92
-11.82
-17.49
-19.64
-17.67
-11.87
-3.26
7.07
18.41
30.55
43.33
56.13
67.60
76.01
79.98
79.16
74.39
67.23
59.16
51.04
42.97
34.78
26.51
18.63
11.84
6.67
3.14
0.61
-1.85
-5.21
-10.00
-16.07
-22.51
-27.81
-30.31
-28.95
-23.72
-15.70
-6.51
2.47
10.52
17.48
22.99
26.07
25.17
19.07
7.97
-6.07
-19.59
-29.13
-32.63
-30.14
-23.52
-15.36
-7.91
-2.53
0.18
0.01
-3.11
-8.98
-16.89
-25.42
-32.55
-36.25
-34.93
-28.05
-16.21
-1.01
15.47
31.29
45.13
56.56
65.65
72.57
76.89
77.60
73.58
64.49
51.41
36.93
24.22
15.76
12.28
12.52
13.96
14.02
11.06
4.84
-3.82
-13.54
-22.95
-30.84
-36.31
-38.79
-37.96
-33.80
-26.44
-16.15
-3.42
10.79
24.84
36.43
43.14
43.17
36.22
23.80
8.92
-4.77
-14.08
-17.02
-13.21
-3.86
8.52
20.66
29.26
31.77
27.10
15.75
-0.34
-18.48
-35.85
-49.95
-58.89
-61.51
-57.42
-47.14
-31.98
-13.75
5.51
23.90
39.65
51.04
56.55
55.25
47.52
35.36
22.13
11.40
5.57
5.09
8.46
13.26
17.25
19.20
18.86
16.48
12.22
5.83
-3.13
-14.81
-28.62
-43.12
-56.34
-66.29
-71.32
-70.43
-63.22
-49.81
-30.83
-7.39
18.69
44.84
68.07
85.49
95.07
96.15
89.51
77.06
61.43
45.58
32.43
24.52
23.31
28.56
37.96
47.64
53.27
51.65
41.81
25.24
4.98
-15.71
-34.62
-50.83
-64.27
-74.87
-82.07
-84.94
-82.87
-76.12
-65.82
-53.54
-40.54
-27.57
-15.21
-4.48
3.00
5.53
2.41
-5.30
-14.83
-22.84
-26.93
-26.67
-23.52
-19.64
-16.61
-14.67
-12.98
-10.53
-7.16
-3.79
-2.02
-3.22
-7.84
-15.22
-24.00
-32.60
-39.61
-43.69
-43.58
-38.27
-27.54
-12.47
4.59
20.73
33.59
42.21
47.09
49.34
49.66
47.74
42.57
33.41
20.81
6.90
-5.23
-12.70
-13.98
-9.32
-0.47
10.09
20.05
27.77
32.64
34.92
35.25
34.23
32.09
28.70
23.76
17.20
9.35
0.95
-7.11
-14.17
-19.98
-24.74
-28.83
-32.49
-35.53
-37.50
-37.88
-36.51
-33.82
-30.49
-27.21
-24.19
-21.16
-17.59
-13.08
-7.70
-2.01
3.18
7.18
9.58
10.21
8.96
5.80
1.02
-4.31
-8.09
-7.59
-0.37
14.50
35.62
59.41
81.42
97.92
107.07
108.80
103.76
92.34
74.32
49.84
20.48
-10.23
-37.71
-58.15
-70.19
-75.39
-77.11
-78.55
-81.07
-83.75
-84.39
-81.06
-73.27
-62.18
-49.79
-37.90
-27.36
-18.07
-9.58
-1.75
4.77
8.81
9.44
6.61
1.57
-3.63
-6.95
-7.27
-4.74
-0.56
3.75
7.06
8.96
9.62
9.40
8.57
7.11
4.84
1.60
-2.60
-7.39
-11.94
-14.84
-14.24
-8.32
3.88
21.90
43.59
65.80
85.42
100.38
110.09
115.01
115.99
113.55
107.88
99.19
88.15
75.87
63.60
52.09
41.43
31.26
21.31
11.79
3.30
-3.59
-8.83
-13.02
-17.19
-22.33
-28.92
-36.78
-45.18
-53.08
-59.45
-63.50
-64.83
-63.50
-60.07
-55.47
-50.71
-46.53
-43.20
-40.48
-37.95
-35.39
-33.01
-31.33
-30.86
-31.71
-33.41
-35.11
-35.89
-35.14
-32.66
-28.64
-23.49
-17.75
-12.15
-7.62
-5.14
-5.55
-9.17
-15.67
-24.10
-33.21
-41.67
-48.34
-52.27
-52.66
-48.91
-40.72
-28.45
-13.21
3.20
18.80
32.15
42.87
51.63
59.60
67.61
75.50
82.10
85.86
85.84
82.32
76.80
71.37
67.71
66.38
66.74
67.39
66.83
64.06
58.72
50.98
41.29
30.08
17.61
4.05
-10.44
-25.49
-40.31
-53.67
-64.09
-70.23
-71.45
-67.94
-60.77
-51.36
-40.98
-30.49
-20.49
-11.68
-5.13
-2.13
-3.55
-9.25
-17.78
-26.74
-33.68
-36.94
-36.12
-31.96
-25.89
-19.43
-13.88
-10.22
-9.10
-10.89
-15.68
-23.23
-32.94
-43.76
-54.03
-61.53
-63.80
-58.75
-45.58
-25.41
-1.33
22.26
40.98
51.70
53.40
47.21
35.86
22.64
10.45
1.19
-4.54
-7.12
-7.50
-6.63
-5.15
-3.34
-1.38
0.38
1.19
0.12
-3.45
-9.38
-16.67
-23.83
-29.59
-33.47
-35.87
-37.58
-39.02
-39.79
-38.67
-34.36
-26.21
-14.64
-0.97
13.23
26.76
38.92
49.23
57.03
61.34
61.21
56.34
47.50
36.55
25.81
17.35
12.26
10.55
11.35
13.38
15.41
16.48
16.04
14.01
10.74
6.91
3.41
0.97
-0.04
0.22
1.19
2.19
2.79
2.88
2.72
2.66
3.18
4.88
8.54
14.84
23.87
34.33
43.48
47.80
44.57
33.42
16.93
-0.22
-13.24
-19.29
-18.48
-13.27
-6.84
-1.47
2.13
4.40
5.79
6.01
4.01
-1.23
-9.82
-20.54
-31.16
-39.37
-43.53
-43.25
-39.17
-32.62
-25.07
-17.73
-11.52
-6.90
-3.94
-2.24
-1.07
0.33
2.39
4.86
6.86
7.29
5.46
1.50
-3.59
-8.38
-11.66
-12.81
-11.87
-9.26
-5.47
-0.95
3.78
8.00
10.81
11.33
9.12
4.32
-2.29
-9.66
-16.71
-22.65
-27.01
-29.55
-30.21
-28.99
-25.97
-21.30
-15.33
-8.60
-1.88
3.95
8.16
10.43
11.08
10.90
10.95
12.14
14.78
18.56
22.66
26.11
28.26
29.00
28.84
28.70
29.43
31.47
34.56
37.84
40.05
39.98
36.87
30.58
21.55
10.68
-0.88
-11.98
-21.54
-28.75
-33.20
-34.95
-34.51
-32.70
-30.37
-28.23
-26.68
-25.87
-25.78
-26.27
-26.97
-27.05
-25.32
-20.47
-11.77
0.28
13.84
26.26
35.13
39.25
39.04
36.11
32.25
28.56
25.02
20.93
15.53
8.67
0.91
-6.78
-13.52
-18.89
-22.90
-25.84
-27.97
-29.36
-29.88
-29.34
-27.65
-25.12
-22.38
-20.27
-19.40
-19.83
-20.87
-21.28
-19.83
-15.78
-9.29
-1.41
6.34
12.47
16.06
17.01
15.94
13.83
11.52
9.41
7.36
4.77
1.06
-4.11
-10.62
-18.03
-25.79
-33.49
-40.85
-47.57
-53.14
-56.88
-58.20
-56.90
-53.38
-48.48
-43.13
-37.73
-31.99
-25.06
-16.14
-5.02
7.58
20.26
31.63
40.89
48.10
54.05
59.63
65.32
70.96
75.89
79.33
80.82
80.29
77.93
74.04
68.76
62.19
54.42
45.67
36.19
26.28
16.16
6.11
-3.45
-11.80
-18.01
-21.26
-21.18
-18.13
-13.03
-7.09
-1.45
2.96
5.33
4.96
1.43
-4.94
-12.77
-19.71
-23.21
-21.68
-15.30
-6.13
2.84
8.99
11.13
9.71
6.18
2.07
-1.80
-5.28
-8.59
-11.74
-14.39
-15.99
-16.22
-15.26
-13.78
-12.63
-12.43
-13.39
-15.24
-17.42
-19.23
-19.91
-18.76
-15.38
-10.07
-3.98
1.03
3.10
1.27
-3.95
-10.60
-16.08
-18.32
-16.64
-11.97
-6.27
-1.61
0.71
0.47
-1.71
-4.94
-8.46
-11.94
-15.39
-18.97
-22.74
-26.56
-30.03
-32.65
-33.93
-33.52
-31.36
-27.67
-23.02
-18.07
-13.46
-9.56
-6.48
-4.17
-2.62
-1.85
-1.83
-2.20
-2.13
-0.49
3.58
10.10
17.91
24.98
29.25
29.52
25.93
19.86
13.19
7.57
3.96
2.58
3.21
5.44
8.79
12.64
16.08
18.11
17.92
15.32
10.90
5.92
1.81
-0.17
0.57
3.86
8.65
13.23
15.62
14.26
8.70
-0.04
-9.64
-17.31
-20.88
-19.74
-14.94
-8.63
-3.10
0.08
0.49
-1.46
-4.91
-9.00
-12.94
-16.03
-17.62
-17.24
-14.75
-10.56
-5.57
-0.92
2.37
3.73
3.22
1.44
-0.81
-2.68
-3.46
-2.74
-0.33
3.52
8.21
12.69
15.84
16.84
15.57
12.74
9.65
7.58
7.26
8.53
10.48
11.92
11.86
9.88
6.11
1.13
-4.26
-9.15
-12.61
-13.86
-12.41
-8.37
-2.48
3.89
9.16
12.06
12.01
9.27
4.80
-0.10
-4.15
-6.38
-6.30
-4.02
-0.25
3.81
6.81
7.72
6.22
2.80
-1.38
-5.10
-7.49
-8.34
-7.97
-6.93
-5.67
-4.37
-3.04
-1.67
-0.32
0.88
1.86
2.68
3.53
4.65
6.25
8.34
10.72
13.01
14.64
15.12
14.15
11.78
8.54
5.30
3.02
2.29
3.10
4.76
6.23
6.57
5.32
2.68
-0.64
-3.72
-5.82
-6.50
-5.75
-3.88
-1.36
1.23
3.31
4.42
4.33
3.15
1.31
-0.57
-1.91
-2.36
-1.91
-0.89
0.20
0.82
0.61
-0.59
-2.73
-5.54
-8.61
-11.42
-13.44
-14.17
-13.29
-10.76
-6.96
-2.61
1.38
4.11
5.04
4.18
2.11
-0.21
-1.83
-2.12
-1.08
0.82
2.79
4.18
4.64
4.19
3.10
1.72
0.33
-0.85
-1.74
-2.39
-2.87
-3.25
-3.57
-3.73
-3.60
-3.00
-1.86
-0.21
1.83
4.16
6.73
9.44
12.16
14.60
16.46
17.60
18.25
18.94
20.33
22.78
26.20
29.93
33.04
34.67
34.33
32.05
28.34
23.99
19.84
16.52
14.29
12.93
11.92
10.54
8.27
4.94
0.75
-3.85
-8.40
-12.60
-16.35
-19.62
-22.36
-24.44
-25.76
-26.30
-26.20
-25.69
-24.94
-23.95
-22.50
-20.35
-17.40
-13.80
-9.95
-6.26
-3.01
-0.19
2.39
4.89
7.27
9.29
10.64
11.14
10.92
10.26
9.49
8.79
8.15
7.49
6.80
6.19
5.85
5.97
6.56
7.46
8.41
9.10
9.30
8.85
7.79
6.29
4.67
3.25
2.30
1.89
1.87
1.93
1.77
1.18
0.17
-1.12
-2.51
-3.85
-5.08
-6.12
-6.85
-7.11
-6.79
-5.84
-4.38
-2.52
-0.27
2.55
6.22
10.99
16.81
23.27
29.68
35.29
39.47
41.94
42.77
42.28
40.92
39.10
37.08
34.95
32.61
29.84
26.47
22.40
17.74
12.77
7.87
3.47
-0.09
-2.64
-4.16
-4.79
-4.76
-4.30
-3.68
-3.16
-3.05
-3.59
-4.91
-6.87
-9.16
-11.41
-13.37
-15.11
-17.03
-19.61
-23.12
-27.40
-31.79
-35.41
-37.51
-37.72
-36.17
-33.37
-30.01
-26.77
-24.19
-22.57
-21.94
-22.04
-22.34
-22.28
-21.44
-19.77
-17.62
-15.56
-14.03
-13.09
-12.41
-11.46
-9.78
-7.27
-4.12
-0.70
2.67
5.83
8.75
11.38
13.58
15.11
15.81
15.71
15.06
14.16
13.21
12.14
10.70
8.58
5.58
1.78
-2.44
-6.45
-9.50
-10.97
-10.59
-8.71
-6.23
-4.39
-4.27
-6.22
-9.71
-13.49
-16.20
-16.93
-15.63
-12.95
-9.81
-6.93
-4.61
-2.90
-1.92
-1.98
-3.46
-6.52
-10.72
-15.09
-18.50
-20.19
-20.15
-19.08
-17.99
-17.73
-18.55
-20.13
-21.86
-23.25
-24.09
-24.46
-24.52
-24.26
-23.51
-22.02
-19.70
-16.66
-13.28
-9.98
-7.09
-4.71
-2.75
-1.01
0.68
2.37
4.02
5.52
6.90
8.30
10.01
12.37
15.70
20.08
25.34
31.07
36.66
41.49
44.98
46.71
46.41
44.05
39.78
34.01
27.34
20.48
14.17
9.00
5.28
2.99
1.82
1.27
0.86
0.27
-0.62
-1.76
-3.02
-4.33
-5.68
-7.10
-8.53
-9.82
-10.68
-10.86
-10.21
-8.86
-7.12
-5.41
-4.10
-3.31
-2.95
-2.74
-2.40
-1.79
-1.04
-0.42
-0.25
-0.70
-1.70
-3.02
-4.35
-5.42
-6.04
-6.04
-5.32
-3.92
-2.15
-0.52
0.31
-0.12
-1.91
-4.64
-7.61
-10.04
-11.43
-11.65
-10.84
-9.30
-7.34
-5.16
-2.90
-0.61
1.68
4.02
6.42
8.79
10.94
12.58
13.50
13.64
13.07
12.04
10.77
9.48
8.26
7.14
6.11
5.05
3.80
2.16
-0.06
-2.97
-6.53
-10.55
-14.70
-18.58
-21.77
-23.96
-24.91
-24.63
-23.27
-21.16
-18.71
-16.34
-14.36
-12.97
-12.22
-12.08
-12.42
-13.14
-14.09
-15.13
-16.10
-16.74
-16.80
-16.10
-14.59
-12.44
-9.99
-7.63
-5.66
-4.20
-3.28
-2.85
-2.97
-3.70
-4.99
-6.54
-7.79
-8.05
-6.82
-4.00
0.02
4.50
8.69
12.03
14.33
15.67
16.25
16.26
15.81
14.98
13.87
12.65
11.50
10.59
10.12
10.16
10.80
11.90
13.20
14.26
14.57
13.81
11.92
9.15
5.99
2.94
0.39
-1.49
-2.72
-3.42
-3.77
-3.85
-3.63
-2.89
-1.26
1.64
5.99
11.57
17.69
23.35
27.53
29.62
29.52
27.65
24.65
21.15
17.51
13.92
10.46
7.28
4.59
2.56
1.26
0.59
0.34
0.24
0.08
-0.23
-0.69
-1.26
-1.97
-2.92
-4.22
-5.96
-8.13
-10.52
-12.79
-14.55
-15.48
-15.48
-14.68
-13.44
-12.27
-11.65
-11.85
-12.90
-14.55
-16.44
-18.22
-19.71
-20.91
-21.85
-22.55
-22.96
-22.93
-22.43
-21.50
-20.29
-18.94
-17.42
-15.60
-13.29
-10.58
-7.86
-5.80
-4.98
-5.59
-7.14
-8.62
-8.88
-7.18
-3.49
1.44
6.50
10.63
13.19
14.07
13.48
11.75
9.24
6.30
3.45
1.30
0.46
1.16
3.18
5.69
7.60
7.97
6.42
3.32
-0.37
-3.57
-5.50
-6.07
-5.84
-5.71
-6.39
-8.05
-10.23
-12.04
-12.63
-11.53
-8.82
-5.08
-1.11
2.39
4.99
6.60
7.36
7.55
7.39
7.03
6.51
5.88
5.21
4.59
4.20
4.16
4.52
5.22
6.08
6.88
7.40
7.50
7.13
6.35
5.24
3.87
2.33
0.71
-0.75
-1.67
-1.64
-0.39
2.06
5.34
8.83
11.91
14.21
15.68
16.52
16.99
17.24
17.31
17.12
16.68
16.08
15.47
14.94
14.45
13.88
13.12
12.13
10.98
9.76
8.53
7.25
5.78
4.02
1.90
-0.54
-3.11
-5.53
-7.46
-8.59
-8.71
-7.81
-6.02
-3.64
-1.03
1.53
3.78
5.58
6.84
7.48
7.50
6.98
6.07
4.99
3.94
3.05
2.41
2.06
2.00
2.20
2.55
2.89
3.08
2.99
2.52
1.61
0.18
-1.84
-4.39
-7.22
-9.85
-11.73
-12.41
-11.77
-10.07
-7.83
-5.57
-3.60
-1.97
-0.51
0.91
2.29
3.44
4.17
4.39
4.17
3.78
3.46
3.32
3.37
3.46
3.42
3.10
2.48
1.58
0.43
-0.94
-2.52
-4.37
-6.50
-8.89
-11.37
-13.69
-15.50
-16.48
-16.44
-15.31
-13.21
-10.32
-6.94
-3.40
-0.07
2.73
4.74
5.94
6.53
6.87
7.33
8.07
9.03
9.89
10.40
10.44
10.18
9.93
9.94
10.23
10.53
10.50
9.86
8.59
6.84
4.87
2.87
0.93
-0.90
-2.46
-3.46
-3.58
-2.63
-0.71
1.77
4.27
6.23
7.37
7.66
7.27
6.46
5.41
4.24
2.97
1.64
0.34
-0.83
-1.77
-2.49
-3.13
-3.85
-4.74
-5.77
-6.79
-7.67
-8.37
-8.95
-9.57
-10.33
-11.25
-12.31
-13.51
-14.86
-16.39
-17.99
-19.40
-20.25
-20.21
-19.17
-17.31
-15.01
-12.69
-10.67
-9.08
-7.88
-7.05
-6.58
-6.45
-6.64
-7.01
-7.33
-7.39
-7.02
-6.17
-4.87
-3.19
-1.18
1.13
3.71
6.49
9.36
12.17
14.73
16.88
18.52
19.63
20.28
20.54
20.46
20.06
19.42
18.75
18.35
18.51
19.35
20.70
22.13
23.16
23.47
23.05
22.16
21.11
20.12
19.16
18.10
16.82
15.37
13.91
12.71
11.91
11.51
11.32
11.05
10.43
9.27
7.53
5.36
2.97
0.63
-1.51
-3.43
-5.27
-7.20
-9.30
-11.44
-13.27
-14.41
-14.59
-13.83
-12.37
-10.63
-8.99
-7.69
-6.78
-6.17
-5.77
-5.48
-5.28
-5.12
-4.94
-4.59
-3.92
-2.79
-1.24
0.58
2.34
3.76
4.72
5.36
6.00
6.95
8.37
10.08
11.74
12.95
13.47
13.29
12.47
11.19
9.63
8.05
6.83
6.39
7.06
8.87
11.46
14.20
16.45
17.77
18.10
17.69
16.91
16.07
15.32
14.65
13.99
13.29
12.54
11.71
10.83
9.85
8.79
7.65
6.44
5.20
3.97
2.76
1.64
0.73
0.06
-0.37
-0.73
-1.24
-2.13
-3.50
-5.28
-7.22
-8.97
-10.16
-10.51
-9.92
-8.46
-6.39
-4.05
-1.78
0.15
1.67
2.78
3.60
4.20
4.56
4.66
4.48
4.09
3.60
3.20
3.00
3.03
3.19
3.33
3.31
3.14
2.91
2.77
2.88
3.24
3.79
4.40
5.01
5.60
6.22
6.87
7.54
8.26
9.15
10.46
12.45
15.26
18.80
22.74
26.70
30.40
33.83
37.19
40.81
44.93
49.60
54.67
59.88
64.99
69.99
75.06
80.56
86.85
94.13
102.25
110.70
118.61
124.98
128.84
129.49
126.65
120.42
111.27
99.85
86.85
72.87
58.28
43.14
27.24
10.22
-8.20
-28.02
-48.79
-69.62
-89.36
-106.92
-121.52
-132.80
-140.89
-146.17
-149.09
-149.94
-148.79
-145.40
-139.51
-131.01
-120.12
-107.43
-93.71
-79.65
-65.63
-51.74
-37.98
-24.56
-12.00
-1.04
7.59
13.58
17.11
18.84
19.63
20.18
20.81
21.39
21.51
20.75
19.01
16.74
14.78
14.06
15.27
18.51
23.30
28.85
34.42
39.56
44.26
48.63
52.72
56.32
58.98
60.18
59.54
56.89
52.29
45.92
38.04
28.94
18.88
8.21
-2.70
-13.47
-23.73
-33.17
-41.53
-48.67
-54.57
-59.38
-63.42
-67.08
-70.66
-74.29
-77.77
-80.69
-82.52
-82.81
-81.36
-78.32
-74.14
-69.35
-64.49
-59.86
-55.62
-51.82
-48.46
-45.63
-43.36
-41.66
-40.37
-39.30
-38.27
-37.19
-36.16
-35.33
-34.86
-34.81
-35.09
-35.42
-35.52
-35.15
-34.23
-32.88
-31.36
-29.91
-28.69
-27.68
-26.73
-25.74
-24.64
-23.47
-22.22
-20.80
-19.07
-16.86
-14.16
-11.17
-8.17
-5.46
-3.18
-1.32
0.20
1.48
2.56
3.48
4.27
4.99
5.63
6.20
6.57
6.68
6.45
5.97
5.42
5.01
4.90
5.11
5.49
5.80
5.74
5.09
3.77
1.87
-0.36
-2.54
-4.24
-5.10
-4.95
-3.88
-2.14
-0.10
1.90
3.65
5.06
6.12
6.78
6.96
6.64
5.86
4.78
3.64
2.69
2.08
1.83
1.80
1.81
1.68
1.29
0.59
-0.44
-1.73
-3.19
-4.71
-6.16
-7.46
-8.61
-9.68
-10.78
-11.93
-12.99
-13.68
-13.63
-12.62
-10.67
-8.09
-5.37
-2.99
-1.23
-0.12
0.57
1.08
1.60
2.17
2.74
3.30
3.84
4.44
5.09
5.74
6.28
6.65
6.91
7.24
7.88
8.91
10.19
11.37
12.10
12.20
11.68
10.65
9.23
7.53
5.66
3.87
2.55
2.15
2.93
4.89
7.68
10.73
13.50
15.63
17.00
17.66
17.71
17.30
16.54
15.62
14.70
13.96
13.46
13.13
12.78
12.16
11.06
9.44
7.45
5.42
3.71
2.59
2.10
2.03
2.02
1.71
0.88
-0.46
-2.18
-4.03
-5.78
-7.24
-8.26
-8.62
-8.18
-6.92
-5.00
-2.75
-0.54
1.37
2.89
4.15
5.32
6.47
7.56
8.39
8.81
8.80
8.47
8.07
7.81
7.80
7.97
8.16
8.15
7.82
7.20
6.44
5.81
5.48
5.47
5.53
5.29
4.41
2.77
0.51
-2.05
-4.53
-6.61
-8.10
-8.84
-8.63
-7.40
-5.19
-2.32
0.70
3.32
5.18
6.21
6.56
6.48
6.11
5.41
4.34
2.99
1.61
0.58
0.21
0.55
1.35
2.25
2.91
3.28
3.45
3.63
3.89
4.14
4.15
3.76
2.93
1.79
0.50
-0.80
-2.04
-3.14
-3.83
-3.74
-2.47
0.08
3.54
7.13
9.95
11.40
11.45
10.64
9.77
9.45
9.78
10.37
10.62
10.11
8.83
7.19
5.74
4.85
4.58
4.73
5.02
5.29
5.51
5.78
6.10
6.41
6.56
6.43
6.00
5.31
4.41
3.28
1.89
0.25
-1.45
-2.87
-3.61
-3.34
-2.02
0.19
2.89
5.65
8.10
9.99
11.25
11.83
11.79
11.15
10.03
8.54
6.88
5.21
3.71
2.47
1.48
0.64
-0.18
-1.12
-2.22
-3.41
-4.47
-5.16
-5.26
-4.75
-3.76
-2.62
-1.72
-1.38
-1.70
-2.56
-3.60
-4.38
-4.56
-4.02
-2.88
-1.42
0.01
1.18
1.96
2.31
2.29
2.01
1.62
1.30
1.15
1.23
1.42
1.61
1.65
1.51
1.24
0.95
0.72
0.61
0.58
0.50
0.17
-0.64
-2.05
-4.02
-6.29
-8.47
-10.14
-11.02
-10.93
-9.78
-7.52
-4.10
0.35
5.53
10.89
15.78
19.66
22.20
23.21
22.58
20.13
15.76
9.68
2.61
-4.25
-9.53
-12.12
-11.66
-8.67
-4.40
-0.32
2.41
3.29
2.54
0.87
-1.00
-2.60
-3.89
-5.13
-6.57
-8.30
-10.06
-11.40
-11.85
-11.06
-8.96
-5.67
-1.47
3.27
8.01
12.13
14.91
15.83
14.75
12.03
8.53
5.26
3.11
2.49
3.29
5.01
7.01
8.72
9.70
9.66
8.40
5.90
2.39
-1.57
-5.23
-7.86
-9.12
-9.12
-8.47
-7.98
-8.31
-9.77
-12.20
-15.10
-17.73
-19.31
-19.10
-16.56
-11.56
-4.55
3.33
10.51
15.36
16.83
14.85
10.40
5.14
0.82
-1.34
-1.05
1.11
4.09
6.77
8.43
8.86
8.24
6.94
5.26
3.29
1.10
-1.17
-3.11
-4.17
-3.92
-2.36
-0.01
2.27
3.63
3.64
2.51
0.82
-0.71
-1.57
-1.57
-0.69
1.07
3.69
6.96
10.26
12.70
13.48
12.37
9.99
7.62
6.55
7.38
9.73
12.42
14.19
14.37
13.12
11.30
9.80
9.15
9.23
9.48
9.20
7.91
5.48
2.10
-1.82
-5.77
-9.29
-11.96
-13.41
-13.28
-11.31
-7.48
-2.12
4.01
9.92
14.76
18.19
20.42
22.08
23.68
25.22
26.09
25.39
22.45
17.35
11.14
5.48
2.04
1.81
4.67
9.40
14.20
17.38
18.03
16.20
12.65
8.34
3.99
-0.01
-3.32
-5.34
-5.15
-1.83
4.97
14.69
25.96
37.17
47.27
56.23
64.99
75.02
87.50
102.75
119.86
136.77
150.68
158.76
158.91
150.42
134.21
112.53
88.30
64.31
42.64
24.44
10.10
-0.44
-7.45
-11.34
-12.64
-12.01
-10.10
-7.37
-3.93
0.46
6.33
14.17
24.16
35.72
47.34
56.68
61.06
58.21
47.11
28.33
3.90
-23.37
-50.73
-76.22
-98.88
-118.48
-135.03
-148.29
-157.70
-162.67
-163.02
-159.26
-152.50
-144.21
-135.65
-127.69
-120.77
-115.08
-110.88
-108.47
-108.09
-109.67
-112.62
-115.90
-118.20
-118.19
-114.65
-106.67
-93.76
-76.09
-54.56
-30.69
-6.19
17.47
39.24
58.44
74.27
85.78
92.03
92.70
88.56
81.59
74.52
69.96
69.69
74.24
82.98
94.31
106.06
115.76
121.11
120.53
113.57
101.11
85.03
67.69
51.12
36.81
25.52
17.46
12.37
9.51
7.67
5.44
1.69
-4.05
-11.40
-19.31
-26.67
-32.87
-38.06
-42.69
-47.14
-51.37
-54.96
-57.74
-60.33
-64.13
-70.60
-80.12
-91.34
-101.51
-107.61
-107.68
-101.58
-90.75
-77.27
-62.86
-48.45
-34.39
-21.07
-9.05
1.06
9.21
16.17
23.28
31.86
42.44
54.46
66.53
77.05
84.85
89.54
91.59
92.07
91.94
91.63
90.77
88.41
83.68
76.32
66.99
57.05
47.97
40.85
36.22
34.03
33.76
34.37
34.16
31.03
23.28
10.67
-4.87
-19.65
-29.74
-32.97
-30.26
-25.18
-22.06
-23.81
-30.52
-39.87
-48.73
-54.74
-57.14
-56.40
-53.42
-49.19
-44.93
-42.46
-43.91
-50.74
-62.60
-76.81
-89.34
-96.44
-96.50
-90.53
-81.41
-72.12
-64.35
-58.01
-51.92
-45.06
-37.39
-29.96
-24.25
-21.26
-20.97
-22.43
-24.20
-25.16
-24.96
-23.92
-22.63
-21.38
-19.92
-17.69
-14.38
-10.38
-6.90
-5.49
-7.32
-12.56
-20.24
-28.52
-35.39
-39.35
-39.78
-37.05
-32.13
-26.21
-20.30
-14.93
-10.19
-5.83
-1.57
2.69
6.71
9.99
12.00
12.35
10.96
8.01
3.97
-0.55
-4.77
-7.82
-8.91
-7.54
-3.83
1.49
7.13
11.72
14.22
14.25
12.07
8.43
4.20
0.17
-3.18
-5.66
-7.34
-8.42
-9.08
-9.37
-9.17
-8.30
-6.70
-4.51
-2.10
0.09
1.75
2.84
3.47
3.80
3.83
3.37
2.18
0.24
-2.19
-4.57
-6.31
-7.05
-6.75
-5.76
-4.59
-3.74
-3.51
-3.94
-4.92
-6.19
-7.48
-8.52
-9.08
-8.97
-8.12
-6.68
-4.88
-3.07
-1.50
-0.24
0.76
1.66
2.52
3.27
3.71
3.64
3.07
2.17
1.30
0.77
0.78
1.27
1.95
2.46
2.53
2.07
1.23
0.25
-0.65
-1.41
-2.14
-3.08
-4.37
-6.04
-7.92
-9.76
-11.30
-12.41
-13.03
-13.18
-12.80
-11.85
-10.29
-8.18
-5.73
-3.23
-0.99
0.87
2.34
3.54
4.61
5.57
6.37
6.89
7.05
6.84
6.32
5.59
4.75
3.89
3.11
2.51
2.15
2.00
1.97
1.92
1.81
1.65
1.57
1.62
1.80
1.92
1.74
0.99
-0.37
-2.17
-4.10
-5.79
-6.94
-7.34
-6.96
-5.77
-3.89
-1.48
1.17
3.75
5.96
7.58
8.59
9.12
9.40
9.63
9.93
10.29
10.57
10.67
10.54
10.27
9.95
9.68
9.43
9.11
8.58
7.77
6.75
5.70
4.85
4.36
4.25
4.41
4.62
4.66
4.32
3.46
1.99
-0.12
-2.84
-5.92
-8.98
-11.49
-12.92
-12.94
-11.54
-9.03
-5.93
-2.76
0.12
2.53
4.41
5.73
6.42
6.41
5.67
4.36
2.71
1.05
-0.41
-1.56
-2.43
-3.09
-3.57
-3.89
-4.01
-3.96
-3.86
-3.85
-4.07
-4.53
-5.16
-5.78
-6.31
-6.76
-7.23
-7.81
-8.54
-9.26
-9.73
-9.70
-8.98
-7.53
-5.47
-3.06
-0.62
1.56
3.29
4.56
5.47
6.20
6.83
7.36
7.64
7.58
7.20
6.64
6.13
5.78
5.58
5.36
4.95
4.32
3.60
2.95
2.47
2.12
1.72
1.16
0.42
-0.34
-0.91
-1.28
-1.59
-2.17
-3.24
-4.82
-6.58
-7.99
-8.51
-7.81
-5.92
-3.14
0.02
3.10
5.74
7.81
9.32
10.35
10.97
11.18
10.99
10.42
9.58
8.62
7.73
7.08
6.72
6.60
6.58
6.49
6.16
5.58
4.77
3.82
2.82
1.76
0.67
-0.49
-1.67
-2.87
-4.05
-5.28
-6.68
-8.34
-10.27
-12.32
-14.18
-15.43
-15.67
-14.71
-12.60
-9.67
-6.43
-3.35
-0.74
1.30
2.91
4.21
5.31
6.21
6.88
7.33
7.66
8.00
8.40
8.88
9.35
9.76
10.02
10.11
9.98
9.53
8.69
7.45
5.91
4.21
2.56
1.11
-0.15
-1.32
-2.54
-3.94
-5.59
-7.39
-9.14
-10.53
-11.30
-11.22
-10.18
-8.24
-5.60
-2.55
0.56
3.41
5.75
7.46
8.55
9.11
9.26
9.11
8.72
8.10
7.30
6.43
5.65
5.10
4.81
4.59
4.21
3.46
2.28
0.78
-0.77
-2.09
-3.07
-3.74
-4.32
-5.00
-5.96
-7.27
-8.88
-10.72
-12.65
-14.50
-16.00
-16.91
-16.93
-15.92
-13.84
-10.89
-7.49
-4.13
-1.27
0.84
2.20
3.03
3.56
4.01
4.48
4.97
5.52
6.10
6.73
7.31
7.73
7.85
7.65
7.19
6.64
6.15
5.78
5.49
5.21
4.88
4.46
3.97
3.39
2.69
1.87
0.89
-0.27
-1.68
-3.42
-5.60
-8.18
-10.98
-13.54
-15.26
-15.56
-14.11
-10.96
-6.58
-1.66
3.07
7.06
10.10
12.21
13.58
14.39
14.74
14.68
14.24
13.50
12.59
11.66
10.77
9.91
8.99
7.91
6.61
5.17
3.79
2.67
1.98
1.78
1.89
2.13
2.25
2.13
1.72
1.12
0.43
-0.34
-1.22
-2.36
-3.92
-6.06
-8.85
-12.18
-15.73
-18.93
-21.12
-21.68
-20.31
-17.16
-12.73
-7.74
-2.85
1.43
4.87
7.35
8.90
9.60
9.63
9.28
8.86
8.64
8.73
9.10
9.62
10.22
10.86
11.57
12.35
13.04
13.44
13.33
12.54
11.04
8.88
6.23
3.32
0.44
-2.10
-4.10
-5.46
-6.33
-6.99
-7.78
-8.99
-10.75
-12.92
-15.21
-17.15
-18.25
-18.13
-16.64
-13.89
-10.27
-6.23
-2.17
1.67
5.22
8.45
11.32
13.71
15.51
16.67
17.28
17.50
17.53
17.46
17.32
17.07
16.68
16.21
15.73
15.28
14.88
14.41
13.73
12.76
11.49
9.97
8.25
6.35
4.28
2.08
-0.09
-2.05
-3.73
-5.24
-6.94
-9.17
-12.09
-15.40
-18.42
-20.32
-20.43
-18.54
-14.93
-10.24
-5.22
-0.59
3.18
5.84
7.36
7.86
7.58
6.79
5.75
4.65
3.67
2.88
2.43
2.39
2.81
3.66
4.81
6.08
7.28
8.23
8.83
9.03
8.79
8.02
6.61
4.49
1.65
-1.71
-5.28
-8.77
-11.99
-14.92
-17.54
-19.75
-21.27
-21.66
-20.59
-18.01
-14.25
-9.92
-5.69
-2.07
0.70
2.67
4.05
5.11
6.06
6.97
7.82
8.49
8.91
9.04
8.99
8.87
8.75
8.60
8.29
7.69
6.72
5.44
3.96
2.33
0.53
-1.55
-4.05
-7.06
-10.55
-14.43
-18.57
-22.83
-27.01
-30.80
-33.79
-35.48
-35.42
-33.34
-29.38
-23.98
-17.88
-11.87
-6.53
-2.19
1.12
3.54
5.21
6.22
6.61
6.44
5.90
5.28
4.92
5.08
5.82
7.00
8.29
9.37
9.94
9.88
9.19
7.99
6.45
4.71
2.93
1.19
-0.50
-2.20
-4.10
-6.41
-9.29
-12.74
-16.45
-19.81
-22.05
-22.39
-20.34
-15.87
-9.49
-2.10
5.23
11.58
16.44
19.77
21.98
23.74
25.60
27.80
30.09
31.91
32.57
31.64
29.12
25.46
21.40
17.65
14.77
13.04
12.55
13.27
15.05
17.59
20.35
22.64
23.69
23.00
20.41
16.21
11.02
5.53
0.22
-4.70
-9.28
-13.65
-17.82
-21.53
-24.25
-25.36
-24.37
-21.16
-16.11
-9.99
-3.76
1.80
6.31
9.85
12.80
15.51
18.17
20.66
22.68
23.95
24.36
23.99
23.10
21.97
20.76
19.56
18.34
17.07
15.72
14.30
12.81
11.23
9.54
7.69
5.66
3.41
0.92
-1.90
-5.16
-8.96
-13.25
-17.72
-21.77
-24.62
-25.61
-24.43
-21.28
-16.72
-11.49
-6.24
-1.36
3.01
6.90
10.37
13.49
16.26
18.71
20.82
22.62
24.10
25.24
26.02
26.39
26.29
25.69
24.62
23.22
21.79
20.66
20.02
19.87
19.86
19.52
18.39
16.28
13.34
10.00
6.77
4.01
1.73
-0.35
-2.67
-5.65
-9.46
-13.98
-18.75
-23.12
-26.34
-27.75
-26.97
-24.04
-19.37
-13.71
-7.86
-2.52
1.97
5.54
8.41
10.82
12.98
14.98
16.80
18.40
19.70
20.62
21.09
21.06
20.58
19.80
18.96
18.28
17.88
17.76
17.78
17.77
17.60
17.16
16.44
15.42
14.12
12.57
10.90
9.27
7.83
6.60
5.44
4.19
2.70
1.03
-0.62
-2.06
-3.20
-4.22
-5.44
-7.20
-9.76
-13.12
-17.05
-21.11
-24.73
-27.23
-28.04
-26.80
-23.51
-18.60
-12.76
-6.76
-1.21
3.58
7.58
10.93
13.78
16.20
18.14
19.55
20.37
20.66
20.59
20.34
20.03
19.68
19.17
18.40
17.32
16.03
14.76
13.69
12.88
12.22
11.49
10.48
9.08
7.33
5.34
3.28
1.26
-0.62
-2.35
-3.98
-5.60
-7.37
-9.42
-11.87
-14.68
-17.73
-20.74
-23.30
-24.96
-25.30
-24.11
-21.41
-17.60
-13.24
-8.97
-5.22
-2.15
0.36
2.49
4.37
6.00
7.25
8.06
8.49
8.67
8.84
9.08
9.40
9.67
9.78
9.67
9.36
8.96
8.53
8.13
7.70
7.14
6.28
5.03
3.38
1.46
-0.57
-2.51
-4.28
-5.94
-7.57
-9.30
-11.20
-13.32
-15.63
-18.09
-20.58
-22.85
-24.48
-24.95
-23.86
-21.05
-16.80
-11.75
-6.71
-2.37
0.98
3.46
5.44
7.32
9.29
11.25
12.93
14.11
14.67
14.69
14.31
13.66
12.79
11.74
10.57
9.40
8.40
7.67
7.26
7.08
7.00
6.84
6.44
5.66
4.42
2.76
0.79
-1.23
-3.08
-4.56
-5.68
-6.57
-7.46
-8.54
-9.91
-11.55
-13.44
-15.64
-18.24
-21.24
-24.40
-27.15
-28.70
-28.42
-26.14
-22.22
-17.44
-12.66
-8.43
-4.92
-1.97
0.60
2.88
4.81
6.31
7.40
8.19
8.86
9.50
10.10
10.53
10.66
10.43
9.92
9.28
8.73
8.44
8.50
8.87
9.34
9.66
9.63
9.14
8.19
6.92
5.49
4.11
2.96
2.11
1.55
1.03
0.27
-1.04
-3.04
-5.65
-8.59
-11.48
-14.00
-15.89
-17.08
-17.59
-17.61
-17.48
-17.65
-18.48
-19.99
-21.85
-23.37
-23.84
-22.74
-20.11
-16.41
-12.31
-8.48
-5.28
-2.83
-0.97
0.41
1.49
2.34
3.05
3.72
4.43
5.24
6.05
6.81
7.38
7.77
7.98
8.09
8.15
8.09
7.90
7.47
6.86
6.10
5.31
4.50
3.60
2.47
0.98
-0.89
-3.03
-5.17
-7.02
-8.40
-9.27
-9.81
-10.28
-11.00
-12.16
-13.91
-16.20
-18.86
-21.46
-23.40
-24.10
-23.10
-20.42
-16.43
-11.86
-7.38
-3.52
-0.45
1.90
3.65
4.90
5.62
5.86
5.72
5.45
5.27
5.34
5.66
6.13
6.64
7.09
7.46
7.76
8.04
8.37
8.86
9.64
10.81
12.37
14.10
15.62
16.38
15.96
14.18
11.20
7.60
4.11
1.42
-0.19
-0.90
-1.34
-2.26
-4.21
-7.16
-10.51
-13.35
-14.96
-15.29
-15.04
-15.28
-16.60
-18.70
-20.47
-20.72
-19.16
-16.77
-15.39
-16.68
-21.31
-28.95
-39.03
-51.83
-68.33
-88.97
-111.75
-131.43
-140.62
-132.89
-106.15
-64.32
-16.24
27.81
59.86
76.74
79.69
72.29
58.15
39.79
19.29
-0.58
-15.91
-22.94
-20.07
-9.52
3.03
10.81
9.21
-1.97
-18.50
-33.97
-42.86
-42.47
-33.29
-17.68
1.71
22.75
43.76
62.88
78.03
87.42
90.59
88.98
85.55
83.77
86.13
93.42
104.44
116.63
126.76
131.75
129.37
118.90
101.52
80.15
58.71
40.79
28.49
21.62
18.13
15.13
10.32
2.83
-6.69
-16.74
-26.01
-33.89
-40.63
-46.74
-52.52
-57.70
-61.58
-63.49
-63.09
-60.66
-56.92
-52.73
-48.66
-44.95
-41.55
-38.31
-35.28
-32.66
-30.80
-29.95
-30.04
-30.68
-31.20
-31.02
-29.79
-27.65
-25.03
-22.53
-20.60
-19.31
-18.39
-17.35
-15.76
-13.39
-10.38
-7.02
-3.75
-0.91
1.28
2.76
3.62
3.95
3.94
3.66
3.21
2.64
1.98
1.28
0.48
-0.47
-1.72
-3.31
-5.24
-7.31
-9.22
-10.65
-11.48
-11.82
-12.02
-12.52
-13.65
-15.45
-17.59
-19.54
-20.72
-20.69
-19.30
-16.69
-13.24
-9.35
-5.45
-1.81
1.44
4.33
6.95
9.37
11.63
13.66
15.39
16.75
17.80
18.59
19.20
19.61
19.73
19.44
18.66
17.40
15.75
13.88
11.92
9.99
8.13
6.31
4.55
2.89
1.43
0.22
-0.74
-1.58
-2.53
-3.83
-5.66
-8.06
-10.95
-14.12
-17.25
-20.02
-22.11
-23.27
-23.35
-22.28
-20.07
-16.84
-12.76
-8.16
-3.48
0.74
4.05
6.27
7.44
7.92
8.13
8.46
9.17
10.33
11.96
13.98
16.21
18.40
20.33
21.80
22.71
23.05
22.86
22.19
21.11
19.70
18.06
16.35
14.63
12.98
11.36
9.71
7.92
5.99
3.89
1.65
-0.70
-3.17
-5.80
-8.64
-11.69
-14.88
-18.04
-20.85
-23.00
-24.25
-24.49
-23.75
-22.17
-19.87
-16.91
-13.32
-9.14
-4.55
0.14
4.48
8.00
10.39
11.58
11.85
11.73
11.83
12.54
13.90
15.56
17.02
17.85
17.94
17.49
16.84
16.21
15.52
14.49
12.81
10.43
7.67
5.04
3.04
1.79
1.05
0.22
-1.25
-3.64
-6.79
-10.15
-13.06
-14.96
-15.61
-15.07
-13.60
-11.53
-9.16
-6.65
-4.11
-1.60
0.84
3.12
5.14
6.81
8.03
8.75
9.00
8.86
8.45
7.94
7.44
7.00
6.61
6.24
5.90
5.57
5.27
4.92
4.41
3.58
2.31
0.56
-1.63
-4.18
-7.00
-10.02
-13.16
-16.31
-19.42
-22.49
-25.59
-28.79
-31.99
-34.84
-36.73
-37.07
-35.48
-32.05
-27.30
-22.04
-17.13
-13.18
-10.52
-9.09
-8.63
-8.66
-8.62
-7.93
-6.14
-3.11
0.97
5.53
9.88
13.44
15.92
17.32
17.84
17.63
16.78
15.35
13.50
11.64
10.24
9.70
10.07
10.93
11.61
11.47
10.21
7.98
5.34
2.87
1.01
-0.15
-0.88
-1.58
-2.60
-4.11
-6.04
-8.13
-10.11
-11.72
-12.86
-13.49
-13.60
-13.21
-12.23
-10.63
-8.41
-5.69
-2.73
0.07
2.33
3.74
4.17
3.69
2.57
1.39
0.97
2.25
5.94
12.16
20.17
28.52
35.57
40.01
41.41
40.17
37.11
33.01
28.28
23.02
17.32
11.51
6.27
2.40
0.46
0.49
2.02
4.13
5.90
6.65
6.23
4.98
3.61
2.82
3.04
4.26
6.16
8.23
10.07
11.45
12.29
12.61
12.35
11.44
9.79
7.41
4.44
1.21
-1.76
-3.78
-4.16
-2.46
1.34
6.76
12.92
18.88
23.82
27.26
29.02
29.21
28.04
25.81
22.92
19.71
16.45
13.24
10.02
6.57
2.69
-1.83
-7.03
-12.84
-19.08
-25.31
-30.88
-34.92
-36.61
-35.36
-31.13
-24.54
-16.72
-9.03
-2.74
1.33
2.97
2.51
0.65
-1.80
-4.13
-5.81
-6.58
-6.42
-5.54
-4.39
-3.58
-3.62
-4.87
-7.28
-10.41
-13.65
-16.40
-18.32
-19.29
-19.36
-18.55
-16.80
-14.00
-10.18
-5.66
-1.06
2.85
5.38
6.13
5.06
2.53
-0.93
-4.63
-7.91
-10.15
-10.87
-9.77
-6.85
-2.41
2.91
8.29
12.96
16.38
18.50
19.63
20.33
21.10
22.18
23.44
24.47
24.81
24.17
22.52
20.05
17.15
14.24
11.69
9.77
8.56
8.03
7.90
7.94
7.91
7.79
7.65
7.63
7.71
7.65
7.06
5.53
2.83
-0.96
-5.45
-10.13
-14.39
-17.72
-19.80
-20.50
-19.86
-18.08
-15.45
-12.32
-9.04
-5.91
-3.16
-0.96
0.69
1.87
2.79
3.67
4.67
5.75
6.78
7.55
7.88
7.82
7.47
7.02
6.54
6.02
5.38
4.53
3.45
2.21
0.95
-0.28
-1.45
-2.59
-3.70
-4.76
-5.73
-6.63
-7.55
-8.63
-10.08
-11.96
-14.22
-16.63
-18.79
-20.26
-20.62
-19.63
-17.25
-13.76
-9.66
-5.54
-1.90
1.01
3.25
5.12
6.95
8.92
10.98
12.87
14.31
15.18
15.57
15.74
15.89
16.09
16.23
16.11
15.59
14.72
13.68
12.68
11.82
11.03
10.12
8.93
7.43
5.75
4.10
2.65
1.51
0.60
-0.15
-0.87
-1.64
-2.57
-3.79
-5.41
-7.46
-9.85
-12.41
-14.86
-17.00
-18.61
-19.59
-19.73
-18.88
-16.98
-14.12
-10.66
-7.09
-3.88
-1.33
0.56
1.97
3.18
4.35
5.54
6.66
7.66
8.45
9.10
9.61
9.99
10.19
10.14
9.84
9.37
8.86
8.44
8.12
7.84
7.40
6.70
5.67
4.41
2.99
1.49
-0.11
-1.79
-3.47
-5.04
-6.36
-7.30
-7.88
-8.22
-8.50
-8.91
-9.59
-10.56
-11.77
-13.12
-14.45
-15.55
-16.24
-16.28
-15.50
-13.85
-11.40
-8.41
-5.27
-2.38
-0.03
1.67
2.78
3.42
3.74
3.88
3.97
4.17
4.60
5.29
6.11
6.88
7.34
7.34
6.86
5.98
4.87
3.77
2.87
2.33
2.22
2.43
2.78
3.05
3.04
2.71
2.07
1.20
0.13
-1.08
-2.34
-3.52
-4.43
-5.02
-5.32
-5.60
-6.14
-7.20
-8.87
-10.96
-13.09
-14.79
-15.66
-15.51
-14.45
-12.78
-10.90
-9.12
-7.54
-6.09
-4.60
-2.94
-1.08
0.87
2.77
4.46
5.82
6.72
7.04
6.70
5.70
4.22
2.55
1.02
-0.15
-0.89
-1.28
-1.46
-1.57
-1.67
-1.72
-1.65
-1.42
-1.02
-0.48
0.13
0.76
1.30
1.64
1.70
1.39
0.74
-0.28
-1.64
-3.29
-5.15
-7.03
-8.73
-10.03
-10.87
-11.29
-11.51
-11.78
-12.33
-13.24
-14.40
-15.58
-16.45
-16.68
-16.00
-14.35
-11.81
-8.66
-5.33
-2.15
0.59
2.80
4.50
5.79
6.75
7.46
7.96
8.29
8.50
8.56
8.48
8.23
7.82
7.30
6.79
6.40
6.19
6.21
6.37
6.59
6.70
6.55
6.02
5.06
3.72
2.16
0.64
-0.63
-1.52
-2.04
-2.25
-2.29
-2.23
-2.15
-2.17
-2.41
-3.01
-4.04
-5.43
-6.96
-8.38
-9.53
-10.44
-11.24
-12.08
-12.97
-13.66
-13.86
-13.22
-11.62
-9.16
-6.12
-2.92
0.05
2.45
4.13
5.09
5.53
5.70
5.80
5.90
5.94
5.83
5.55
5.19
4.91
4.75
4.60
4.23
3.49
2.40
1.29
0.53
0.39
0.80
1.41
1.74
1.46
0.59
-0.66
-1.95
-3.05
-3.89
-4.53
-5.05
-5.47
-5.77
-5.88
-5.85
-5.75
-5.76
-6.03
-6.71
-7.88
-9.51
-11.43
-13.23
-14.43
-14.58
-13.49
-11.33
-8.58
-5.86
-3.60
-1.99
-0.91
-0.06
0.87
2.00
3.33
4.64
5.71
6.35
6.49
6.25
5.82
5.41
5.14
5.00
4.88
4.69
4.40
4.05
3.72
3.39
2.99
2.47
1.86
1.30
0.96
0.92
1.09
1.21
1.01
0.30
-0.91
-2.43
-4.01
-5.44
-6.57
-7.43
-8.04
-8.55
-9.07
-9.74
-10.69
-12.01
-13.67
-15.44
-17.01
-17.93
-17.87
-16.66
-14.46
-11.64
-8.71
-6.10
-4.03
-2.52
-1.37
-0.37
0.62
1.64
2.64
3.57
4.35
5.00
5.52
5.97
6.38
6.79
7.22
7.69
8.18
8.63
9.00
9.19
9.16
8.81
8.05
6.80
5.12
3.20
1.39
0.10
-0.43
-0.19
0.52
1.29
1.71
1.53
0.69
-0.77
-2.76
-5.13
-7.66
-10.08
-12.11
-13.59
-14.62
-15.55
-16.82
-18.71
-21.16
-23.71
-25.65
-26.36
-25.53
-23.32
-20.25
-16.99
-14.00
-11.46
-9.24
-7.03
-4.59
-1.88
0.94
3.68
6.11
8.16
9.81
11.11
12.10
12.85
13.40
13.83
14.26
14.70
15.15
15.54
15.78
15.74
15.33
14.44
13.03
11.17
9.03
6.91
5.09
3.76
2.93
2.41
1.96
1.33
0.43
-0.74
-2.04
-3.38
-4.69
-5.96
-7.24
-8.58
-10.11
-11.89
-13.91
-16.00
-17.76
-18.66
-18.27
-16.45
-13.43
-9.84
-6.40
-3.70
-1.94
-0.99
-0.46
0.03
0.74
1.72
2.87
4.06
5.17
6.16
7.04
7.83
8.56
9.17
9.66
9.99
10.24
10.46
10.74
11.04
11.25
11.19
10.69
9.71
8.29
6.62
4.84
3.08
1.35
-0.38
-2.13
-3.88
-5.56
-7.11
-8.44
-9.62
-10.70
-11.87
-13.30
-15.15
-17.50
-20.14
-22.65
-24.38
-24.68
-23.18
-19.94
-15.52
-10.73
-6.36
-2.85
-0.24
1.74
3.48
5.27
7.19
9.12
10.94
12.50
13.83
14.97
15.97
16.79
17.42
17.83
18.04
18.16
18.24
18.31
18.25
17.97
17.38
16.44
15.25
13.93
12.59
11.26
9.95
8.64
7.31
5.94
4.47
2.89
1.18
-0.60
-2.36
-3.97
-5.38
-6.62
-7.85
-9.30
-11.16
-13.56
-16.42
-19.45
-22.14
-23.94
-24.40
-23.31
-20.82
-17.35
-13.46
-9.62
-6.09
-2.94
-0.12
2.42
4.67
6.57
8.13
9.40
10.55
11.72
12.98
14.24
15.38
16.28
16.97
17.58
18.29
19.19
20.17
21.00
21.40
21.21
20.45
19.23
17.74
16.07
14.28
12.41
10.51
8.63
6.82
5.04
3.15
1.11
-1.08
-3.24
-5.18
-6.77
-8.05
-9.29
-10.83
-12.98
-15.81
-19.11
-22.39
-25.05
-26.48
-26.31
-24.46
-21.17
-16.89
-12.13
-7.37
-2.92
1.04
4.50
7.45
9.88
11.79
13.19
14.21
14.97
15.66
16.32
16.88
17.18
17.09
16.68
16.17
15.92
16.18
16.96
17.99
18.85
19.13
18.60
17.32
15.52
13.51
11.56
9.81
8.29
6.92
5.57
4.09
2.40
0.49
-1.56
-3.61
-5.57
-7.45
-9.37
-11.51
-14.00
-16.77
-19.57
-21.97
-23.49
-23.73
-22.49
-19.88
-16.19
-11.99
-7.80
-4.05
-0.93
1.63
3.86
6.03
8.24
10.42
12.34
13.84
14.80
15.36
15.75
16.19
16.77
17.41
17.92
18.08
17.77
17.01
15.95
14.84
13.92
13.33
13.03
12.84
12.45
11.59
10.02
7.71
4.84
1.72
-1.30
-3.97
-6.21
-8.20
-10.21
-12.56
-15.37
-18.53
-21.70
-24.38
-26.15
-26.64
-25.73
-23.42
-19.88
-15.43
-10.48
-5.58
-1.25
2.14
4.55
6.19
7.52
8.97
10.74
12.74
14.63
16.05
16.77
16.86
16.56
16.20
16.02
16.09
16.39
16.80
17.19
17.40
17.28
16.68
15.53
13.89
11.92
9.88
8.01
6.42
5.09
3.87
2.65
1.29
-0.24
-1.94
-3.75
-5.58
-7.36
-9.09
-10.81
-12.64
-14.72
-17.12
-19.82
-22.53
-24.81
-26.08
-25.87
-23.95
-20.47
-15.92
-10.99
-6.36
-2.43
0.71
3.24
5.49
7.71
10.05
12.44
14.71
16.58
17.83
18.37
18.29
17.83
17.31
16.95
16.78
16.78
16.82
16.89
17.01
17.20
17.38
17.32
16.76
15.59
13.92
12.00
10.16
8.60
7.31
6.20
5.09
3.90
2.61
1.26
-0.18
-1.70
-3.30
-4.98
-6.68
-8.40
-10.19
-12.16
-14.37
-16.83
-19.31
-21.45
-22.79
-22.88
-21.55
-18.85
-15.16
-10.95
-6.75
-2.88
0.47
3.30
5.71
7.76
9.56
11.12
12.46
13.53
14.28
14.67
14.73
14.57
14.34
14.16
14.07
14.01
13.87
13.61
13.30
13.00
12.81
12.67
12.48
12.08
11.39
10.40
9.13
7.60
5.76
3.58
1.07
-1.60
-4.20
-6.51
-8.42
-10.06
-11.75
-13.86
-16.60
-19.88
-23.29
-26.16
-27.76
-27.61
-25.63
-22.10
-17.62
-12.81
-8.13
-3.77
0.29
4.09
7.64
10.78
13.35
15.22
16.37
16.90
16.94
16.57
15.84
14.78
13.48
12.14
11.03
10.41
10.40
10.97
11.84
12.65
13.08
12.93
12.23
11.08
9.68
8.12
6.47
4.68
2.73
0.64
-1.53
-3.63
-5.55
-7.20
-8.61
-9.92
-11.29
-12.88
-14.76
-16.87
-19.05
-21.09
-22.72
-23.66
-23.68
-22.59
-20.32
-16.98
-12.94
-8.71
-4.86
-1.77
0.48
2.12
3.57
5.16
7.04
9.06
10.99
12.58
13.78
14.60
15.16
15.49
15.54
15.29
14.78
14.19
13.72
13.50
13.48
13.49
13.33
12.86
12.09
11.08
9.91
8.62
7.21
5.74
4.27
2.90
1.66
0.53
-0.55
-1.63
-2.73
-3.91
-5.19
-6.69
-8.48
-10.62
-13.01
-15.48
-17.80
-19.70
-20.95
-21.35
-20.73
-19.02
-16.34
-12.93
-9.24
-5.70
-2.71
-0.48
1.00
1.90
2.54
3.22
4.13
5.25
6.44
7.41
7.92
7.87
7.31
6.54
5.88
5.67
6.04
6.90
7.97
8.91
9.48
9.63
9.52
9.32
9.21
9.22
9.31
9.40
9.40
9.24
8.74
7.71
5.88
3.11
-0.55
-4.85
-9.37
-13.66
-17.34
-20.25
-22.34
-23.75
-24.62
-25.01
-24.83
-23.82
-21.75
-18.55
-14.46
-9.99
-5.72
-2.14
0.57
2.45
3.76
4.73
5.50
6.05
6.36
6.39
6.16
5.73
5.16
4.53
3.89
3.27
2.72
2.29
2.03
1.97
2.12
2.41
2.76
3.01
3.02
2.66
1.84
0.55
-1.16
-3.18
-5.29
-7.27
-8.88
-10.01
-10.65
-11.02
-11.46
-12.33
-13.88
-16.17
-18.96
-21.78
-24.05
-25.26
-25.03
-23.27
-20.15
-16.04
-11.47
-6.92
-2.79
0.77
3.76
6.26
8.29
9.78
10.58
10.59
9.90
8.78
7.61
6.69
6.15
5.92
5.77
5.49
5.03
4.48
4.01
3.79
3.83
3.96
3.83
3.11
1.59
-0.69
-3.46
-6.29
-8.79
-10.67
-11.81
-12.25
-12.09
-11.48
-10.59
-9.69
-9.00
-8.75
-8.95
-9.42
-9.72
-9.32
-7.77
-4.88
-0.78
4.04
8.91
13.24
16.65
19.06
20.63
21.58
22.05
22.08
21.60
20.56
18.95
16.84
14.33
11.52
8.56
5.58
2.75
0.23
-1.84
-3.37
-4.32
-4.76
-4.78
-4.53
-4.18
-3.90
-3.87
-4.23
-5.13
-6.62
-8.62
-10.98
-13.48
-15.91
-18.17
-20.31
-22.42
-24.55
-26.65
-28.55
-30.10
-31.13
-31.46
-30.80
-28.76
-24.94
-19.17
-11.68
-3.15
5.49
13.39
20.01
25.22
29.13
31.89
33.58
34.19
33.73
32.41
30.65
28.89
27.46
26.51
25.93
25.50
24.98
24.28
23.31
22.02
20.31
18.04
15.18
11.87
8.51
5.63
3.83
3.41
4.36
6.30
8.59
10.55
11.56
11.27
9.60
6.82
3.47
0.34
-1.85
-2.59
-1.81
0.06
2.38
4.48
6.04
7.26
8.74
11.23
15.26
20.81
27.32
33.80
39.17
42.54
43.32
41.33
36.67
29.62
20.66
10.44
-0.29
-10.75
-20.26
-28.32
-34.66
-39.16
-41.78
-42.63
-42.08
-40.83
-39.90
-40.38
-43.10
-48.36
-55.76
-64.43
-73.17
-80.69
-85.84
-87.75
-85.96
-80.70
-72.86
-63.83
-55.04
-47.41
-40.97
-34.95
-28.17
-19.66
-9.21
2.47
13.92
23.33
29.20
30.88
28.83
24.44
19.62
15.99
14.27
14.08
14.22
13.42
11.00
7.25
3.27
0.37
-0.56
0.63
3.43
7.01
10.68
14.04
16.97
19.39
21.17
22.15
22.21
21.43
20.06
18.40
16.57
14.52
12.05
8.97
5.32
1.28
-2.83
-6.69
-10.09
-12.88
-14.90
-16.02
-16.20
-15.49
-14.18
-12.60
-11.09
-9.83
-8.82
-7.91
-6.91
-5.68
-4.14
-2.34
-0.38
1.56
3.26
4.55
5.28
5.45
5.11
4.47
3.72
3.08
2.67
2.58
2.93
3.79
5.15
6.86
8.52
9.57
9.48
7.94
5.06
1.32
-2.63
-6.31
-9.54
-12.52
-15.58
-18.90
-22.37
-25.58
-28.06
-29.47
-29.65
-28.71
-26.81
-24.20
-21.09
-17.78
-14.56
-11.72
-9.44
-7.75
-6.52
-5.48
-4.38
-3.00
-1.22
0.93
3.37
5.99
8.70
11.38
13.98
16.40
18.55
20.33
21.65
22.51
22.95
23.01
22.71
21.98
20.75
19.00
16.86
14.58
12.45
10.63
9.13
7.77
6.29
4.49
2.30
-0.23
-3.03
-6.04
-9.27
-12.68
-16.12
-19.19
-21.36
-22.13
-21.22
-18.69
-14.94
-10.50
-5.84
-1.26
3.21
7.55
11.66
15.29
18.04
19.54
19.61
18.44
16.42
14.09
11.95
10.28
9.14
8.50
8.29
8.51
9.20
10.35
11.80
13.27
14.47
15.23
15.57
15.75
16.00
16.46
17.04
17.48
17.51
16.99
15.95
14.52
12.82
10.88
8.68
6.20
3.49
0.60
-2.41
-5.52
-8.74
-11.86
-14.52
-16.09
-16.03
-14.09
-10.54
-6.16
-1.88
1.48
3.57
4.52
4.74
4.69
4.64
4.69
4.79
4.94
5.16
5.56
6.20
7.05
8.04
9.05
9.96
10.66
11.12
11.32
11.27
10.97
10.41
9.61
8.61
7.48
6.31
5.19
4.10
2.98
1.73
0.29
-1.32
-2.91
-4.36
-5.63
-6.84
-8.25
-10.08
-12.39
-14.97
-17.38
-19.12
-19.76
-19.12
-17.28
-14.60
-11.48
-8.35
-5.46
-2.92
-0.69
1.25
2.92
4.28
5.26
5.86
6.10
6.12
6.01
5.86
5.69
5.51
5.39
5.43
5.72
6.22
6.81
7.26
7.40
7.18
6.67
6.01
5.28
4.53
3.71
2.83
1.94
1.14
0.42
-0.33
-1.34
-2.84
-4.92
-7.49
-10.31
-13.09
-15.56
-17.49
-18.67
-18.99
-18.44
-17.14
-15.38
-13.43
-11.53
-9.73
-7.94
-6.04
-3.97
-1.83
0.19
1.86
3.11
4.06
4.94
6.03
7.45
9.15
10.95
12.63
13.96
14.80
15.08
14.79
13.96
12.69
11.10
9.34
7.49
5.60
3.63
1.60
-0.43
-2.34
-4.04
-5.44
-6.67
-7.84
-9.15
-10.71
-12.57
-14.68
-16.90
-19.01
-20.70
-21.65
-21.56
-20.34
-18.08
-15.11
-11.83
-8.55
-5.47
-2.59
0.13
2.71
5.08
7.09
8.64
9.71
10.38
10.82
11.16
11.40
11.49
11.30
10.84
10.22
9.68
9.42
9.50
9.79
9.97
9.76
9.04
7.92
6.68
5.59
4.71
3.91
2.88
1.36
-0.69
-3.08
-5.51
-7.69
-9.46
-10.81
-11.85
-12.74
-13.66
-14.77
-16.15
-17.72
-19.22
-20.29
-20.58
-19.98
-18.63
-16.89
-15.12
-13.49
-11.96
-10.27
-8.26
-5.90
-3.33
-0.74
1.72
4.08
6.43
8.83
11.23
13.36
14.96
15.79
15.85
15.31
14.43
13.43
12.37
11.12
9.53
7.55
5.42
3.58
2.57
2.82
4.48
7.44
11.41
15.99
20.75
25.22
28.96
31.57
32.83
32.73
31.40
28.99
25.54
21.06
15.60
9.51
3.41
-1.91
-5.83
-8.14
-9.05
-9.02
-8.42
-7.45
-6.12
-4.43
-2.49
-0.51
1.35
3.06
4.80
6.84
9.33
12.18
15.05
17.43
18.85
19.05
18.08
16.22
13.89
11.52
9.44
7.80
6.59
5.76
5.21
4.93
4.83
4.79
4.60
4.03
2.94
1.37
-0.49
-2.34
-3.90
-5.02
-5.65
-5.87
-5.80
-5.72
-5.92
-6.76
-8.61
-11.54
-15.27
-19.12
-22.28
-24.10
-24.44
-23.72
-22.73
-22.30
-22.97
-24.93
-28.03
-31.92
-36.16
-40.22
-43.57
-45.73
-46.47
-45.79
-43.96
-41.34
-38.22
-34.75
-31.01
-27.08
-23.01
-18.84
-14.45
-9.71
-4.54
0.85
5.97
10.20
13.09
14.60
15.06
15.13
15.41
16.30
17.84
19.79
21.68
22.89
22.77
20.76
16.64
10.65
3.51
-3.75
-10.15
-14.96
-17.90
-19.04
-18.71
-17.30
-15.22
-12.88
-10.65
-8.79
-7.42
-6.51
-5.96
-5.67
-5.66
-6.02
-6.84
-8.17
-9.99
-12.25
-14.89
-17.72
-20.45
-22.61
-23.66
-23.23
-21.22
-17.96
-14.00
-9.96
-6.30
-3.31
-1.01
0.69
1.97
3.07
4.18
5.49
7.06
8.77
10.40
11.69
12.44
12.62
12.29
11.60
10.65
9.51
8.24
6.93
5.72
4.73
4.06
3.63
3.29
2.86
2.14
1.03
-0.52
-2.52
-4.90
-7.50
-10.01
-12.06
-13.11
-12.78
-10.92
-7.70
-3.62
0.71
4.72
8.10
10.70
12.61
13.91
14.69
15.02
14.95
14.58
14.03
13.41
12.82
12.37
12.10
12.06
12.18
12.28
12.19
11.73
10.89
9.77
8.56
7.39
6.34
5.33
4.15
2.62
0.52
-2.20
-5.42
-8.70
-11.42
-12.83
-12.40
-10.05
-6.21
-1.71
2.58
6.05
8.55
10.30
11.71
13.15
14.84
16.82
18.96
21.17
23.36
25.54
27.77
30.17
32.83
35.79
38.96
42.11
44.92
47.10
48.49
49.13
49.31
49.52
50.33
52.15
54.90
57.85
59.62
58.61
53.49
43.85
30.41
14.89
-0.54
-13.93
-23.98
-30.23
-32.89
-32.61
-30.21
-26.65
-22.95
-20.06
-18.80
-19.49
-21.99
-25.59
-29.34
-32.31
-33.87
-33.85
-32.49
-30.22
-27.52
-24.72
-21.97
-19.29
-16.65
-14.02
-11.51
-9.28
-7.52
-6.40
-5.93
-6.00
-6.36
-6.72
-6.80
-6.48
-5.75
-4.83
-3.92
-3.23
-2.85
-2.63
-2.22
-1.18
0.82
3.84
7.53
11.22
14.21
16.09
16.95
17.30
17.82
18.90
20.46
21.94
22.60
21.86
19.61
16.19
12.11
7.88
3.72
-0.36
-4.44
-8.53
-12.56
-16.36
-19.79
-22.77
-25.23
-27.15
-28.43
-29.03
-28.89
-28.10
-26.81
-25.16
-23.26
-21.09
-18.59
-15.74
-12.63
-9.56
-7.02
-5.55
-5.54
-7.05
-9.68
-12.69
-15.23
-16.60
-16.49
-15.04
-12.67
-9.90
-7.21
-4.91
-3.21
-2.22
-2.07
-2.81
-4.37
-6.47
-8.64
-10.42
-11.44
-11.56
-10.93
-9.82
-8.54
-7.28
-6.12
-5.00
-3.86
-2.65
-1.42
-0.23
0.82
1.69
2.32
2.71
2.82
2.58
1.97
1.03
-0.15
-1.39
-2.47
-3.31
-3.90
-4.39
-5.03
-6.02
-7.45
-9.21
-11.00
-12.49
-13.35
-13.34
-12.37
-10.49
-7.86
-4.86
-1.95
0.30
1.47
1.42
0.40
-0.96
-1.95
-2.01
-1.10
0.35
1.53
1.70
0.43
-2.15
-5.50
-8.92
-11.88
-14.30
-16.61
-19.67
-24.60
-32.43
-43.70
-58.07
-73.92
-88.44
-98.05
-99.58
-91.42
-74.46
-52.13
-29.53
-11.84
-2.72
-3.33
-12.23
-26.21
-41.40
-54.39
-62.82
-65.74
-63.45
-57.32
-49.50
-42.36
-38.02
-37.55
-40.53
-45.03
-48.20
-47.37
-41.09
-29.71
-15.13
0.01
13.43
23.85
31.20
36.27
40.31
44.56
50.05
57.32
66.22
75.87
84.87
91.85
96.12
97.98
98.52
98.96
99.90
100.85
100.52
97.39
90.61
80.30
67.50
53.72
40.22
27.72
16.35
5.89
-3.84
