1515729670.00
64.000000
-0.00
-0.00
-0.00
-0.00
-0.00
-0.00
-0.00
-0.00
-0.00
-0.00
0.00
0.01
0.01
-0.00
-0.03
-0.05
-0.05
0.00
0.13
0.36
0.66
1.01
1.37
1.72
2.06
2.40
2.79
3.24
3.80
4.42
5.06
5.66
6.20
6.68
7.15
7.68
8.31
9.14
10.09
11.04
11.88
12.56
13.14
13.76
14.65
15.96
17.91
20.32
22.90
25.38
27.58
29.57
31.68
34.32
37.81
42.54
48.15
54.10
59.83
64.97
69.58
74.14
79.34
85.71
93.76
103.00
112.62
121.73
129.77
136.75
143.30
150.75
157.77
166.64
177.95
191.79
206.97
220.57
228.25
225.36
208.53
176.87
132.76
80.05
23.07
-34.94
-92.44
-149.16
-205.23
-260.37
-313.74
-363.87
-409.83
-450.91
-486.50
-515.74
-537.23
-549.22
-549.96
-538.37
-514.21
-478.67
-433.88
-382.45
-327.02
-269.84
-212.63
-156.66
-102.95
-52.37
-5.90
35.58
71.43
101.35
125.50
144.38
158.69
169.15
176.37
180.75
182.57
182.07
179.51
175.23
169.65
163.18
156.15
148.81
141.30
133.69
126.02
118.33
110.69
103.16
95.80
88.68
81.83
75.25
68.95
62.95
57.25
51.85
46.78
42.03
37.59
33.47
29.64
26.09
22.81
19.77
16.99
14.47
12.22
10.25
8.53
7.05
5.77
4.66
3.69
2.84
2.13
1.54
1.09
0.75
0.48
0.25
-0.00
-0.28
-0.58
-0.86
-1.06
-1.16
-1.16
-1.12
-1.14
-1.31
-1.65
-2.13
-2.62
-2.99
-3.13
-3.08
-2.94
-2.93
-3.23
-3.89
-4.84
-5.83
-6.59
-6.95
-6.93
-6.73
-6.72
-7.19
-8.26
-9.77
-11.34
-12.60
-13.28
-13.38
-13.17
-13.02
-13.27
-14.15
-15.81
-18.25
-21.24
-24.04
-25.48
-24.22
-19.33
-10.86
-0.06
11.02
20.34
26.65
29.88
30.82
30.48
29.57
28.20
26.25
23.71
21.02
18.92
18.20
19.18
21.71
25.16
28.73
31.69
33.62
34.45
34.36
33.64
32.54
31.09
29.15
26.49
23.01
18.86
14.21
9.42
4.80
0.57
-3.24
-6.68
-9.77
-12.49
-14.77
-16.57
-17.89
-18.77
-19.27
-19.41
-19.16
-18.49
-17.46
-16.25
-15.14
-14.29
-13.75
-13.39
-12.98
-12.34
-11.47
-10.50
-9.58
-8.84
-8.28
-7.87
-7.52
-7.20
-6.83
-6.18
-4.98
-3.00
-0.25
2.97
6.07
8.56
10.15
10.87
10.98
10.71
10.19
9.36
8.22
6.85
5.54
4.64
4.34
4.66
5.41
6.32
7.17
7.86
8.39
8.85
9.24
9.52
9.60
9.32
8.56
7.43
6.06
4.65
3.36
2.33
1.62
1.18
0.88
0.50
-0.19
-1.35
-3.00
-5.00
-7.02
-8.80
-10.14
-11.09
-11.90
-12.83
-14.11
-15.79
-17.81
-19.96
-21.99
-23.54
-24.19
-23.51
-21.21
-17.33
-12.19
-6.44
-0.73
4.35
8.48
11.55
13.56
14.58
14.70
14.02
12.77
11.22
9.66
8.32
7.33
6.73
6.46
6.40
6.40
6.28
5.89
5.18
4.22
3.21
2.34
1.72
1.31
0.97
0.51
-0.22
-1.30
-2.79
-4.72
-7.02
-9.34
-11.07
-11.43
-9.81
-6.15
-0.99
4.55
9.28
12.32
13.37
12.65
10.63
7.80
4.45
0.86
-2.63
-5.49
-7.18
-7.30
-5.88
-3.37
-0.55
1.87
3.39
3.99
4.03
4.02
4.47
5.65
7.59
10.20
13.42
17.32
22.10
28.00
35.11
43.26
51.92
60.29
67.48
72.68
75.35
75.16
72.03
66.04
57.40
46.63
34.63
22.66
12.11
4.11
-0.80
-2.91
-3.18
-2.96
-3.40
-5.16
-8.14
-11.64
-14.66
-16.45
-16.82
-16.35
-16.20
-17.64
-21.49
-27.69
-35.31
-42.92
-49.20
-53.53
-56.25
-58.52
-61.79
-67.15
-74.91
-84.42
-94.35
-103.13
-109.35
-112.19
-111.52
-107.94
-102.61
-96.96
-92.36
-89.80
-89.72
-91.94
-95.72
-99.89
-103.26
-105.04
-105.04
-103.45
-100.05
-93.42
-80.67
-58.38
-24.49
19.65
68.50
113.42
145.54
159.04
153.03
131.35
100.29
66.03
32.84
3.01
-22.20
-41.49
-53.29
-56.38
-50.79
-38.10
-21.06
-2.48
15.85
33.62
51.77
71.63
94.05
118.67
143.70
166.22
182.86
190.82
188.74
177.24
158.87
137.34
116.43
98.95
86.05
77.17
70.44
63.61
54.72
42.74
27.58
9.87
-9.65
-30.53
-52.75
-76.44
-101.47
-127.20
-152.49
-176.20
-197.69
-216.92
-234.25
-249.86
-263.31
-273.50
-279.16
-279.43
-274.38
-265.01
-252.75
-238.98
-224.41
-209.06
-192.62
-174.82
-155.88
-136.53
-117.75
-100.37
-84.82
-70.97
-58.40
-46.71
-35.68
-25.48
-16.42
-8.85
-2.86
1.68
5.17
8.13
11.04
14.18
17.58
21.06
24.34
27.20
29.61
31.72
33.76
35.90
38.10
40.11
41.48
41.70
40.35
37.07
31.77
24.60
16.06
7.03
-1.40
-8.06
-11.99
-12.69
-10.10
-4.57
3.30
12.90
23.68
35.20
47.02
58.69
69.77
79.87
88.73
96.30
102.70
108.13
112.78
116.73
119.92
122.18
123.28
123.11
121.71
119.29
116.18
112.68
108.96
105.07
101.03
96.88
92.76
88.78
85.03
81.38
77.66
73.76
69.78
66.06
63.04
61.05
60.12
60.05
60.45
61.00
61.55
62.05
62.48
62.74
62.54
61.59
59.73
57.02
53.81
50.57
47.79
45.95
45.52
47.15
51.54
59.25
70.25
83.70
97.98
111.20
121.97
129.81
135.36
139.81
144.28
149.24
154.40
158.94
162.02
163.09
162.01
158.93
154.11
147.83
140.31
131.80
122.50
112.56
102.08
91.08
79.62
67.87
56.07
44.56
33.63
23.53
14.40
6.39
-0.42
-5.98
-10.31
-13.65
-16.36
-18.87
-21.57
-24.65
-28.06
-31.57
-34.90
-37.87
-40.49
-42.94
-45.38
-47.87
-50.28
-52.29
-53.65
-54.24
-54.19
-53.87
-53.68
-53.97
-54.92
-56.53
-58.60
-60.80
-62.68
-63.71
-63.40
-61.46
-57.87
-52.98
-47.35
-41.62
-36.31
-31.74
-28.01
-25.11
-22.97
-21.56
-20.85
-20.77
-21.17
-21.80
-22.40
-22.78
-22.90
-22.84
-22.80
-22.99
-23.50
-24.32
-25.30
-26.19
-26.73
-26.77
-26.32
-25.57
-24.86
-24.53
-24.78
-25.54
-26.50
-27.25
-27.46
-27.06
-26.22
-25.28
-24.58
-24.31
-24.41
-24.76
-25.14
-25.42
-25.56
-25.60
-25.61
-25.62
-25.63
-25.60
-25.55
-25.50
-25.51
-25.63
-25.82
-26.04
-26.24
-26.45
-26.79
-27.46
-28.55
-29.97
-31.35
-32.17
-31.97
-30.54
-27.98
-24.67
-21.07
-17.51
-14.22
-11.27
-8.78
-6.86
-5.61
-5.02
-4.92
-4.96
-4.80
-4.21
-3.18
-1.90
-0.65
0.38
1.12
1.66
2.17
2.81
3.58
4.41
5.14
5.67
5.94
5.94
5.72
5.23
4.45
3.38
2.07
0.69
-0.57
-1.54
-2.13
-2.36
-2.36
-2.31
-2.42
-2.89
-3.85
-5.35
-7.28
-9.44
-11.62
-13.66
-15.55
-17.38
-19.24
-21.12
-22.89
-24.37
-25.54
-26.54
-27.63
-28.99
-30.53
-31.81
-32.23
-31.33
-28.96
-25.46
-21.45
-17.56
-14.22
-11.53
-9.32
-7.40
-5.70
-4.32
-3.43
-3.12
-3.32
-3.77
-4.18
-4.35
-4.26
-4.04
-3.83
-3.73
-3.67
-3.52
-3.19
-2.65
-2.02
-1.45
-1.14
-1.19
-1.64
-2.46
-3.57
-4.85
-6.24
-7.68
-9.15
-10.65
-12.17
-13.69
-15.17
-16.58
-17.94
-19.31
-20.79
-22.43
-24.26
-26.24
-28.33
-30.49
-32.74
-35.12
-37.62
-40.16
-42.58
-44.70
-46.39
-47.69
-48.73
-49.67
-50.54
-51.12
-50.93
-49.29
-45.67
-39.77
-31.72
-22.01
-11.23
0.09
11.68
23.42
35.22
46.84
57.90
67.94
76.48
83.18
87.70
89.76
89.19
86.07
80.84
74.28
67.31
60.64
54.63
49.26
44.39
39.98
36.18
33.29
31.49
30.71
30.53
30.34
29.55
27.73
24.64
20.14
14.09
6.39
-3.02
-14.02
-26.31
-39.47
-53.08
-66.79
-80.24
-92.98
-104.37
-113.62
-120.01
-123.10
-122.88
-119.71
-114.25
-107.22
-99.31
-91.25
-83.75
-77.52
-73.06
-70.45
-69.26
-68.59
-67.29
-64.32
-58.99
-51.18
-41.26
-29.93
-18.02
-6.25
4.83
14.87
23.57
30.78
36.32
40.05
41.89
41.88
40.08
36.60
31.45
24.70
16.71
8.14
-0.14
-7.32
-12.78
-16.36
-18.17
-18.60
-18.10
-16.78
-14.75
-12.29
-9.88
-8.10
-7.48
-8.03
-9.36
-10.81
-11.09
-9.26
-5.24
0.08
5.50
9.73
12.48
13.87
14.27
15.27
18.16
23.08
29.10
34.97
39.14
41.42
41.83
40.36
39.07
40.01
43.87
50.01
57.43
64.68
72.37
81.21
91.36
104.93
123.32
145.53
168.67
189.78
206.11
218.48
228.70
221.96
190.19
136.77
74.62
16.84
-21.87
-46.40
-62.12
-72.24
-77.75
-79.31
-75.36
-65.96
-53.42
-41.12
-33.28
-31.17
-34.90
-43.81
-54.46
-62.84
-66.79
-66.44
-63.39
-60.53
-58.82
-58.53
-59.41
-59.66
-57.47
-52.60
-46.32
-40.15
-35.08
-29.49
-20.57
-5.81
16.36
45.26
77.45
107.92
131.87
145.97
149.61
144.05
131.64
115.39
98.46
83.57
72.62
66.44
64.53
65.51
67.45
68.48
67.34
63.41
56.34
45.71
30.99
12.11
-9.94
-32.84
-53.41
-68.52
-76.28
-76.66
-71.45
-63.50
-55.33
-48.32
-42.69
-38.17
-34.52
-32.06
-31.61
-34.15
-40.43
-50.02
-61.27
-72.00
-80.50
-85.94
-88.50
-88.94
-88.11
-86.72
-84.23
-79.20
-70.50
-58.57
-45.38
-33.94
-27.30
-27.67
-36.20
-51.53
-69.83
-86.09
-95.81
-95.78
-84.81
-64.00
-33.43
1.17
30.98
49.82
57.63
58.28
56.11
53.57
50.87
46.85
39.52
28.22
14.04
0.06
-12.46
-22.74
-30.59
-36.37
-40.63
-44.23
-47.16
-48.49
-47.31
-43.77
-38.78
-33.64
-30.16
-29.22
-30.95
-34.37
-37.88
-40.09
-40.72
-40.29
-39.88
-40.66
-43.23
-47.62
-52.91
-57.50
-59.74
-58.56
-53.65
-45.48
-34.99
-23.17
-10.85
1.51
13.76
25.79
37.28
47.73
56.58
63.36
67.93
70.46
71.44
71.47
71.03
70.40
69.60
68.48
66.84
64.58
61.73
58.36
54.53
50.22
45.36
39.89
33.85
27.36
20.62
13.85
7.28
1.08
-4.60
-9.58
-13.79
-17.20
-19.89
-22.05
-23.97
-25.92
-28.05
-30.30
-32.33
-33.56
-33.33
-31.14
-26.81
-20.51
-12.72
-4.00
5.14
14.31
23.27
31.82
39.79
46.97
53.12
58.02
61.48
63.39
63.75
62.74
60.66
57.82
54.56
51.10
47.57
44.07
40.67
37.39
34.21
30.97
27.51
23.68
19.44
14.90
10.27
5.71
1.28
-3.08
-7.52
-12.13
-16.89
-21.69
-26.35
-30.75
-34.91
-38.97
-43.14
-47.52
-51.93
-55.77
-58.18
-58.20
-55.15
-48.84
-39.67
-28.44
-16.14
-3.67
8.26
19.16
28.61
36.26
41.84
45.30
46.84
46.92
46.10
44.87
43.48
41.91
40.03
37.72
35.01
32.12
29.34
26.92
24.88
23.07
21.22
19.08
16.57
13.74
10.79
7.91
5.24
2.74
0.24
-2.41
-5.32
-8.43
-11.56
-14.48
-17.08
-19.39
-21.56
-23.88
-26.58
-29.84
-33.70
-37.96
-42.25
-45.97
-48.51
-49.31
-48.13
-45.03
-40.44
-34.98
-29.31
-23.91
-19.02
-14.61
-10.47
-6.38
-2.21
2.00
6.10
9.95
13.55
17.01
20.51
24.10
27.60
30.70
33.06
34.54
35.21
35.27
34.90
34.09
32.70
30.54
27.56
23.93
19.93
15.87
11.97
8.32
4.96
1.92
-0.80
-3.24
-5.56
-8.01
-10.80
-14.05
-17.60
-21.07
-23.97
-25.85
-26.32
-25.21
-22.51
-18.36
-13.10
-7.13
-0.96
4.92
10.11
14.37
17.55
19.63
20.68
20.83
20.25
19.16
17.79
16.32
14.85
13.36
11.83
10.19
8.49
6.83
5.38
4.26
3.47
2.87
2.17
1.10
-0.51
-2.60
-4.94
-7.22
-9.19
-10.79
-12.11
-13.36
-14.76
-16.47
-18.61
-21.18
-24.07
-27.02
-29.56
-31.12
-31.14
-29.29
-25.61
-20.46
-14.46
-8.26
-2.36
2.91
7.40
11.05
13.84
15.74
16.81
17.15
16.95
16.43
15.78
15.09
14.37
13.55
12.56
11.39
10.06
8.63
7.17
5.71
4.26
2.78
1.25
-0.38
-2.21
-4.29
-6.67
-9.31
-12.08
-14.80
-17.34
-19.66
-21.86
-24.12
-26.60
-29.42
-32.54
-35.77
-38.77
-41.09
-42.26
-41.91
-39.87
-36.24
-31.38
-25.76
-19.86
-14.04
-8.48
-3.24
1.69
6.33
10.69
14.78
18.63
22.27
25.67
28.75
31.41
33.51
34.94
35.70
35.81
35.37
34.51
33.35
31.97
30.39
28.55
26.38
23.83
20.92
17.80
14.67
11.73
9.12
6.84
4.80
2.83
0.77
-1.53
-4.17
-7.21
-10.59
-14.12
-17.45
-20.11
-21.56
-21.40
-19.46
-15.88
-11.13
-5.79
-0.42
4.58
8.95
12.56
15.32
17.14
17.98
17.91
17.14
15.97
14.70
13.55
12.61
11.85
11.18
10.57
10.01
9.54
9.17
8.83
8.40
7.74
6.77
5.46
3.90
2.22
0.54
-1.06
-2.53
-3.85
-5.08
-6.31
-7.70
-9.44
-11.65
-14.28
-17.02
-19.35
-20.71
-20.66
-19.07
-16.10
-12.11
-7.51
-2.67
2.19
6.87
11.14
14.77
17.51
19.19
19.80
19.49
18.55
17.27
15.92
14.70
13.70
12.96
12.43
11.99
11.51
10.87
10.04
9.08
8.04
6.97
5.83
4.55
3.05
1.33
-0.56
-2.46
-4.27
-5.94
-7.50
-9.07
-10.79
-12.76
-14.99
-17.41
-19.80
-21.83
-23.16
-23.51
-22.79
-21.07
-18.54
-15.41
-11.79
-7.70
-3.21
1.51
6.15
10.35
13.84
16.55
18.68
20.66
23.01
26.03
29.77
34.06
38.67
43.41
48.11
52.59
56.77
60.50
63.55
65.71
66.91
67.25
66.95
66.14
64.78
63.20
61.59
59.72
56.97
52.55
45.86
36.74
25.39
12.41
-0.24
-10.72
-18.04
-22.51
-25.17
-27.08
-28.86
-30.63
-32.06
-30.84
-24.96
-13.89
0.91
16.94
31.93
44.60
54.66
62.69
71.91
85.24
103.77
126.25
150.14
173.10
193.37
209.38
205.88
173.14
112.13
35.91
-38.73
-100.18
-144.28
-172.29
-188.05
-195.80
-196.65
-190.80
-179.03
-163.74
-148.22
-135.23
-126.25
-121.55
-120.46
-120.13
-117.71
-111.39
-100.88
-86.96
-70.76
-53.84
-38.13
-25.54
-16.15
-8.79
-1.98
4.99
11.81
17.49
20.93
21.42
19.15
15.70
13.07
12.68
14.73
18.20
21.71
24.04
24.62
23.62
21.89
20.52
20.42
21.99
24.93
28.54
32.03
34.77
36.46
36.90
36.32
35.34
35.44
37.18
40.28
43.66
45.76
44.97
39.48
28.72
13.79
-3.00
-19.38
-33.89
-46.29
-57.33
-68.32
-81.41
-97.55
-115.63
-133.02
-146.85
-154.67
-154.71
-146.31
-130.44
-111.47
-94.73
-84.30
-81.71
-85.66
-92.46
-97.35
-96.45
-80.15
-47.46
-6.88
29.63
54.88
68.50
73.53
73.05
69.03
62.66
53.87
43.40
33.04
24.47
18.18
13.46
9.28
5.07
0.84
-3.97
-9.99
-15.31
-17.65
-15.76
-10.38
-3.83
1.24
3.27
1.89
-0.53
-1.37
1.13
6.85
14.10
20.98
26.55
30.74
33.47
34.72
34.76
34.53
35.42
38.74
44.57
51.37
56.30
56.39
50.08
37.84
22.13
6.58
-4.81
-8.96
-3.71
11.28
33.85
59.32
81.38
93.88
92.85
77.98
52.62
22.67
-5.64
-27.60
-41.02
-46.21
-45.10
-40.06
-33.09
-25.52
-18.16
-11.60
-6.45
-3.07
-1.35
-0.75
-0.45
0.18
1.35
2.65
3.34
2.74
0.57
-2.37
-5.05
-6.49
-6.16
-4.11
-0.97
2.37
5.05
6.54
6.72
5.77
4.16
2.41
0.96
0.05
-0.33
-0.40
-0.49
-0.83
-1.58
-2.68
-3.89
-4.92
-5.54
-5.68
-5.44
-5.01
-4.59
-4.34
-4.29
-4.41
-4.63
-4.88
-5.13
-5.39
-5.76
-6.39
-7.46
-9.08
-11.21
-13.70
-16.26
-18.64
-20.59
-21.92
-22.43
-21.95
-20.33
-17.59
-13.96
-9.85
-5.77
-2.15
0.77
2.99
4.68
6.05
7.26
8.34
9.18
9.64
9.58
9.01
8.11
7.19
6.57
6.44
6.83
7.54
8.31
8.88
9.12
9.02
8.62
7.96
7.05
5.89
4.56
3.23
2.11
1.27
0.65
-0.00
-1.02
-2.60
-4.69
-6.93
-8.75
-9.53
-8.83
-6.55
-2.98
1.34
5.76
9.75
12.99
15.41
17.04
18.00
18.37
18.19
17.51
16.39
14.93
13.24
11.40
9.53
7.73
6.15
4.93
4.11
3.64
3.33
2.97
2.32
1.26
-0.25
-2.15
-4.30
-6.55
-8.75
-10.83
-12.82
-14.84
-17.06
-19.60
-22.38
-25.04
-27.00
-27.64
-26.50
-23.47
-18.86
-13.29
-7.44
-1.88
3.02
7.14
10.47
13.08
15.06
16.48
17.43
17.96
18.14
18.03
17.68
17.15
16.50
15.80
15.05
14.27
13.42
12.46
11.32
9.91
8.18
6.10
3.73
1.18
-1.39
-3.85
-6.15
-8.35
-10.56
-12.93
-15.53
-18.31
-21.02
-23.29
-24.70
-24.94
-23.86
-21.58
-18.36
-14.54
-10.44
-6.37
-2.59
0.67
3.27
5.14
6.37
7.09
7.44
7.50
7.27
6.76
6.04
5.26
4.62
4.25
4.17
4.26
4.34
4.20
3.74
2.95
1.93
0.77
-0.41
-1.59
-2.76
-3.96
-5.26
-6.70
-8.34
-10.23
-12.36
-14.65
-16.85
-18.59
-19.50
-19.28
-17.83
-15.32
-12.09
-8.51
-4.94
-1.63
1.23
3.53
5.19
6.22
6.70
6.80
6.71
6.56
6.40
6.21
5.91
5.46
4.94
4.41
3.94
3.44
2.81
1.92
0.75
-0.70
-2.34
-4.05
-5.74
-7.37
-8.92
-10.43
-11.96
-13.65
-15.74
-18.39
-21.47
-24.52
-26.94
-28.13
-27.77
-25.91
-22.93
-19.62
-16.60
-14.12
-12.12
-10.45
-9.06
-8.01
-7.45
-7.52
-8.75
-11.35
-15.03
-19.10
-22.93
-26.15
-28.67
-30.56
-32.01
-34.00
-37.14
-41.33
-45.94
-50.35
-54.34
-57.83
-60.85
-63.33
-66.08
-69.21
-71.95
-72.97
-71.35
-67.11
-60.85
-53.41
-39.17
-16.38
12.18
40.98
65.73
84.91
98.56
107.19
111.17
110.93
106.09
97.13
85.56
73.55
63.39
55.61
50.33
47.34
46.19
45.36
43.44
39.72
34.40
28.31
22.40
17.70
14.72
13.24
11.93
9.32
4.43
-2.68
-11.04
-19.37
-26.44
-31.71
-35.44
-38.53
-41.56
-44.19
-45.25
-43.40
-38.05
-29.69
-19.86
-10.36
-2.53
3.40
8.21
13.04
18.61
24.68
30.31
34.34
36.04
35.35
32.86
29.40
25.72
22.27
19.24
16.68
14.68
13.42
13.16
14.07
16.11
18.92
21.89
24.34
25.67
25.57
24.06
21.43
18.15
14.72
11.58
9.12
7.52
6.81
6.86
7.38
8.06
8.61
8.88
8.83
8.52
8.06
7.53
7.04
6.60
6.21
5.84
5.45
5.01
4.54
4.09
3.71
3.42
3.19
2.95
2.67
2.33
1.92
1.38
0.54
-0.73
-2.45
-4.40
-6.12
-7.06
-6.76
-5.10
-2.29
1.14
4.59
7.63
10.09
12.04
13.67
15.10
16.30
17.11
17.34
16.93
16.03
14.89
13.86
13.13
12.72
12.49
12.22
11.73
10.98
10.01
8.90
7.69
6.38
4.96
3.46
1.96
0.58
-0.70
-1.95
-3.37
-5.08
-7.05
-9.08
-10.85
-12.20
-13.20
-14.21
-15.70
-18.06
-21.37
-25.33
-29.37
-32.80
-35.09
-35.95
-35.40
-33.70
-31.25
-28.43
-25.52
-22.69
-19.99
-17.45
-15.14
-13.21
-11.82
-11.08
-10.96
-11.28
-11.70
-11.88
-11.54
-10.59
-9.08
-7.17
-5.06
-2.88
-0.74
1.28
3.13
4.69
5.87
6.62
6.92
6.84
6.45
5.79
4.83
3.45
1.52
-1.00
-3.97
-7.11
-10.05
-12.54
-14.54
-16.24
-17.98
-20.04
-22.50
-25.15
-27.56
-29.19
-29.60
-28.55
-26.05
-22.31
-17.69
-12.59
-7.39
-2.43
2.00
5.66
8.37
10.11
10.97
11.21
11.17
11.13
11.26
11.54
11.79
11.83
11.61
11.22
10.85
10.69
10.80
11.05
11.25
11.21
10.87
10.25
9.40
8.26
6.77
4.94
3.03
1.53
1.04
2.01
4.61
8.66
13.80
19.55
25.43
30.96
35.58
38.70
39.86
38.95
36.51
33.65
31.81
32.19
35.21
40.28
45.96
50.53
52.65
51.83
48.40
43.18
37.02
30.52
24.03
17.75
11.93
6.73
2.14
-2.07
-6.15
-10.19
-13.86
-16.54
-17.70
-17.23
-15.69
-13.99
-13.09
-13.49
-15.07
-17.33
-19.63
-21.56
-23.03
-24.18
-25.19
-26.16
-27.03
-27.70
-28.12
-28.28
-28.24
-28.01
-27.57
-26.82
-25.73
-24.34
-22.85
-21.50
-20.41
-19.47
-18.29
-16.37
-13.26
-8.80
-3.23
2.99
9.28
15.17
20.39
24.77
28.22
30.70
32.28
33.26
34.16
35.60
38.05
41.64
46.17
51.18
56.06
60.16
62.87
63.61
61.95
57.71
51.06
42.48
32.75
22.73
13.24
4.95
-1.68
-6.52
-9.77
-12.01
-14.01
-16.55
-20.10
-24.63
-29.68
-34.50
-38.43
-41.14
-42.69
-43.48
-44.06
-44.83
-45.92
-47.15
-48.14
-48.43
-47.67
-45.69
-42.47
-38.15
-32.96
-27.21
-21.28
-15.62
-10.64
-6.65
-3.77
-1.95
-0.93
-0.36
0.11
0.79
1.86
3.28
4.83
6.12
6.69
6.30
4.96
3.02
1.02
-0.55
-1.42
-1.61
-1.37
-0.97
-0.61
-0.38
-0.22
-0.07
0.06
0.16
0.14
-0.07
-0.48
-1.05
-1.66
-2.16
-2.35
-2.07
-1.20
0.36
2.57
5.28
8.22
10.95
13.04
14.09
13.94
12.66
10.61
8.25
6.02
4.29
3.23
2.91
3.36
4.55
6.42
8.77
11.25
13.40
14.74
15.02
14.26
12.80
11.15
9.79
9.07
9.11
9.84
11.11
12.66
14.19
15.36
15.87
15.52
14.28
12.35
10.12
7.95
6.16
4.88
4.01
3.38
2.79
2.09
1.25
0.27
-0.87
-2.26
-4.04
-6.33
-9.04
-11.87
-14.31
-15.73
-15.65
-13.89
-10.62
-6.40
-1.96
2.01
5.05
7.09
8.40
9.53
11.04
13.34
16.55
20.48
24.71
28.65
31.74
33.54
33.83
32.61
30.15
26.90
23.43
20.33
18.07
16.85
16.56
16.94
17.71
18.75
20.13
21.94
24.04
25.91
26.70
25.47
21.72
15.69
8.44
1.45
-3.89
-6.88
-7.71
-7.32
-6.96
-7.62
-9.70
-12.93
-16.64
-20.10
-22.84
-24.69
-25.83
-26.70
-28.03
-30.75
-35.68
-43.10
-52.15
-60.63
-65.32
-63.03
-51.83
-32.02
-6.42
20.57
44.35
61.67
71.49
74.81
73.66
69.81
63.93
55.59
44.02
29.02
11.49
-6.79
-23.98
-39.10
-52.27
-64.39
-76.38
-88.54
-100.68
-112.62
-124.55
-136.96
-149.95
-162.46
-172.19
-176.43
-173.34
-163.04
-147.57
-129.94
-112.69
-96.82
-81.96
-67.19
-52.20
-37.70
-25.22
-16.16
-11.00
-9.07
-8.88
-8.81
-7.79
-5.56
-2.52
0.68
3.60
6.23
8.93
12.15
16.05
20.31
24.24
27.08
28.40
28.37
27.65
27.07
27.21
28.06
29.15
29.73
29.30
27.76
25.52
23.15
21.14
19.68
18.57
17.46
16.00
14.02
11.54
8.72
5.78
2.85
0.04
-2.55
-4.82
-6.71
-8.24
-9.62
-11.16
-13.22
-15.99
-19.45
-23.24
-26.91
-29.98
-32.19
-33.58
-34.36
-34.78
-34.87
-34.50
-33.45
-31.53
-28.86
-25.75
-22.67
-19.97
-17.77
-15.96
-14.29
-12.57
-10.74
-8.77
-6.63
-4.17
-1.21
2.32
6.28
10.30
14.01
17.15
19.69
21.74
23.38
24.53
24.99
24.59
23.34
21.51
19.48
17.68
16.38
15.66
15.39
15.28
14.91
13.79
11.46
7.63
2.27
-4.33
-11.59
-18.70
-24.74
-28.85
-30.40
-29.13
-25.26
-19.43
-12.53
-5.41
1.30
7.29
12.45
16.82
20.40
23.24
25.35
26.73
27.38
27.28
26.50
25.23
23.79
22.59
21.95
21.98
22.49
23.14
23.57
23.52
22.96
22.00
20.78
19.40
17.90
16.27
14.42
12.32
9.93
7.29
4.51
1.80
-0.67
-2.83
-4.75
-6.65
-8.81
-11.48
-14.76
-18.50
-22.31
-25.56
-27.56
-27.74
-25.77
-21.69
-15.86
-8.85
-1.40
5.83
12.27
17.49
21.21
23.46
24.55
25.02
25.30
25.61
25.90
25.99
25.64
24.71
23.36
21.97
21.02
20.72
20.88
21.18
21.30
20.98
19.97
18.28
16.13
13.96
11.92
9.71
7.27
4.78
2.27
-0.51
-3.67
-7.03
-9.99
-12.27
-14.12
-15.37
-15.73
-15.63
-16.14
-17.82
-19.88
-20.19
-16.84
-9.01
3.55
19.42
34.80
44.44
44.45
32.11
9.91
-14.30
-31.34
-35.75
-24.75
2.59
43.32
92.26
143.65
192.55
234.66
257.55
254.77
231.71
201.08
172.97
150.93
133.59
121.44
109.82
96.12
81.11
66.98
54.67
42.91
29.93
15.22
-0.83
-17.79
-33.96
-46.21
-51.91
-50.95
-46.01
-40.85
-38.67
-41.20
-48.94
-60.67
-73.86
-86.14
-96.13
-103.28
-106.93
-106.12
-100.26
-90.21
-77.92
-65.95
-56.90
-52.52
-53.17
-57.57
-63.45
-68.54
-71.53
-72.02
-70.34
-67.29
-63.75
-60.33
-57.17
-54.02
-50.41
-45.93
-40.27
-33.55
-26.34
-19.51
-13.96
-10.24
-8.32
-7.75
-7.94
-8.42
-9.30
-11.11
-14.33
-19.01
-24.67
-30.52
-35.91
-40.68
-44.87
-49.03
-53.63
-58.92
-64.85
-71.30
-78.14
-85.32
-92.81
-99.83
-105.64
-109.28
-109.85
-106.82
-100.22
-90.76
-79.53
-67.87
-56.10
-44.32
-31.93
-17.74
-0.34
21.59
49.02
83.23
119.95
157.32
191.45
217.63
231.55
230.57
214.61
186.34
150.32
111.58
75.17
44.14
19.86
2.36
-9.25
-16.27
-20.19
-22.44
-24.48
-26.97
-30.65
-35.83
-42.37
-49.76
-57.24
-63.81
-68.18
-68.88
-64.09
-52.79
-35.36
-14.04
7.18
23.66
31.76
30.24
20.77
7.52
-4.51
-10.93
-9.11
1.41
19.17
41.44
64.94
86.51
103.63
114.61
118.64
115.66
106.23
91.46
72.98
52.81
33.04
15.36
0.64
-11.24
-21.15
-30.10
-38.77
-47.14
-54.63
-60.46
-64.04
-65.27
-64.59
-62.76
-60.61
-58.72
-57.34
-56.37
-55.58
-54.66
-53.29
-51.04
-47.26
-41.10
-31.86
-19.36
-4.26
11.94
27.29
39.86
48.21
51.55
49.60
42.52
30.83
15.54
-1.65
-18.49
-32.58
-42.07
-46.20
-45.48
-41.42
-35.89
-30.61
-26.80
-25.13
-25.72
-28.17
-31.64
-34.94
-36.84
-36.55
-33.82
-28.87
-21.88
-12.58
-0.23
15.92
35.82
58.19
80.61
100.30
115.03
123.58
125.68
121.44
110.97
94.42
72.56
47.16
20.97
-3.03
-22.54
-36.63
-45.68
-50.78
-53.08
-53.39
-52.24
-50.08
-47.42
-44.73
-42.25
-39.89
-37.34
-34.19
-29.92
-23.87
-15.14
-3.04
12.36
29.66
46.18
58.83
65.35
65.44
60.85
54.54
49.36
46.82
46.72
47.73
48.44
48.01
46.33
43.65
40.16
35.98
31.21
26.26
21.93
19.36
19.42
22.14
26.49
30.56
32.41
30.54
24.42
14.54
2.54
-9.52
-19.73
-26.87
-30.38
-29.79
-25.30
-17.75
-8.85
0.12
8.22
15.21
21.52
28.18
37.17
49.15
62.79
74.64
82.08
83.56
78.92
68.93
55.30
42.11
33.41
32.41
39.88
56.37
79.89
105.86
127.97
140.83
144.11
139.84
130.59
116.57
98.86
77.93
54.60
30.67
-3.10
-45.86
-88.81
-112.34
-117.38
-109.46
-96.89
-83.68
-71.85
-62.32
-53.73
-45.70
-38.87
-34.99
-32.21
-27.58
-18.75
-6.16
7.38
19.50
27.73
30.35
26.01
16.46
4.24
-8.39
-20.17
-30.26
-36.83
-38.67
-35.92
-30.86
-25.56
-22.08
-21.70
-24.81
-30.56
-36.82
-41.62
-44.01
-44.59
-44.26
-44.06
-44.71
-46.36
-48.53
-50.04
-49.69
-46.59
-40.55
-31.78
-21.10
-9.73
0.96
9.82
16.31
20.53
23.03
24.43
25.03
24.82
23.59
21.29
18.35
15.48
13.42
12.36
11.78
10.56
7.51
1.98
-5.76
-14.52
-22.58
-28.38
-31.08
-30.75
-28.19
-24.51
-20.72
-17.48
-15.15
-13.88
-13.71
-14.51
-15.79
-16.82
-16.87
-15.67
-13.72
-12.23
-12.62
-15.75
-21.44
-28.39
-34.69
-38.59
-39.21
-36.74
-32.17
-26.82
-21.69
-17.24
-13.41
-9.94
-6.70
-3.83
-1.78
-1.03
-1.74
-3.51
-5.54
-6.85
-6.90
-5.76
-4.05
-2.67
-2.39
-3.48
-5.62
-8.09
-10.02
-10.73
-9.91
-7.64
-4.41
-1.17
1.09
1.74
0.89
-0.54
-1.36
-0.44
2.65
7.38
12.09
14.89
14.45
10.55
4.20
-3.45
-11.24
-18.28
-24.12
-29.27
-34.26
-39.17
-43.42
-45.78
-46.06
-44.63
-42.15
-39.50
-38.40
-40.12
-44.77
-51.07
-56.43
-59.50
-59.70
-57.04
-52.18
-47.30
-44.37
-44.31
-46.83
-50.46
-55.54
-62.87
-72.74
-76.51
-67.57
-44.83
-13.68
13.12
34.83
52.10
65.45
76.19
84.46
89.24
89.87
86.71
81.17
75.93
71.94
69.56
68.89
69.49
69.66
67.75
63.13
56.62
50.55
46.03
43.49
42.83
43.57
44.65
45.32
45.34
44.83
44.20
42.75
39.54
34.04
26.18
16.18
4.61
-7.70
-19.62
-29.67
-36.87
-40.56
-40.47
-36.83
-30.36
-21.98
-12.60
-3.13
5.60
12.59
17.11
19.16
19.68
20.27
22.37
26.43
31.45
35.46
36.49
33.75
28.06
21.34
15.48
11.33
8.29
4.88
-0.27
-7.68
-16.80
-26.51
-35.72
-43.79
-50.57
-56.04
-60.02
-61.91
-60.86
-56.05
-47.11
-34.47
-19.43
-3.96
9.80
20.19
26.58
29.40
29.88
29.53
29.51
30.45
32.45
35.32
38.73
42.25
45.19
46.61
45.46
40.96
33.00
22.36
10.45
-1.10
-10.96
-18.42
-23.40
-26.25
-27.50
-27.60
-26.82
-25.30
-23.15
-20.63
-18.18
-16.23
-14.86
-13.57
-11.27
-6.85
0.08
8.62
16.64
21.53
21.47
16.27
7.58
-2.02
-10.18
-15.88
-19.60
-22.68
-26.39
-31.28
-36.99
-42.75
-47.81
-51.67
-54.03
-54.65
-53.27
-49.76
-44.31
-37.56
-30.37
-23.59
-17.80
-13.30
-10.05
-7.76
-5.91
-3.87
-1.25
1.99
5.35
8.09
9.71
10.34
10.91
12.64
16.30
21.59
27.18
31.23
32.32
30.10
25.34
19.45
13.73
8.88
4.97
1.74
-0.99
-3.04
-3.92
-3.19
-0.80
2.71
6.34
8.95
9.75
8.65
6.33
4.07
3.18
4.37
7.29
10.55
12.27
10.93
6.23
-0.72
-7.82
-13.00
-15.15
-14.63
-12.95
-11.98
-13.06
-16.45
-21.38
-26.57
-30.75
-33.01
-32.96
-30.59
-26.27
-20.61
-14.47
-8.87
-4.75
-2.77
-3.17
-5.64
-9.37
-13.10
-15.30
-14.62
-10.50
-3.69
3.83
9.51
11.41
9.21
4.57
0.30
-1.02
1.59
7.06
12.92
16.57
16.52
12.85
6.93
0.40
-5.40
-9.72
-12.19
-12.49
-10.29
-5.36
1.99
10.84
19.61
26.50
30.16
30.18
27.36
23.44
20.46
19.82
21.98
25.88
29.41
30.30
27.07
19.78
10.18
1.18
-4.41
-4.47
0.97
9.75
18.23
22.60
20.29
11.05
-2.91
-17.99
-29.91
-35.98
-35.79
-31.24
-25.71
-22.79
-25.01
-31.41
-42.57
-55.30
-66.34
-72.84
-72.98
-66.08
-52.55
-33.64
-11.31
11.70
32.82
49.33
59.20
61.72
57.69
49.13
38.70
28.86
20.96
15.61
12.29
10.10
8.33
6.86
6.23
7.35
11.10
17.75
27.16
38.38
50.07
60.83
69.53
75.46
78.36
78.38
75.88
71.66
66.61
61.78
58.11
56.18
55.99
56.86
57.66
57.11
54.36
49.18
42.16
34.48
27.48
22.17
18.96
17.53
17.02
16.39
14.84
12.00
8.06
3.59
-0.63
-3.77
-5.28
-4.96
-3.11
-0.59
1.38
1.64
-0.67
-5.71
-13.01
-21.53
-29.93
-36.80
-40.84
-41.22
-37.88
-31.89
-25.27
-20.49
-19.52
-23.00
-29.90
-38.00
-44.98
-49.30
-50.86
-50.64
-50.02
-49.99
-50.65
-51.36
-51.21
-49.53
-46.19
-41.57
-36.27
-30.85
-25.65
-20.75
-16.12
-11.82
-8.06
-5.15
-3.37
-2.69
-2.74
-2.79
-2.07
-0.10
3.09
6.94
10.72
13.80
16.01
17.60
19.06
20.69
22.53
24.24
25.40
25.64
24.84
23.15
20.78
17.99
15.03
12.12
9.47
7.21
5.34
3.73
2.13
0.32
-1.77
-4.08
-6.46
-8.71
-10.66
-12.24
-13.42
-14.16
-14.43
-14.16
-13.36
-12.10
-10.61
-9.20
-8.22
-7.87
-8.13
-8.77
-9.38
-9.60
-9.28
-8.48
-7.42
-6.31
-5.23
-4.14
-2.96
-1.69
-0.50
0.37
0.71
0.52
-0.06
-0.74
-1.36
-1.89
-2.50
-3.34
-4.46
-5.70
-6.76
-7.40
-7.51
-7.13
-6.41
-5.48
-4.42
-3.30
-2.25
-1.47
-1.14
-1.30
-1.81
-2.43
-2.88
-2.99
-2.69
-2.01
-0.97
0.40
2.01
3.72
5.31
6.55
7.37
7.92
8.58
9.82
11.99
15.10
18.77
22.29
24.80
25.65
24.54
21.56
17.06
11.44
5.05
-1.87
-9.01
-15.93
-22.15
-27.23
-31.02
-33.67
-35.50
-36.81
-37.74
-38.28
-38.41
-38.26
-38.06
-38.02
-38.16
-38.26
-37.77
-35.90
-31.71
-24.32
-13.21
1.34
18.02
34.59
48.39
57.21
60.02
57.32
50.82
42.74
34.92
28.36
23.16
18.85
14.77
10.41
5.52
0.13
-5.60
-11.32
-16.71
-21.43
-25.26
-28.11
-30.02
-31.15
-31.74
-32.05
-32.32
-32.66
-33.04
-33.18
-32.66
-31.05
-28.16
-24.09
-19.33
-14.53
-10.30
-6.97
-4.56
-2.81
-1.40
-0.12
1.01
1.80
2.05
1.61
0.56
-0.84
-2.18
-3.10
-3.34
-2.86
-1.80
-0.44
0.91
1.97
2.57
2.64
2.24
1.44
0.35
-0.93
-2.39
-4.02
-5.80
-7.60
-9.22
-10.37
-10.74
-10.22
-8.77
-6.55
-3.80
-0.80
2.15
4.71
6.58
7.56
7.57
6.80
5.53
4.10
2.72
1.49
0.40
-0.51
-1.06
-1.04
-0.38
0.65
1.43
1.20
-0.53
-3.64
-7.38
-10.68
-12.57
-12.50
-10.53
-7.08
-2.76
1.85
6.17
9.56
11.39
11.12
8.55
4.04
-1.69
-7.77
-13.50
-18.54
-22.83
-26.39
-29.12
-30.80
-31.21
-30.29
-28.24
-25.49
-22.56
-19.83
-17.41
-15.25
-13.16
-10.98
-8.68
-6.32
-3.99
-1.79
0.23
2.03
3.56
4.77
5.65
6.21
6.51
6.60
6.48
6.13
5.49
4.57
3.36
1.88
0.09
-2.12
-4.77
-7.73
-10.56
-12.60
-13.15
-11.80
-8.61
-4.09
0.93
5.68
9.64
12.71
15.02
16.83
18.25
19.31
19.93
20.00
19.52
18.54
17.21
15.72
14.29
13.11
12.34
12.03
12.09
12.31
12.38
12.03
11.11
9.68
7.95
6.24
4.79
3.65
2.64
1.42
-0.42
-3.09
-6.57
-10.45
-14.04
-16.54
-17.25
-15.77
-12.16
-6.87
-0.64
5.70
11.38
15.87
18.91
20.53
20.93
20.50
19.62
18.60
17.60
16.61
15.51
14.22
12.75
11.23
9.86
8.74
7.82
6.96
5.96
4.70
3.16
1.44
-0.37
-2.18
-3.93
-5.56
-7.03
-8.35
-9.55
-10.79
-12.31
-14.35
-17.08
-20.44
-24.05
-27.25
-29.19
-29.09
-26.53
-21.63
-15.08
-7.92
-1.16
4.58
9.11
12.61
15.31
17.31
18.57
19.00
18.67
17.86
16.94
16.24
15.87
15.72
15.54
15.11
14.37
13.43
12.54
11.95
11.83
12.18
12.80
13.48
13.96
14.13
14.01
13.73
13.42
13.11
12.73
12.06
10.92
9.17
6.79
3.83
0.44
-3.16
-6.61
-9.40
-10.97
-10.80
-8.70
-4.82
0.31
5.97
11.44
16.17
19.86
22.43
23.92
24.39
23.95
22.74
20.94
18.79
16.58
14.59
13.01
11.85
10.98
10.16
9.18
7.99
6.76
5.76
5.23
5.15
5.22
4.96
3.93
1.93
-0.92
-4.19
-7.37
-10.00
-11.91
-13.17
-14.09
-15.01
-16.24
-17.92
-20.09
-22.59
-25.15
-27.33
-28.55
-28.25
-25.98
-21.64
-15.49
-8.11
-0.24
7.40
14.12
19.45
23.05
24.81
24.96
23.98
22.54
21.17
20.17
19.49
18.87
18.05
16.93
15.60
14.27
13.05
11.91
10.75
9.37
7.74
5.86
3.82
1.70
-0.47
-2.68
-4.93
-7.19
-9.44
-11.70
-14.09
-16.75
-19.82
-23.33
-27.10
-30.72
-33.61
-35.18
-35.00
-32.98
-29.41
-24.83
-19.84
-14.94
-10.39
-6.25
-2.51
0.76
3.35
5.04
5.71
5.50
4.75
3.94
3.45
3.45
3.86
4.42
4.86
5.04
5.01
4.85
4.63
4.28
3.62
2.48
0.86
-1.09
-3.06
-4.78
-6.13
-7.20
-8.24
-9.52
-11.24
-13.51
-16.34
-19.61
-23.12
-26.46
-29.03
-30.14
-29.24
-26.08
-20.91
-14.37
-7.32
-0.56
5.38
10.24
13.97
16.57
18.16
18.89
19.05
18.93
18.79
18.72
18.63
18.36
17.83
17.13
16.42
15.89
15.56
15.27
14.82
14.05
12.91
11.48
9.84
8.04
6.10
3.95
1.58
-0.98
-3.63
-6.21
-8.60
-10.79
-12.97
-15.44
-18.50
-22.22
-26.24
-29.81
-31.97
-31.95
-29.40
-24.61
-18.26
-11.25
-4.30
2.13
7.74
12.39
15.92
18.25
19.36
19.40
18.62
17.35
15.90
14.49
13.27
12.27
11.50
10.91
10.43
9.98
9.47
8.82
8.04
7.15
6.20
5.25
4.32
3.35
2.25
0.96
-0.53
-2.14
-3.80
-5.51
-7.34
-9.38
-11.74
-14.40
-17.33
-20.44
-23.56
-26.40
-28.49
-29.26
-28.14
-24.83
-19.47
-12.59
-4.98
2.55
9.36
15.04
19.42
22.42
24.05
24.39
23.72
22.41
20.99
19.88
19.37
19.44
19.88
20.37
20.64
20.55
20.12
19.49
18.77
18.06
17.34
16.48
15.33
13.77
11.75
9.37
6.80
4.21
1.72
-0.69
-3.14
-5.78
-8.73
-12.04
-15.67
-19.46
-23.09
-26.09
-27.85
-27.75
-25.39
-20.81
-14.46
-7.20
0.01
6.37
11.43
15.07
17.45
18.82
19.39
19.31
18.75
17.93
17.15
16.71
16.77
17.25
17.85
18.18
17.94
17.08
15.81
14.47
13.39
12.68
12.18
11.59
10.57
8.93
6.65
3.91
0.98
-1.88
-4.48
-6.73
-8.68
-10.51
-12.48
-14.87
-17.90
-21.60
-25.70
-29.59
-32.47
-33.55
-32.30
-28.63
-22.93
-15.90
-8.34
-1.00
5.62
11.17
15.48
18.49
20.21
20.81
20.59
19.94
19.23
18.71
18.48
18.49
18.61
18.71
18.70
18.52
18.15
17.60
16.92
16.21
15.58
15.08
14.69
14.22
13.45
12.20
10.45
8.38
6.31
4.56
3.31
2.46
1.76
0.89
-0.40
-2.26
-4.74
-7.81
-11.34
-15.00
-18.20
-20.15
-20.07
-17.51
-12.55
-5.87
1.48
8.43
14.21
18.50
21.38
23.13
24.02
24.19
23.71
22.62
21.09
19.35
17.66
16.21
15.02
14.06
13.19
12.30
11.30
10.18
8.93
7.55
6.10
4.61
3.15
1.75
0.37
-1.08
-2.70
-4.56
-6.66
-8.89
-11.13
-13.26
-15.20
-16.92
-18.47
-19.89
-21.32
-22.92
-24.89
-27.39
-30.45
-33.78
-36.80
-38.70
-38.69
-36.35
-31.84
-25.86
-19.39
-13.32
-8.15
-3.92
-0.42
2.48
4.74
6.12
6.44
5.73
4.39
3.00
2.10
2.02
2.73
3.96
5.29
6.32
6.78
6.58
5.84
4.81
3.76
2.88
2.24
1.74
1.19
0.42
-0.71
-2.22
-4.08
-6.16
-8.35
-10.53
-12.67
-14.79
-16.96
-19.28
-21.79
-24.39
-26.88
-28.90
-30.08
-30.00
-28.41
-25.22
-20.66
-15.19
-9.42
-3.91
0.95
5.03
8.37
11.04
13.08
14.46
15.14
15.19
14.79
14.25
13.88
13.93
14.47
15.36
16.29
16.93
17.04
16.56
15.69
14.76
14.13
14.00
14.29
14.68
14.78
14.31
13.23
11.73
10.15
8.72
7.48
6.20
4.45
1.82
-1.89
-6.49
-11.44
-16.07
-19.77
-22.32
-23.83
-24.64
-25.00
-24.81
-23.62
-20.91
-16.32
-9.75
-1.17
9.53
22.39
36.92
51.64
64.01
71.09
70.71
62.45
47.99
30.37
12.75
-2.73
-15.39
-25.54
-33.67
-39.75
-43.29
-43.73
-41.09
-36.24
-30.72
-26.14
-23.64
-23.36
-24.56
-25.94
-26.32
-25.09
-22.52
-19.52
-17.19
-16.28
-16.91
-18.63
-20.75
-22.74
-24.41
-25.78
-26.87
-27.40
-26.86
-24.78
-21.15
-16.56
-12.05
-8.63
-6.77
-6.11
-5.67
-4.34
-1.29
3.65
10.13
17.40
24.59
30.70
34.73
35.77
33.29
27.46
19.29
10.42
2.59
-2.88
-5.48
-5.55
-3.96
-1.63
0.80
3.06
5.23
7.42
9.62
11.64
13.15
13.82
13.38
11.65
8.60
4.38
-0.48
-5.07
-8.10
-8.28
-4.88
1.86
10.51
18.81
24.53
26.31
24.26
19.82
15.00
11.56
10.31
11.15
13.56
17.14
21.89
27.91
35.06
42.49
48.82
52.64
53.12
50.41
45.54
39.85
34.44
29.76
25.57
21.29
16.34
10.50
3.87
-3.17
-10.28
-17.16
-23.59
-29.26
-33.68
-36.35
-37.00
-35.81
-33.44
-30.79
-28.74
-27.79
-28.03
-29.27
-31.12
-33.09
-34.59
-35.11
-34.30
-32.31
-29.83
-27.86
-27.18
-27.95
-29.50
-30.64
-30.31
-28.14
-24.65
-21.02
-18.45
-17.57
-18.17
-19.31
-19.86
-18.95
-16.29
-12.18
-7.27
-2.22
2.46
6.46
9.66
11.90
13.05
13.05
11.97
10.16
8.02
5.96
4.13
2.44
0.67
-1.43
-3.88
-6.43
-8.71
-10.30
-10.99
-10.77
-9.90
-8.71
-7.56
-6.76
-6.53
-6.95
-7.90
-9.00
-9.58
-8.86
-6.22
-1.45
5.06
12.39
19.35
24.84
28.16
29.10
27.92
25.13
21.36
17.15
13.02
9.43
6.80
5.48
5.71
7.47
10.43
13.90
16.97
18.76
18.70
16.78
13.58
10.08
7.29
5.90
6.07
7.42
9.30
11.01
12.03
12.11
11.16
9.22
6.40
2.94
-0.81
-4.39
-7.35
-9.27
-9.90
-9.08
-6.76
-2.97
2.10
7.92
13.67
18.30
20.88
20.96
18.74
15.06
11.05
7.79
5.93
5.63
6.66
8.59
10.93
13.21
14.97
15.79
15.40
13.78
11.21
8.24
5.41
3.05
1.09
-0.80
-3.01
-5.67
-8.54
-11.13
-12.97
-13.87
-14.10
-14.21
-14.78
-16.19
-18.43
-21.13
-23.66
-25.27
-25.22
-22.98
-18.34
-11.48
-3.04
6.04
14.76
22.23
27.72
30.80
31.21
28.87
23.90
16.59
7.46
-2.89
-13.73
-24.32
-33.88
-41.69
-47.24
-50.29
-50.99
-49.80
-47.30
-44.01
-40.20
-35.94
-31.30
-26.49
-21.93
-18.14
-15.44
-13.77
-12.66
-11.52
-9.96
-8.01
-6.08
-4.72
-4.31
-4.89
-6.18
-7.71
-8.97
-9.51
-9.01
-7.29
-4.35
-0.47
3.89
8.15
11.82
14.66
16.68
18.05
18.95
19.45
19.51
19.07
18.16
16.96
15.71
14.64
13.82
13.14
12.39
11.40
10.14
8.76
7.47
6.44
5.71
5.18
4.70
4.12
3.36
2.42
1.37
0.28
-0.79
-1.80
-2.76
-3.71
-4.72
-5.80
-6.91
-7.87
-8.46
-8.39
-7.40
-5.36
-2.32
1.47
5.57
9.44
12.62
14.85
16.03
16.27
15.71
14.53
12.87
10.92
8.89
7.02
5.52
4.52
3.99
3.77
3.67
3.47
3.08
2.52
1.88
1.34
1.02
0.89
0.83
0.60
-0.03
-1.14
-2.59
-4.09
-5.38
-6.30
-6.96
-7.59
-8.44
-9.56
-10.77
-11.70
-11.88
-10.95
-8.77
-5.51
-1.59
2.47
6.14
9.01
10.90
11.84
11.94
11.35
10.20
8.64
6.88
5.20
3.89
3.17
3.04
3.30
3.65
3.76
3.45
2.72
1.71
0.68
-0.19
-0.79
-1.15
-1.40
-1.68
-2.06
-2.50
-2.89
-3.10
-3.11
-3.04
-3.12
-3.57
-4.44
-5.71
-7.19
-8.73
-10.12
-11.20
-11.75
-11.51
-10.30
-8.09
-5.09
-1.71
1.60
4.46
6.65
8.13
8.99
9.35
9.32
8.97
8.37
7.54
6.48
5.22
3.86
2.58
1.60
1.03
0.85
0.87
0.83
0.57
0.09
-0.49
-1.03
-1.51
-2.04
-2.79
-3.84
-5.11
-6.33
-7.24
-7.70
-7.74
-7.59
-7.50
-7.62
-7.96
-8.39
-8.82
-9.23
-9.67
-10.17
-10.64
-10.81
-10.39
-9.20
-7.29
-4.92
-2.42
-0.01
2.25
4.40
6.41
8.02
8.88
8.71
7.47
5.49
3.29
1.42
0.20
-0.35
-0.41
-0.23
-0.02
0.11
0.14
0.05
-0.14
-0.42
-0.74
-1.08
-1.46
-1.90
-2.46
-3.16
-3.97
-4.79
-5.54
-6.15
-6.63
-7.03
-7.51
-8.15
-8.99
-9.97
-10.92
-11.61
-11.77
-11.21
-9.84
-7.73
-5.10
-2.24
0.51
2.95
4.93
6.42
7.48
8.13
8.41
8.31
7.84
7.05
6.02
4.86
3.71
2.70
1.94
1.45
1.13
0.74
0.04
-1.01
-2.16
-2.98
-3.10
-2.51
-1.61
-1.05
-1.34
-2.57
-4.43
-6.38
-8.01
-9.33
-10.59
-12.20
-14.39
-17.20
-20.45
-23.80
-26.73
-28.48
-28.18
-25.06
-18.77
-9.68
1.08
11.79
20.56
25.85
26.91
24.08
18.73
12.88
8.58
7.13
8.68
12.16
15.84
18.01
17.53
14.11
7.92
-0.65
-11.14
-22.81
-34.42
-44.30
-50.85
-53.20
-51.66
-47.53
-42.24
-36.39
-29.40
-19.93
-6.88
9.70
28.32
46.63
62.38
74.10
81.20
83.61
81.36
74.45
63.19
48.56
32.38
17.02
4.82
-2.55
-4.48
-1.45
5.27
13.89
22.52
29.41
33.26
33.25
29.18
21.35
10.52
-2.22
-15.60
-28.29
-39.10
-47.18
-52.14
-54.05
-53.37
-50.75
-46.82
-42.19
-37.36
-32.80
-28.93
-26.05
-24.23
-23.34
-23.03
-22.95
-22.88
-22.86
-23.02
-23.55
-24.45
-25.59
-26.76
-27.83
-28.89
-30.16
-31.95
-34.50
-37.81
-41.75
-45.97
-50.07
-53.57
-55.95
-56.68
-55.31
-51.51
-45.16
-36.37
-25.45
-12.90
0.62
14.34
27.41
39.07
48.70
56.04
61.08
64.10
65.46
65.48
64.38
62.24
59.11
55.06
50.27
45.02
39.68
34.60
30.04
26.06
22.54
19.23
15.88
12.31
8.51
4.58
0.64
-3.23
-7.06
-10.95
-14.99
-19.25
-23.75
-28.41
-33.09
-37.45
-41.02
-43.18
-43.32
-41.09
-36.53
-30.10
-22.54
-14.62
-6.90
0.30
6.91
12.89
18.14
22.54
25.95
28.40
30.06
31.24
32.19
33.05
33.78
34.16
34.01
33.25
31.98
30.44
28.87
27.40
25.90
24.10
21.66
18.40
14.38
9.91
5.39
1.17
-2.63
-6.09
-9.36
-12.64
-16.07
-19.80
-23.95
-28.60
-33.68
-38.82
-43.33
-46.32
-46.97
-44.75
-39.65
-32.17
-23.15
-13.60
-4.39
3.83
10.70
16.09
20.05
22.72
24.31
25.08
25.28
25.16
24.94
24.81
24.79
24.83
24.83
24.69
24.43
24.14
23.95
23.89
23.81
23.42
22.42
20.62
18.04
14.95
11.63
8.35
5.19
2.12
-0.98
-4.18
-7.51
-10.95
-14.45
-17.98
-21.53
-25.16
-29.02
-33.31
-38.22
-43.73
-49.51
-54.80
-58.52
-59.59
-57.23
-51.25
-42.19
-31.10
-19.32
-8.08
1.74
9.70
15.82
20.34
23.57
25.81
27.30
28.26
28.96
29.66
30.53
31.61
32.73
33.68
34.25
34.46
34.43
34.41
34.47
34.52
34.24
33.26
31.37
28.63
25.38
22.04
18.90
16.03
13.31
10.48
7.39
3.99
0.38
-3.35
-7.12
-10.89
-14.64
-18.34
-22.04
-25.90
-30.23
-35.34
-41.36
-48.00
-54.44
-59.51
-61.95
-60.77
-55.57
-46.70
-35.12
-22.22
-9.39
2.28
12.14
20.01
25.96
30.15
32.75
33.97
34.16
33.86
33.62
33.88
34.74
35.95
37.11
37.86
38.10
37.97
37.73
37.62
37.66
37.65
37.24
36.15
34.22
31.49
28.19
24.61
20.99
17.40
13.78
9.97
5.86
1.45
-3.08
-7.50
-11.57
-15.20
-18.48
-21.67
-25.18
-29.43
-34.70
-40.97
-47.77
-54.19
-58.94
-60.75
-58.65
-52.31
-42.21
-29.54
-15.83
-2.54
9.27
19.06
26.74
32.43
36.35
38.70
39.74
39.84
39.44
39.01
38.92
39.28
39.92
40.51
40.71
40.38
39.66
38.85
38.23
37.88
37.54
36.76
35.09
32.30
28.55
24.28
19.99
16.06
12.57
9.36
6.15
2.74
-1.00
-5.02
-9.15
-13.17
-16.91
-20.28
-23.32
-26.25
-29.44
-33.33
-38.25
-44.25
-50.97
-57.49
-62.58
-64.97
-63.68
-58.37
-49.47
-38.06
-25.52
-13.17
-1.91
7.81
15.93
22.56
27.78
31.61
34.08
35.34
35.70
35.68
35.73
36.11
36.78
37.47
37.86
37.74
37.19
36.42
35.70
35.15
34.68
34.04
32.88
30.99
28.30
25.01
21.44
17.95
14.82
12.12
9.71
7.32
4.68
1.63
-1.84
-5.59
-9.47
-13.36
-17.20
-21.01
-24.84
-28.73
-32.78
-37.13
-41.96
-47.39
-53.28
-59.11
-63.95
-66.72
-66.44
-62.64
-55.53
-45.89
-34.89
-23.68
-13.15
-3.94
3.60
9.27
12.97
14.81
15.09
14.34
13.16
12.07
11.38
11.15
11.29
11.61
11.96
12.34
12.83
13.58
14.66
15.96
17.26
18.17
18.40
17.79
16.42
14.53
12.41
10.26
8.12
5.90
3.43
0.58
-2.75
-6.56
-10.74
-15.01
-19.00
-22.30
-24.61
-25.89
-26.40
-26.60
-26.98
-27.83
-29.01
-29.97
-29.81
-27.54
-22.40
-14.18
-3.35
9.02
21.51
32.72
41.62
47.78
51.27
52.55
52.17
50.64
48.33
45.53
42.49
39.47
36.73
34.45
32.66
31.29
30.14
29.02
27.89
26.82
25.92
25.20
24.46
23.35
21.57
19.02
15.92
12.66
9.57
6.75
4.02
1.02
-2.54
-6.70
-11.23
-15.79
-19.99
-23.67
-26.84
-29.76
-32.82
-36.44
-40.89
-46.07
-51.42
-55.97
-58.59
-58.39
-54.96
-48.50
-39.72
-29.61
-19.10
-8.96
0.27
8.19
14.56
19.25
22.31
24.00
24.72
24.96
25.11
25.39
25.87
26.41
26.87
27.11
27.10
26.89
26.54
26.13
25.63
24.98
24.06
22.77
21.09
19.05
16.77
14.33
11.78
9.05
6.05
2.65
-1.16
-5.28
-9.49
-13.55
-17.32
-20.81
-24.18
-27.68
-31.58
-36.07
-41.16
-46.68
-52.12
-56.71
-59.46
-59.47
-56.18
-49.59
-40.38
-29.62
-18.51
-8.06
1.14
8.84
15.05
19.81
23.20
25.33
26.38
26.64
26.49
26.33
26.41
26.82
27.44
28.03
28.42
28.48
28.27
27.88
27.36
26.59
25.41
23.62
21.18
18.25
15.11
12.03
9.16
6.45
3.71
0.72
-2.68
-6.55
-10.84
-15.38
-19.95
-24.31
-28.31
-31.99
-35.57
-39.44
-43.93
-49.11
-54.63
-59.68
-63.16
-64.01
-61.50
-55.55
-46.70
-36.00
-24.67
-13.73
-3.89
4.50
11.33
16.60
20.33
22.66
23.87
24.38
24.71
25.23
26.08
27.11
28.00
28.44
28.30
27.71
26.91
26.16
25.61
25.19
24.69
23.86
22.52
20.65
18.31
15.64
12.75
9.68
6.39
2.86
-0.96
-4.99
-9.11
-13.09
-16.71
-19.78
-22.32
-24.55
-26.92
-29.99
-34.21
-39.73
-46.20
-52.78
-58.24
-61.29
-60.91
-56.69
-49.00
-38.81
-27.44
-16.13
-5.75
3.26
10.79
16.85
21.45
24.55
26.24
26.79
26.61
26.21
25.95
26.00
26.33
26.83
27.37
27.90
28.38
28.76
28.93
28.74
28.04
26.74
24.84
22.42
19.58
16.45
13.10
9.60
5.96
2.25
-1.46
-5.09
-8.59
-12.00
-15.48
-19.26
-23.55
-28.49
-34.06
-40.04
-46.03
-51.37
-55.20
-56.61
-54.89
-49.81
-41.80
-31.81
-21.08
-10.74
-1.50
6.41
13.02
18.49
22.93
26.34
28.75
30.22
30.96
31.22
31.27
31.30
31.41
31.63
31.91
32.20
32.45
32.58
32.46
31.94
30.81
28.94
26.31
23.10
19.61
16.18
12.96
9.88
6.68
3.08
-1.06
-5.60
-10.25
-14.67
-18.68
-22.42
-26.21
-30.53
-35.73
-41.85
-48.50
-54.79
-59.53
-61.50
-59.76
-54.07
-44.89
-33.37
-20.92
-8.82
2.05
11.37
19.17
25.65
30.96
35.14
38.14
39.99
40.81
40.92
40.69
40.49
40.54
40.85
41.29
41.61
41.60
41.18
40.42
39.46
38.39
37.23
35.84
34.04
31.70
28.84
25.61
22.18
18.75
15.38
12.06
8.74
5.35
1.86
-1.77
-5.54
-9.44
-13.43
-17.47
-21.46
-25.35
-29.13
-32.89
-36.85
-41.27
-46.41
-52.30
-58.64
-64.72
-69.47
-71.69
-70.39
-65.17
-56.36
-44.97
-32.38
-19.87
-8.37
1.74
10.43
17.88
24.22
29.50
33.70
36.90
39.27
41.06
42.45
43.57
44.41
44.93
45.12
45.04
44.80
44.52
44.23
43.89
43.38
42.52
41.19
39.31
36.96
34.33
31.67
29.21
27.09
25.29
23.66
21.95
19.89
17.30
14.12
10.46
6.57
2.79
-0.59
-3.44
-5.86
-8.16
-10.75
-13.92
-17.75
-22.03
-26.41
-30.52
-34.17
-37.40
-40.45
-43.68
-47.42
-51.89
-57.08
-62.62
-67.76
-71.44
-72.56
-70.28
-64.34
-55.24
-44.01
-31.96
-20.26
-9.70
-0.59
7.07
13.42
18.61
22.71
25.79
27.96
29.45
30.56
31.57
32.61
33.68
34.65
35.40
35.93
36.31
36.64
36.98
37.27
37.35
37.02
36.15
34.70
32.71
30.29
27.60
24.78
21.99
19.38
17.02
14.93
13.02
11.17
9.23
7.12
4.79
2.27
-0.34
-2.97
-5.59
-8.23
-11.02
-14.04
-17.33
-20.79
-24.25
-27.54
-30.59
-33.47
-36.37
-39.52
-43.14
-47.30
-51.93
-56.69
-61.01
-64.11
-65.13
-63.39
-58.62
-51.06
-41.47
-30.85
-20.22
-10.35
-1.68
5.64
11.67
16.49
20.18
22.85
24.63
25.74
26.46
27.04
27.64
28.27
28.84
29.27
29.54
29.77
30.13
30.73
31.50
32.18
32.45
32.02
30.80
28.93
26.68
24.37
22.23
20.35
18.65
16.98
15.12
12.96
10.49
7.81
5.11
2.55
0.19
-2.03
-4.23
-6.57
-9.13
-11.89
-14.79
-17.69
-20.54
-23.32
-26.07
-28.91
-31.96
-35.38
-39.23
-43.41
-47.51
-50.81
-52.42
-51.51
-47.70
-41.13
-32.53
-22.91
-13.28
-4.42
3.20
9.36
13.98
17.12
18.96
19.80
20.01
19.97
19.92
19.98
20.20
20.59
21.17
21.92
22.76
23.53
24.06
24.25
24.06
23.56
22.83
21.93
20.88
19.64
18.17
16.38
14.26
11.80
9.11
6.33
3.59
1.00
-1.45
-3.84
-6.26
-8.79
-11.44
-14.17
-16.94
-19.70
-22.45
-25.22
-28.08
-31.14
-34.51
-38.29
-42.51
-47.03
-51.47
-55.20
-57.46
-57.49
-54.84
-49.46
-41.78
-32.61
-22.90
-13.47
-4.93
2.42
8.50
13.30
16.86
19.26
20.62
21.17
21.21
21.10
21.15
21.55
22.30
23.25
24.17
24.87
25.29
25.52
25.65
25.73
25.68
25.33
24.53
23.26
21.63
19.84
18.06
16.32
14.54
12.55
10.25
7.66
4.92
2.17
-0.51
-3.14
-5.81
-8.60
-11.50
-14.45
-17.34
-20.12
-22.77
-25.37
-28.04
-30.94
-34.19
-37.96
-42.32
-47.19
-52.24
-56.86
-60.25
-61.56
-60.14
-55.77
-48.71
-39.65
-29.52
-19.22
-9.51
-0.88
6.41
12.25
16.66
19.77
21.82
23.15
24.07
24.80
25.43
25.95
26.35
26.68
27.07
27.63
28.36
29.16
29.86
30.26
30.23
29.70
28.65
27.11
25.15
22.89
20.50
18.15
15.93
13.85
11.82
9.74
7.51
5.10
2.52
-0.19
-2.99
-5.80
-8.56
-11.23
-13.80
-16.36
-19.02
-21.92
-25.11
-28.57
-32.25
-36.17
-40.39
-45.03
-50.11
-55.36
-60.14
-63.55
-64.64
-62.75
-57.75
-50.11
-40.74
-30.71
-20.91
-11.93
-4.02
2.81
8.53
13.13
16.55
18.83
20.16
20.88
21.40
22.04
22.94
24.05
25.18
26.18
26.98
27.65
28.26
28.87
29.39
29.62
29.34
28.43
26.92
24.92
22.65
20.26
17.84
15.43
13.07
10.81
8.63
6.44
4.04
1.25
-1.99
-5.53
-9.08
-12.32
-15.10
-17.50
-19.75
-22.16
-24.94
-28.20
-31.91
-36.04
-40.54
-45.26
-49.85
-53.66
-55.86
-55.59
-52.32
-46.04
-37.33
-27.20
-16.76
-6.95
1.67
8.93
14.85
19.49
22.91
25.17
26.42
26.96
27.22
27.64
28.50
29.87
31.61
33.43
35.06
36.30
37.12
37.51
37.54
37.24
36.62
35.65
34.29
32.48
30.22
27.53
24.55
21.43
18.42
15.66
13.21
10.95
8.66
6.16
3.32
0.21
-3.07
-6.33
-9.49
-12.53
-15.55
-18.67
-22.10
-26.03
-30.64
-35.98
-41.86
-47.80
-53.03
-56.61
-57.68
-55.68
-50.53
-42.65
-32.89
-22.27
-11.81
-2.23
6.03
12.89
18.40
22.69
25.81
27.80
28.73
28.87
28.65
28.57
28.98
29.99
31.38
32.85
34.06
34.88
35.29
35.35
35.10
34.52
33.59
32.32
30.79
29.03
27.04
24.79
22.25
19.48
16.63
13.86
11.22
8.61
5.87
2.85
-0.46
-3.94
-7.39
-10.70
-13.90
-17.11
-20.53
-24.25
-28.26
-32.46
-36.81
-41.34
-46.19
-51.41
-56.77
-61.65
-65.06
-65.96
-63.58
-57.75
-48.96
-38.23
-26.74
-15.55
-5.38
3.41
10.75
16.70
21.34
24.79
27.21
28.85
30.03
31.07
32.24
33.61
35.06
36.34
37.19
37.54
37.45
37.14
36.78
36.45
36.03
35.38
34.35
32.92
31.15
29.10
26.88
24.52
22.10
19.68
17.30
14.97
12.57
9.97
7.12
4.09
1.02
-1.92
-4.71
-7.47
-10.44
-13.81
-17.58
-21.53
-25.32
-28.67
-31.54
-34.13
-36.88
-40.29
-44.71
-50.21
-56.44
-62.62
-67.66
-70.36
-69.74
-65.37
-57.49
-47.01
-35.20
-23.38
-12.55
-3.25
4.40
10.51
15.25
18.80
21.33
23.08
24.38
25.56
26.86
28.30
29.73
30.96
31.82
32.35
32.72
33.11
33.65
34.27
34.77
34.89
34.44
33.35
31.68
29.61
27.38
25.16
23.06
21.09
19.17
17.21
15.21
13.13
10.99
8.71
6.17
3.25
-0.05
-3.58
-7.09
-10.33
-13.17
-15.70
-18.15
-20.84
-24.05
-27.98
-32.68
-37.99
-43.48
-48.42
-51.88
-52.92
-50.92
-45.77
-37.94
-28.34
-18.05
-8.02
1.05
8.79
15.06
19.79
22.98
24.68
25.08
24.52
23.52
22.62
22.26
22.63
23.64
24.98
26.28
27.20
27.61
27.52
27.10
26.51
25.90
25.29
24.60
23.71
22.43
20.63
18.27
15.40
12.22
8.98
5.97
3.37
1.21
-0.66
-2.52
-4.69
-7.45
-10.85
-14.75
-18.81
-22.65
-25.98
-28.73
-31.12
-33.58
-36.62
-40.58
-45.52
-51.02
-56.23
-60.04
-61.35
-59.39
-53.97
-45.57
-35.17
-24.01
-13.22
-3.62
4.38
10.71
15.51
18.98
21.33
22.78
23.55
23.88
24.04
24.21
24.54
25.05
25.71
26.44
27.13
27.69
28.05
28.19
28.14
27.90
27.43
26.65
25.45
23.75
21.56
19.01
16.27
13.56
11.02
8.65
6.36
3.97
1.31
-1.71
-5.07
-8.66
-12.32
-15.87
-19.16
-22.16
-24.92
-27.59
-30.42
-33.71
-37.68
-42.42
-47.73
-53.03
-57.45
-59.93
-59.56
-55.86
-48.91
-39.39
-28.34
-16.92
-6.07
3.58
11.75
18.39
23.62
27.66
30.75
33.20
35.29
37.28
39.34
41.58
44.03
46.70
49.55
52.57
55.72
58.99
62.31
65.58
68.68
71.50
73.95
76.05
77.92
79.76
81.85
84.48
87.78
91.64
95.64
99.15
101.48
102.18
101.14
98.54
94.66
89.56
83.01
74.56
63.89
51.03
36.52
21.20
5.94
-8.67
-22.41
-35.37
-47.76
-59.71
-71.25
-82.18
-92.15
-100.66
-107.19
-111.29
-112.74
-111.64
-108.43
-103.77
-98.43
-93.11
-88.25
-84.08
-80.60
-77.71
-75.30
-73.30
-71.68
-70.37
-69.19
-67.74
-65.47
-61.75
-56.13
-48.46
-39.06
-28.75
-18.64
-10.03
-4.01
-1.28
-1.95
-5.61
-11.42
-18.32
-25.28
-31.41
-36.12
-39.09
-40.36
-40.20
-39.05
-37.39
-35.60
-33.89
-32.35
-30.96
-29.64
-28.40
-27.29
-26.49
-26.33
-27.19
-29.42
-33.07
-37.82
-42.91
-47.29
-49.85
-49.71
-46.51
-40.40
-32.03
-22.31
-12.14
-2.19
7.05
15.34
22.49
28.36
32.88
36.17
38.54
40.47
42.43
44.64
46.96
48.94
49.92
49.26
46.54
41.63
34.75
26.38
17.16
7.64
-1.86
-11.37
-21.15
-31.48
-42.32
-53.26
-63.61
-72.74
-80.42
-86.95
-93.01
-99.33
-106.36
-114.04
-121.90
-129.40
-136.19
-142.32
-148.13
-154.08
-160.38
-166.88
-172.94
-177.53
-179.39
-177.32
-170.43
-158.34
-141.34
-120.31
-96.57
-71.55
-46.53
-22.47
0.02
20.59
39.03
55.23
69.15
80.87
90.51
98.16
103.85
107.57
109.44
109.75
108.99
107.74
106.38
105.06
103.58
101.64
98.93
95.22
90.43
84.46
77.22
68.72
59.16
49.04
39.16
30.34
23.21
17.99
14.50
12.20
10.41
8.48
6.00
2.94
-0.32
-2.96
-3.98
-2.39
2.42
10.55
21.52
34.46
48.36
62.33
75.70
88.11
99.41
109.59
118.74
126.96
134.32
140.89
146.72
151.99
156.99
162.08
167.57
173.53
179.73
185.63
190.63
194.22
196.16
196.46
195.30
192.91
189.56
185.62
181.57
177.97
175.27
173.59
172.51
171.04
167.88
161.76
151.80
137.74
119.98
99.37
76.93
53.64
30.32
7.67
-13.67
-33.00
-49.59
-62.82
-72.24
-77.71
-79.39
-77.82
-73.96
-69.16
-65.03
-63.14
-64.62
-69.80
-78.03
-87.90
-97.66
-105.81
-111.64
-115.50
-118.72
-123.25
-130.78
-141.90
-155.44
-168.55
-177.50
-178.96
-171.32
-155.22
-133.27
-108.93
-85.23
-64.02
-45.80
-30.32
-17.17
-6.21
2.50
8.94
13.31
15.84
16.57
15.18
11.19
4.34
-5.11
-16.47
-29.07
-42.80
-58.25
-76.41
-97.81
-121.87
-146.64
-169.07
-185.79
-193.85
-191.45
-178.19
-155.15
-124.70
-90.13
-55.08
-22.86
4.16
24.92
39.57
49.18
55.24
59.29
62.69
66.37
70.68
75.34
79.51
82.00
81.67
77.78
70.40
60.47
49.43
38.58
28.72
19.96
11.94
4.24
-3.20
-9.99
-15.25
-18.29
-18.93
-17.54
-14.79
-11.29
-7.52
-3.81
-0.43
2.68
5.29
6.92
7.23
6.38
5.22
4.71
5.55
8.10
13.01
20.08
28.18
36.00
42.80
49.04
55.54
63.07
72.00
83.22
96.15
108.56
117.80
122.16
121.91
118.16
112.56
107.13
105.39
109.28
117.92
128.21
136.23
139.20
135.26
124.36
99.26
62.43
24.96
-1.73
-12.74
-14.50
-12.41
-9.67
-7.41
-5.71
-2.60
2.90
10.10
17.49
23.88
29.46
34.13
37.33
38.16
36.87
33.15
25.94
14.50
-0.67
-17.22
-32.55
-44.60
-52.13
-54.12
-50.78
-43.56
-34.42
-25.04
-16.26
-8.76
-3.09
0.50
2.45
3.23
2.95
1.32
-2.21
-8.11
-16.83
-28.56
-43.00
-59.17
-75.90
-92.10
-106.97
-120.03
-130.98
-139.84
-146.81
-152.21
-156.38
-159.49
-161.42
-161.72
-159.67
-154.54
-145.72
-133.07
-116.90
-97.99
-77.24
-55.54
-33.50
-11.44
10.50
32.18
53.30
73.45
92.10
108.86
123.52
136.03
146.45
154.86
161.35
166.04
169.02
170.13
168.70
163.57
153.38
137.24
115.21
88.60
59.53
30.36
2.91
-21.79
-43.31
-61.49
-76.15
-87.17
-94.66
-99.26
-101.95
-103.78
-105.30
-106.40
-106.38
-104.33
-99.65
-92.39
-83.24
-73.32
-63.81
-55.61
-49.17
-44.56
-41.62
-40.19
-40.18
-41.45
-43.63
-45.92
-47.23
-46.45
-42.95
-37.00
-29.66
-22.50
-16.88
-13.43
-11.86
-11.25
-10.51
-8.80
-5.74
-1.39
3.99
10.01
16.18
21.82
26.08
28.18
27.61
24.31
18.61
10.97
1.74
-8.94
-20.95
-33.87
-46.67
-57.88
-66.01
-70.15
-70.48
-68.18
-65.03
-62.55
-61.51
-61.69
-62.14
-61.82
-60.08
-56.94
-52.97
-48.93
-45.45
-42.89
-41.37
-40.92
-41.61
-43.54
-46.66
-50.69
-55.03
-58.93
-61.75
-63.28
-63.85
-64.27
-65.49
-68.27
-72.89
-79.04
-86.00
-92.81
-98.57
-102.53
-104.17
-103.10
-99.09
-92.06
-82.25
-70.20
-56.81
-43.10
-30.01
-18.16
-7.72
1.45
9.57
16.64
22.30
25.89
26.81
24.95
20.88
15.92
11.70
9.67
10.62
14.48
20.47
27.30
33.90
39.75
44.79
49.34
53.93
59.33
66.36
75.49
86.29
97.46
107.16
113.80
116.95
117.96
119.90
126.46
140.56
162.66
191.06
222.64
253.82
281.33
302.67
316.34
321.62
318.43
306.26
285.90
259.78
230.93
201.36
171.28
139.41
103.88
63.41
16.16
-36.42
-89.10
-135.23
-170.15
-192.52
-203.80
-207.10
-205.87
-206.34
-211.59
-220.09
-228.11
-233.28
-235.51
-235.85
-235.55
-235.66
-241.64
-256.25
-277.26
-299.32
-317.55
-328.40
-329.12
-317.94
-266.96
-172.21
-57.87
43.51
115.61
159.62
183.86
196.34
202.20
203.94
198.31
184.49
166.71
151.45
142.82
141.01
143.41
146.14
145.32
134.93
113.12
83.97
54.82
31.82
17.55
11.48
11.09
13.30
13.45
9.50
2.93
-3.25
-6.23
-5.17
-0.32
7.58
17.63
27.72
36.20
42.35
45.40
45.03
41.07
34.10
25.68
18.07
12.95
11.34
13.17
17.13
21.21
23.23
22.10
18.08
12.54
7.32
3.82
2.67
3.71
6.47
10.39
15.27
21.04
27.53
34.14
39.81
43.36
43.95
41.88
37.75
32.81
28.19
24.17
20.06
14.47
6.04
-5.63
-19.63
-33.92
-45.99
-53.84
-56.79
-55.56
-51.79
-47.17
-42.76
-38.66
-34.28
-28.89
-22.09
-14.15
-5.95
1.11
5.50
5.86
1.45
-7.39
-19.01
-30.51
-38.54
-40.25
-34.37
-21.76
-4.96
12.70
28.29
40.03
47.41
50.79
50.80
47.89
42.37
34.77
26.05
17.57
10.79
6.70
5.42
6.60
9.32
12.46
15.15
16.89
17.58
17.33
16.33
14.72
12.63
10.08
7.07
3.53
-0.69
-5.76
-11.80
-18.71
-26.14
-33.55
-40.50
-46.71
-52.15
-56.90
-61.00
-64.37
-66.83
-68.20
-68.42
-67.58
-65.92
-63.67
-61.05
-58.20
-55.21
-52.15
-49.01
-45.72
-42.19
-38.30
-33.99
-29.27
-24.30
-19.38
-14.97
-11.70
-10.20
-10.83
-13.47
-17.30
-20.98
-23.01
-22.22
-18.25
-11.58
-3.25
5.53
13.88
21.35
27.80
33.20
37.42
40.24
41.48
41.08
39.19
36.13
32.33
28.26
24.38
21.09
18.69
17.29
16.83
17.03
17.48
17.72
17.37
16.17
14.10
11.28
7.93
4.25
0.34
-3.86
-8.49
-13.69
-19.52
-25.84
-32.33
-38.44
-43.44
-46.55
-47.05
-44.56
-39.09
-31.14
-21.56
-11.34
-1.42
7.44
14.72
20.17
23.81
25.85
26.66
26.69
26.35
25.95
25.67
25.57
25.64
25.82
26.08
26.42
26.81
27.22
27.56
27.69
27.35
26.28
24.25
21.24
17.42
13.21
9.13
5.60
2.76
0.38
-2.06
-5.16
-9.34
-14.60
-20.40
-25.72
-29.30
-29.96
-26.94
-20.16
-10.22
1.72
14.33
26.40
37.12
46.15
53.49
59.31
63.78
67.04
69.25
70.60
71.36
71.80
72.10
72.30
72.30
71.94
71.07
69.64
67.71
65.42
62.89
60.20
57.28
53.96
50.03
45.33
39.83
33.65
27.06
20.39
13.90
7.71
1.74
-4.22
-10.44
-17.08
-24.19
-31.69
-39.46
-47.41
-55.55
-63.92
-72.56
-81.41
-90.22
-98.54
-105.71
-110.86
-113.07
-111.52
-105.79
-96.09
-83.26
-68.68
-53.84
-39.98
-27.85
-17.58
-8.93
-1.52
4.96
10.63
15.45
19.44
22.64
25.26
27.50
29.51
31.36
33.04
34.55
35.96
37.33
38.61
39.62
40.06
39.72
38.55
36.71
34.47
32.11
29.82
27.70
25.77
24.02
22.38
20.71
18.83
16.60
14.04
11.32
8.68
6.34
4.27
2.30
0.18
-2.31
-5.20
-8.42
-11.81
-15.21
-18.52
-21.70
-24.71
-27.61
-30.50
-33.61
-37.21
-41.37
-45.84
-49.86
-52.34
-52.21
-48.77
-42.07
-32.90
-22.53
-12.24
-3.01
4.75
11.04
16.15
20.33
23.80
26.69
29.12
31.24
33.18
35.06
36.95
38.85
40.78
42.74
44.78
46.95
49.30
51.83
54.47
57.13
59.69
62.05
64.20
66.24
68.32
70.59
73.12
75.88
78.71
81.45
84.05
86.66
89.54
93.05
97.42
102.70
108.58
114.43
119.41
122.54
123.04
120.45
114.81
106.65
96.79
86.16
75.51
65.30
55.67
46.57
37.88
29.56
21.64
14.22
7.39
1.09
-4.92
-11.04
-17.76
-25.39
-33.99
-43.23
-52.53
-61.26
-68.97
-75.55
-81.15
-86.08
-90.59
-94.75
-98.51
-101.78
-104.53
-106.86
-108.83
-110.42
-111.36
-111.16
-109.27
-105.25
-98.99
-90.73
-81.05
-70.56
-59.78
-48.91
-37.91
-26.68
-15.29
-4.10
6.27
15.24
22.48
28.18
33.01
37.87
43.58
50.54
58.61
67.11
74.96
81.03
84.29
84.06
80.15
72.94
63.33
52.57
41.91
32.13
23.27
14.57
4.82
-7.05
-21.39
-37.62
-54.37
-69.99
-83.17
-93.27
-100.47
-105.39
-108.75
-110.97
-112.04
-111.64
-109.33
-104.87
-98.29
-89.98
-80.49
-70.35
-60.01
-49.74
-39.86
-30.70
-22.70
-16.18
-11.20
-7.37
-3.86
0.41
6.37
14.40
24.09
34.39
43.89
51.45
56.52
59.26
60.14
59.58
57.53
53.58
47.20
38.15
26.62
13.17
-1.46
-16.45
-30.83
-43.31
-52.41
-56.74
-55.56
-49.19
-38.98
-26.85
-14.54
-3.07
7.36
16.98
25.96
34.04
40.48
44.44
45.35
43.10
38.02
30.56
21.10
9.85
-3.01
-17.15
-32.04
-47.02
-61.41
-74.53
-85.65
-93.90
-98.38
-98.38
-93.80
-85.40
-74.68
-63.40
-53.04
-44.39
-37.50
-32.06
-27.81
-24.75
-23.02
-22.63
-23.25
-24.16
-24.59
-23.99
-22.23
-19.53
-16.30
-12.87
-9.44
-6.10
-2.89
0.15
2.94
5.44
7.53
8.98
9.44
8.61
6.45
3.35
0.01
-2.77
-4.44
-4.84
-4.10
-2.43
0.10
3.57
7.98
13.07
18.26
22.86
26.34
28.63
30.11
31.26
32.32
32.96
32.33
29.47
23.72
15.21
4.90
-5.56
-14.39
-20.17
-22.20
-20.60
-16.08
-9.70
-2.52
4.56
10.86
15.90
19.37
21.13
21.33
20.41
19.03
17.91
17.52
17.87
18.54
18.80
18.04
16.00
12.90
9.25
5.60
2.30
-0.47
-2.57
-3.62
-3.00
-0.09
5.44
13.30
22.62
32.12
40.50
46.80
50.55
51.78
50.92
48.68
45.92
43.46
41.82
41.00
40.40
39.04
35.94
30.57
23.06
14.09
4.56
-4.78
-13.54
-21.55
-28.78
-35.10
-40.33
-44.37
-47.31
-49.41
-51.00
-52.36
-53.72
-55.41
-57.98
-62.13
-68.39
-76.70
-86.11
-94.85
-100.77
-102.05
-97.92
-88.91
-76.77
-63.84
-52.18
-43.02
-36.44
-31.67
-27.66
-23.65
-19.43
-15.41
-12.17
-10.20
-9.59
-10.03
-11.04
-12.21
-13.37
-14.57
-15.91
-17.42
-19.03
-20.65
-22.42
-24.74
-28.24
-33.44
-40.36
-48.13
-55.02
-58.66
-56.77
-47.86
-31.94
-10.83
12.10
32.64
46.91
52.47
48.95
38.07
22.86
6.56
-8.31
-20.35
-29.18
-34.88
-37.55
-37.01
-33.05
-25.68
-15.45
-3.42
8.96
20.30
29.50
35.91
39.34
39.92
37.95
33.77
27.81
20.58
12.80
5.32
-0.95
-5.34
-7.62
-8.12
-7.74
-7.68
-9.10
-12.80
-19.01
-27.33
-36.85
-46.32
-54.38
-59.81
-61.77
-59.95
-54.56
-46.28
-36.05
-24.89
-13.78
-3.53
5.22
12.05
16.88
19.93
21.77
23.13
24.72
27.03
30.24
34.22
38.62
43.02
47.08
50.63
53.65
56.30
58.78
61.23
63.63
65.77
67.29
67.69
66.44
63.09
57.46
49.69
40.40
30.54
21.16
13.12
6.83
2.14
-1.48
-4.76
-8.38
-12.77
-18.03
-23.94
-29.87
-34.86
-37.86
-37.98
-34.84
-28.73
-20.55
-11.47
-2.63
5.22
11.79
17.16
21.56
25.23
28.32
30.85
32.84
34.25
35.12
35.50
35.43
34.99
34.28
33.38
32.35
31.25
30.03
28.64
26.98
24.91
22.36
19.31
15.85
12.05
8.03
3.81
-0.65
-5.41
-10.43
-15.64
-20.80
-25.64
-29.90
-33.40
-36.14
-38.34
-40.35
-42.63
-45.47
-48.89
-52.46
-55.40
-56.67
-55.33
-50.78
-42.99
-32.52
-20.37
-7.72
4.41
15.26
24.47
31.95
37.77
42.10
45.16
47.28
48.90
50.42
52.12
54.02
55.98
57.83
59.59
61.50
63.94
67.11
70.83
74.52
77.37
78.62
77.89
75.19
70.92
65.64
59.90
54.09
48.44
43.01
37.76
32.57
27.38
22.23
17.30
12.88
9.22
6.32
3.80
0.91
-3.31
-9.64
-18.36
-29.07
-40.73
-51.88
-61.07
-67.18
-69.61
-68.40
-64.10
-57.61
-49.98
-42.15
-34.79
-28.27
-22.62
-17.66
-13.13
-8.78
-4.43
0.03
4.60
9.25
13.84
18.14
21.92
24.93
27.07
28.37
29.01
29.11
28.64
27.40
25.04
21.28
16.00
9.31
1.47
-7.21
-16.43
-25.83
-34.86
-42.71
-48.28
-50.41
-48.14
-41.00
-29.21
-13.74
3.72
21.02
35.84
46.28
51.39
51.53
48.36
44.38
42.16
43.40
48.20
54.81
60.02
60.07
51.88
34.17
7.95
-23.69
-56.46
-86.24
-110.18
-127.19
-137.86
-143.81
-146.88
-148.61
-149.84
-150.62
-150.27
-147.45
-140.39
-127.25
-106.66
-78.11
-42.31
-1.20
42.28
84.71
122.71
153.50
175.37
187.97
192.17
189.70
182.60
172.77
161.75
150.72
140.58
131.97
125.20
120.07
115.95
111.98
107.38
101.67
94.62
86.04
75.61
62.98
48.16
31.86
15.55
1.06
-10.12
-17.52
-21.83
-24.64
-27.63
-31.99
-37.94
-44.88
-51.89
-58.13
-63.37
-67.83
-72.06
-76.50
-81.26
-86.13
-90.70
-94.63
-97.69
-99.69
-100.28
-99.02
-95.40
-89.30
-81.08
-71.64
-62.21
-53.85
-47.31
-42.85
-40.42
-39.86
-41.03
-43.80
-47.89
-52.70
-57.28
-60.49
-61.17
-58.46
-51.91
-41.56
-27.98
-12.27
3.97
19.00
31.36
40.54
47.32
53.56
61.20
71.10
82.28
92.05
97.35
96.22
88.99
78.09
66.91
58.23
53.12
50.89
49.76
47.93
44.21
37.98
28.82
16.31
0.15
-19.23
-40.15
-59.68
-74.35
-81.35
-79.65
-70.45
-56.70
-41.95
-28.99
-19.06
-11.81
-5.96
-0.24
5.95
12.36
18.25
22.88
25.91
27.47
28.01
27.95
27.50
26.52
24.82
22.47
19.78
17.25
15.28
14.11
13.70
13.83
14.06
14.02
13.44
12.13
10.00
7.07
3.62
0.28
-2.08
-2.72
-0.99
3.41
10.21
18.45
26.81
34.07
39.61
43.50
45.69
46.56
46.74
46.71
46.55
46.14
45.39
44.32
42.75
38.97
31.83
21.59
9.69
-2.22
-12.66
-20.55
-25.40
-27.27
-28.65
-31.11
-34.54
-38.23
-42.42
-48.55
-58.49
-73.60
-94.07
-121.19
-153.28
-185.29
-211.07
-226.41
-230.50
-225.74
-216.61
-191.80
-151.09
-105.31
-66.86
-39.35
-18.47
1.52
23.89
48.40
72.27
89.22
95.45
91.75
83.28
75.18
70.93
71.86
77.17
84.42
88.53
86.06
76.64
60.07
39.71
20.52
7.71
5.23
14.53
32.50
53.97
74.32
89.23
95.76
92.83
81.61
64.95
46.16
27.41
10.37
-3.54
-13.89
-20.18
-23.51
-26.41
-31.92
-42.10
-56.84
-73.10
-85.84
-90.41
-84.37
-69.03
-48.51
-27.70
-9.97
3.96
15.73
27.86
41.90
57.71
73.22
85.60
92.49
92.89
87.19
76.71
63.06
47.71
32.09
17.49
5.09
-4.18
-9.92
-12.44
-12.67
-11.78
-10.93
-10.79
-11.51
-12.80
-14.13
-15.09
-15.60
-16.02
-16.99
-19.23
-23.16
-28.76
-35.58
-42.86
-49.74
-55.41
-59.21
-60.57
-59.11
-54.74
-47.78
-39.04
-29.66
-20.84
-13.42
-7.72
-3.57
-0.47
2.03
4.16
5.87
6.97
7.35
7.11
6.58
6.18
6.25
6.92
8.07
9.43
10.78
12.01
13.15
14.26
15.33
16.15
16.41
15.83
14.27
11.88
9.06
6.29
3.95
2.16
0.74
-0.65
-2.36
-4.57
-7.20
-9.99
-12.60
-14.86
-16.76
-18.50
-20.45
-22.94
-26.17
-30.03
-34.08
-37.57
-39.60
-39.38
-36.48
-30.96
-23.36
-14.49
-5.26
3.58
11.53
18.32
23.82
28.03
30.94
32.65
33.35
33.40
33.20
33.17
33.53
34.28
35.21
35.96
36.22
35.83
34.84
33.47
32.00
30.67
29.56
28.57
27.50
26.10
24.22
21.88
19.22
16.48
13.83
11.32
8.81
6.12
3.13
-0.14
-3.52
-6.79
-9.78
-12.42
-14.77
-16.94
-19.01
-21.05
-23.14
-25.48
-28.32
-31.80
-35.76
-39.62
-42.36
-42.92
-40.50
-34.96
-26.83
-17.21
-7.29
1.94
9.95
16.58
21.88
25.94
28.77
30.43
31.11
31.16
31.08
31.27
31.94
33.00
34.15
35.01
35.35
35.16
34.67
34.16
33.78
33.46
32.89
31.78
29.95
27.49
24.72
22.00
19.54
17.33
15.19
12.93
10.46
7.85
5.24
2.68
0.13
-2.53
-5.44
-8.56
-11.73
-14.75
-17.44
-19.81
-21.95
-24.09
-26.45
-29.20
-32.48
-36.29
-40.51
-44.83
-48.62
-51.04
-51.22
-48.55
-42.90
-34.71
-24.86
-14.41
-4.36
4.61
12.12
18.04
22.38
25.21
26.67
27.00
26.52
25.70
25.00
24.80
25.24
26.19
27.33
28.23
28.65
28.53
28.06
27.45
26.83
26.13
25.20
23.85
22.07
19.94
17.68
15.45
13.33
11.29
9.25
7.12
4.88
2.60
0.38
-1.68
-3.56
-5.39
-7.36
-9.70
-12.48
-15.60
-18.79
-21.78
-24.42
-26.74
-28.99
-31.49
-34.50
-38.12
-42.28
-46.64
-50.63
-53.48
-54.32
-52.44
-47.58
-40.06
-30.74
-20.74
-11.09
-2.44
4.96
11.13
16.15
20.02
22.69
24.11
24.42
23.96
23.13
22.26
21.54
21.01
20.66
20.54
20.72
21.23
21.94
22.60
22.87
22.48
21.35
19.63
17.55
15.32
13.03
10.69
8.21
5.63
3.04
0.60
-1.56
-3.45
-5.26
-7.26
-9.69
-12.65
-16.01
-19.47
-22.75
-25.64
-28.16
-30.53
-33.07
-36.12
-39.91
-44.47
-49.57
-54.73
-59.22
-62.20
-62.82
-60.55
-55.24
-47.26
-37.38
-26.58
-15.82
-5.83
2.94
10.29
16.22
20.85
24.33
26.84
28.62
29.95
31.09
32.24
33.46
34.62
35.51
35.92
35.80
35.29
34.64
34.11
33.78
33.52
33.03
31.99
30.20
27.71
24.79
21.84
19.21
17.05
15.27
13.54
11.51
8.95
5.84
2.44
-0.89
-3.87
-6.39
-8.57
-10.69
-13.03
-15.72
-18.72
-21.87
-24.95
-27.86
-30.68
-33.60
-36.85
-40.61
-44.92
-49.64
-54.40
-58.60
-61.43
-62.07
-59.84
-54.48
-46.26
-35.99
-24.72
-13.46
-2.97
6.37
14.44
21.19
26.57
30.54
33.11
34.49
35.04
35.25
35.54
36.15
37.09
38.15
39.08
39.67
39.89
39.87
39.77
39.68
39.56
39.18
38.30
36.75
34.58
31.97
29.25
26.69
24.50
22.67
21.10
19.58
17.89
15.87
13.46
10.72
7.83
5.02
2.51
0.48
-1.10
-2.38
-3.65
-5.22
-7.27
-9.79
-12.56
-15.31
-17.80
-19.98
-22.00
-24.12
-26.62
-29.66
-33.25
-37.15
-40.90
-43.82
-45.14
-44.19
-40.66
-34.77
-27.16
-18.78
-10.54
-3.11
3.22
8.40
12.52
15.69
17.94
19.33
19.95
19.97
19.67
19.30
19.09
19.15
19.57
20.32
21.40
22.78
24.38
26.12
27.83
29.32
30.46
31.18
31.57
31.84
32.25
33.01
34.23
35.85
37.68
39.38
40.68
41.38
41.51
41.28
40.95
40.70
40.40
39.72
38.19
35.50
31.64
26.88
21.69
16.45
11.39
6.51
1.75
-2.96
-7.64
-12.26
-16.78
-21.10
-25.00
-28.14
-30.14
-30.77
-30.00
-28.05
-25.33
-22.26
-19.20
-16.45
-14.29
-12.95
-12.60
-13.30
-14.86
-16.96
-19.15
-20.98
-22.17
-22.56
-22.16
-21.15
-19.77
-18.28
-16.91
-15.82
-15.04
-14.56
-14.31
-14.25
-14.37
-14.68
-15.18
-15.83
-16.51
-17.14
-17.63
-17.95
-18.06
-17.91
-17.36
-16.20
-14.23
-11.37
-7.72
-3.57
0.71
4.76
8.34
11.37
13.87
15.95
17.68
19.02
19.79
19.64
18.18
15.20
10.89
5.88
1.21
-2.10
-3.42
-2.75
-0.80
1.43
2.96
3.16
1.81
-1.03
-5.23
-10.71
-17.34
-24.89
-32.97
-41.09
-48.79
-55.81
-62.06
-67.54
-72.15
-75.62
-77.59
-77.81
-76.41
-74.03
-71.70
-70.55
-71.30
-74.05
-78.11
-82.42
-85.97
-88.24
-89.34
-89.77
-89.97
-89.98
-89.28
-87.05
-82.46
-74.92
-64.19
-50.22
-33.05
-12.79
10.24
35.44
61.82
88.12
113.04
135.46
154.49
169.51
180.22
186.69
189.49
189.76
188.92
188.31
188.70
189.87
190.69
189.44
184.39
174.39
159.11
139.15
115.78
90.65
65.50
41.79
20.48
1.87
-14.32
-28.64
-41.62
-53.57
-64.59
-74.84
-84.69
-94.79
-105.76
-117.94
-131.24
-145.22
-159.34
-173.29
-186.94
-200.23
-212.99
-224.99
-236.10
-246.51
-256.77
-267.48
-278.75
-290.07
-300.36
-308.56
-314.21
-317.58
-319.48
-320.43
-320.08
-317.03
-309.39
-295.56
-275.02
-248.54
-217.81
-184.81
-151.25
-118.37
-86.99
-57.68
-30.82
-6.41
16.09
37.80
60.15
84.47
111.48
141.03
172.10
203.09
232.21
257.87
278.95
294.99
306.14
313.16
317.18
319.59
321.75
324.82
329.37
335.11
340.82
344.59
344.33
338.49
326.45
308.66
286.26
260.59
232.71
203.37
173.20
142.98
113.78
86.72
62.49
41.15
22.08
4.49
-12.09
-27.43
-40.72
-50.98
-57.81
-61.73
-64.30
-67.52
-73.05
-81.45
-91.87
-102.32
-110.45
-114.43
-113.61
-108.56
-100.65
-91.36
-81.78
-72.33
-63.00
-53.62
-44.05
-34.27
-24.22
-13.79
-2.94
8.15
18.95
28.71
36.78
42.94
47.60
51.64
55.98
61.17
67.12
73.19
78.42
82.04
83.67
83.44
81.80
79.31
76.37
73.22
69.90
66.27
62.14
57.30
51.65
45.35
38.90
33.02
28.45
25.57
24.19
23.59
22.72
20.72
17.14
12.07
5.87
-1.15
-8.91
-17.43
-26.50
-35.43
-43.06
-48.14
-49.96
-48.92
-46.74
-46.18
-50.25
-61.24
-80.10
-106.11
-137.15
-170.14
-201.49
-227.66
-245.66
-253.65
-251.37
-240.25
-223.00
-202.81
-182.40
-163.36
-145.90
-129.13
-111.48
-91.25
-67.08
-38.37
-5.71
28.96
62.70
92.20
114.64
128.37
133.11
129.80
120.05
105.69
88.43
69.71
50.65
32.08
14.62
-1.22
-14.89
-25.67
-32.57
-34.45
-30.35
-20.11
-4.93
12.38
27.91
37.75
39.46
32.97
20.62
6.08
-7.25
-17.41
-24.24
-28.74
-31.98
-34.22
-34.76
-32.41
-26.18
-15.83
-1.80
15.04
33.97
54.60
76.95
101.20
127.39
155.16
183.65
211.36
236.05
254.88
264.86
263.62
250.28
226.01
193.84
157.86
122.14
89.67
61.93
39.00
20.02
3.73
-11.02
-24.89
-37.80
-48.86
-56.52
-59.08
-55.38
-45.43
-30.76
-14.24
0.48
10.02
12.17
6.56
-5.26
-20.37
-35.43
-47.80
-56.10
-60.29
-61.20
-59.84
-56.91
-52.68
-47.22
-40.76
-33.75
-26.79
-20.39
-14.67
-9.38
-3.97
2.04
8.87
16.29
23.82
30.85
36.93
41.81
45.43
47.76
48.65
47.79
44.73
39.12
30.91
20.56
9.06
-2.21
-11.78
-18.45
-21.57
-21.17
-17.92
-13.01
-7.87
-3.94
-2.37
-3.76
-8.06
-14.44
-21.50
-27.54
-31.10
-31.41
-28.74
-24.37
-20.23
-18.32
-20.04
-25.83
-35.23
-47.13
-60.40
-74.19
-88.15
-102.21
-116.39
-130.47
-143.88
-155.67
-164.66
-169.63
-169.51
-163.45
-150.93
-131.87
-106.72
-76.70
-43.87
-10.87
19.53
45.24
65.33
80.33
91.69
101.10
109.58
117.26
123.45
127.26
128.10
126.02
121.56
115.58
108.93
102.28
96.14
90.74
86.10
81.95
77.81
73.10
67.39
60.61
53.16
45.83
39.52
34.93
32.32
31.39
31.39
31.34
30.34
27.81
23.55
17.71
10.65
2.91
-4.90
-12.02
-17.58
-20.74
-20.84
-17.67
-11.54
-3.18
6.48
16.64
26.88
37.13
47.45
57.76
67.53
75.85
81.62
83.96
82.54
77.67
70.18
61.07
51.26
41.36
31.73
22.57
14.03
6.27
-0.61
-6.67
-12.12
-17.25
-22.24
-27.06
-31.41
-34.92
-37.37
-38.78
-39.48
-39.97
-40.77
-42.29
-44.67
-47.80
-51.34
-54.80
-57.73
-59.81
-61.07
-61.79
-62.44
-63.39
-64.81
-66.63
-68.73
-71.02
-73.51
-76.19
-79.00
-81.72
-84.17
-86.27
-88.17
-90.17
-92.48
-95.20
-98.14
-100.98
-103.38
-105.17
-106.33
-106.93
-107.04
-106.69
-105.96
-105.03
-104.30
-104.25
-105.37
-107.89
-111.65
-116.02
-119.98
-122.39
-122.28
-119.10
-112.82
-103.84
-92.75
-80.14
-66.45
-51.92
-36.74
-21.20
-5.76
9.03
22.69
34.95
45.86
55.76
65.12
74.34
83.67
93.15
102.62
111.87
120.64
128.65
135.53
140.82
144.09
145.17
144.36
142.50
140.84
140.64
142.76
147.34
153.78
160.91
167.20
171.06
170.96
165.70
154.63
137.95
116.86
93.42
70.13
49.36
32.71
20.70
12.75
7.50
3.36
-0.98
-6.21
-12.31
-18.78
-25.05
-30.82
-36.26
-41.85
-48.08
-55.06
-62.47
-69.64
-75.88
-80.70
-84.01
-85.97
-86.76
-86.52
-85.20
-82.72
-79.09
-74.50
-69.35
-64.10
-59.19
-54.88
-51.17
-47.91
-44.84
-41.82
-38.82
-36.01
-33.59
-31.71
-30.37
-29.33
-28.16
-26.35
-23.34
-18.70
-12.15
-3.70
6.37
17.42
28.58
38.88
47.42
53.62
57.29
58.70
58.44
57.21
55.60
53.89
52.00
49.59
46.31
42.01
36.85
31.32
26.09
21.82
18.92
17.47
17.25
17.79
18.57
19.15
19.32
19.14
18.95
19.28
20.66
23.36
27.22
31.51
35.12
36.87
35.98
32.39
26.90
20.90
15.79
12.43
10.93
10.73
11.11
11.51
11.82
12.19
12.80
13.59
14.19
14.02
12.45
8.99
3.38
-4.29
-13.50
-23.36
-32.77
-40.76
-46.80
-51.03
-53.99
-56.32
-58.34
-60.00
-61.03
-61.28
-60.85
-60.07
-59.29
-58.71
-58.29
-57.87
-57.34
-56.72
-56.14
-55.77
-55.77
-56.28
-57.40
-59.16
-61.45
-64.02
-66.47
-68.37
-69.41
-69.46
-68.55
-66.84
-64.56
-62.00
-59.38
-56.81
-54.22
-51.29
-47.59
-42.72
-36.52
-29.12
-20.93
-12.48
-4.33
3.03
9.13
13.58
16.15
16.89
16.18
14.70
13.21
12.36
12.51
13.67
15.53
17.63
19.52
20.91
21.84
22.68
23.93
26.00
28.91
32.19
35.04
36.64
36.53
34.70
31.63
27.93
24.28
21.27
19.44
19.26
21.08
24.88
30.18
36.12
41.71
46.11
48.93
50.19
50.18
49.21
47.49
45.03
41.79
37.67
32.71
27.09
21.22
15.62
10.87
7.39
5.25
4.20
3.68
3.09
1.97
0.11
-2.46
-5.60
-9.09
-12.72
-16.18
-19.13
-21.23
-22.34
-22.66
-22.62
-22.76
-23.46
-24.79
-26.64
-28.72
-30.83
-32.91
-34.94
-36.89
-38.65
-40.06
-41.07
-41.77
-42.37
-43.05
-43.86
-44.69
-45.33
-45.65
-45.62
-45.39
-45.11
-44.86
-44.53
-43.83
-42.45
-40.21
-37.21
-33.80
-30.49
-27.67
-25.41
-23.44
-21.17
-18.03
-13.69
-8.19
-1.94
4.55
10.80
16.53
21.60
25.93
29.42
31.99
33.73
34.90
35.79
36.49
36.68
35.72
32.94
28.22
22.19
16.14
11.56
9.57
10.46
13.72
18.34
23.18
27.29
30.02
31.04
30.19
27.55
23.45
18.46
13.36
8.94
5.91
4.74
5.65
8.51
12.95
18.43
24.40
30.54
36.86
43.55
50.75
58.24
65.35
71.16
74.87
76.14
75.24
72.81
69.49
65.57
60.86
54.84
47.07
37.36
25.95
13.48
0.80
-11.18
-21.59
-29.91
-36.01
-40.23
-43.19
-45.54
-47.66
-49.60
-51.12
-51.99
-52.31
-52.65
-53.96
-57.18
-62.74
-70.13
-77.88
-84.07
-86.98
-85.90
-81.23
-74.20
-66.16
-58.05
-50.32
-43.03
-35.96
-28.51
-19.62
-7.82
8.12
28.36
51.50
74.78
95.28
111.23
122.77
131.57
139.60
147.79
155.36
160.35
160.61
154.59
141.84
122.97
99.44
73.54
48.07
25.82
9.17
-0.47
-3.05
0.19
7.18
15.69
23.89
30.54
34.74
36.36
35.96
34.64
33.56
33.65
35.37
38.68
42.95
46.27
47.08
44.71
39.08
29.92
16.28
-3.65
-31.79
-69.18
-116.43
-170.18
-223.09
-266.53
-294.51
-305.84
-304.41
-296.61
-288.55
-286.19
-289.98
-294.90
-293.99
-282.72
-260.72
-231.66
-200.74
-173.10
-155.93
-151.96
-158.48
-169.56
-179.72
-185.32
-185.08
-178.46
-145.55
-83.63
-8.71
57.88
105.98
136.27
158.36
177.54
196.29
215.86
229.93
234.29
228.28
213.97
194.07
171.55
148.91
128.84
112.97
98.72
84.19
69.55
56.43
45.86
37.69
30.36
22.44
13.04
0.61
-13.89
-27.12
-35.01
-35.31
-28.32
-16.88
-4.33
6.67
14.17
18.64
22.28
27.34
34.42
42.01
47.20
47.45
41.85
31.34
18.82
7.93
1.66
1.20
5.89
13.90
23.32
32.84
41.92
50.57
58.83
66.51
73.11
78.08
81.07
82.08
81.44
79.61
77.01
73.88
70.38
66.68
63.06
59.97
57.85
57.00
57.42
58.75
60.37
61.59
61.87
60.95
59.00
56.43
53.80
51.57
49.91
48.68
47.55
46.18
44.43
42.45
40.58
39.23
38.60
38.58
38.82
38.80
38.06
36.26
33.33
29.57
25.65
22.51
21.09
21.99
25.14
29.77
34.72
38.87
41.60
42.97
43.54
43.97
44.69
45.65
46.48
46.69
45.98
44.38
42.30
40.34
39.03
38.65
39.04
39.77
40.34
40.42
39.90
38.74
36.82
33.72
29.04
22.51
14.21
4.78
-4.84
-13.77
-21.61
-28.45
-34.83
-41.33
-48.50
-56.70
-66.04
-76.32
-86.91
-96.90
-105.30
-111.58
-115.85
-119.45
-124.63
-133.71
-147.96
-166.90
-188.33
-208.71
-224.23
-231.27
-227.98
-214.84
-194.60
-171.91
-152.52
-141.93
-143.37
-156.22
-174.56
-190.20
-195.65
-186.43
-161.84
-124.41
-78.40
-27.90
23.80
75.47
124.56
166.72
197.72
215.83
223.13
224.49
225.70
230.88
243.11
260.84
278.52
289.56
288.99
275.59
251.64
222.29
180.69
130.15
81.61
44.69
20.41
2.96
-11.18
-23.43
-31.70
-34.09
-29.02
-18.75
-8.43
-3.03
-6.35
-17.61
-32.53
-45.81
-54.68
-58.66
-61.08
-67.29
-81.55
-107.07
-141.89
-179.91
-213.51
-237.43
-249.11
-249.50
-241.60
-215.23
-168.97
-111.50
-55.73
-8.72
29.67
63.24
94.81
123.98
148.02
157.87
146.39
112.71
64.05
13.83
-21.98
-30.24
-5.39
51.78
127.38
201.53
255.90
279.62
271.01
236.09
184.94
127.87
73.03
24.09
-16.37
-45.71
-61.91
-65.63
-60.95
-54.37
-52.71
-60.26
-78.25
-103.34
-129.10
-148.69
-157.98
-156.84
-148.54
-137.89
-129.01
-124.59
-125.01
-129.27
-136.16
-145.15
-156.08
-168.34
-180.13
-188.40
-189.88
-181.88
-163.08
-133.70
-95.32
-50.46
-2.48
44.51
86.03
117.88
137.49
144.65
141.64
132.27
120.53
109.26
99.56
91.07
82.79
73.97
64.35
54.12
43.59
33.32
23.85
15.67
9.12
4.37
1.69
0.99
1.92
3.87
6.78
10.82
16.18
22.81
30.28
38.26
46.00
52.49
56.51
57.90
57.16
55.24
53.24
51.97
52.18
53.64
55.34
55.55
53.91
50.95
47.72
45.36
40.69
32.04
19.71
7.73
-4.89
-18.76
-33.95
-48.93
-61.48
-69.94
-73.43
-73.05
-71.14
-71.44
-75.74
-84.11
-94.49
-103.00
-105.62
-98.94
-82.00
-55.52
-22.80
13.44
49.37
77.61
92.99
96.68
94.88
92.99
97.14
104.63
111.60
114.04
109.98
99.90
82.30
59.23
31.12
2.73
-21.31
-37.73
-46.34
-47.89
-44.09
-37.96
-33.13
-33.01
-37.79
-45.96
-50.84
-44.97
-21.84
19.80
74.38
131.18
177.40
203.24
204.20
182.74
139.87
83.70
23.64
-32.72
-80.36
-116.67
-140.05
-150.09
-147.44
-134.47
-114.03
-90.20
-66.80
-46.22
-29.62
-17.76
-12.11
-14.32
-25.36
-43.23
-63.96
-82.48
-94.43
-97.68
-92.85
-82.62
-70.17
-57.89
-46.37
-35.51
-25.20
-15.59
-7.04
0.30
6.67
12.47
17.78
22.25
24.75
23.93
18.96
10.07
-1.32
-13.15
-23.40
-30.78
-35.04
-36.91
-37.68
-38.61
-40.44
-43.31
-46.75
-49.99
-52.32
-53.30
-52.91
-51.52
-49.62
-47.68
-45.87
-44.05
-41.90
-39.11
-35.53
-31.17
-26.08
-20.30
-13.75
-6.36
1.81
10.47
19.16
27.38
34.67
40.72
45.32
48.32
49.52
48.73
45.81
40.82
34.08
26.12
17.65
9.39
1.97
-4.20
-8.94
-12.36
-14.77
-16.64
-18.50
-20.74
-23.56
-26.82
-30.05
-32.59
-33.65
-32.65
-29.28
-23.64
-16.21
-7.71
1.10
9.44
16.76
22.68
27.00
29.68
30.78
30.52
29.11
26.87
24.03
20.78
17.26
13.61
9.97
6.54
3.52
1.05
-0.76
-1.75
-1.72
-0.44
2.29
6.49
11.87
17.95
24.15
29.94
34.97
38.99
41.81
43.32
43.53
42.66
41.23
39.84
39.01
38.89
39.24
39.46
38.89
37.02
33.66
28.94
23.20
16.92
10.58
4.68
-0.34
-4.05
-6.11
-6.33
-4.71
-1.44
3.13
8.49
14.15
19.65
24.63
28.81
31.97
33.91
34.47
33.58
31.28
27.76
23.29
18.18
12.71
7.03
1.17
-5.01
-11.66
-18.89
-26.62
-34.40
-41.42
-46.62
-48.96
-47.78
-43.07
-35.55
-26.39
-16.90
-8.09
-0.54
5.64
10.49
14.06
16.37
17.46
17.54
16.99
16.30
15.88
15.91
16.30
16.77
16.98
16.67
15.73
14.28
12.60
11.07
10.09
9.91
10.67
12.34
14.69
17.42
20.15
22.55
24.40
25.64
26.36
26.71
26.74
26.33
25.17
22.83
18.99
13.52
6.58
-1.39
-9.68
-17.35
-23.35
-26.70
-26.85
-23.84
-18.41
-11.70
-4.94
1.01
5.78
9.44
12.30
14.67
16.66
18.29
19.51
20.41
21.16
22.01
23.11
24.40
25.62
26.36
26.26
25.21
23.38
21.21
19.19
17.62
16.56
15.81
15.01
13.82
12.09
9.84
7.27
4.71
2.42
0.56
-0.90
-2.22
-3.69
-5.54
-7.84
-10.48
-13.18
-15.73
-18.01
-20.05
-22.00
-24.03
-26.36
-29.21
-32.74
-37.01
-41.75
-46.32
-49.68
-50.72
-48.60
-43.14
-34.92
-25.08
-14.89
-5.34
3.11
10.45
16.82
22.28
26.72
29.93
31.90
32.80
33.08
33.20
33.44
33.82
34.15
34.21
33.91
33.39
32.89
32.65
32.78
33.12
33.40
33.25
32.48
31.03
29.11
26.98
24.93
23.08
21.43
19.85
18.14
16.15
13.80
11.16
8.44
5.95
4.04
2.88
2.44
2.35
1.89
0.20
-3.55
-9.81
-18.44
-28.62
-38.99
-47.96
-54.18
-56.86
-56.05
-52.53
-47.52
-42.35
-38.02
-35.05
-33.37
-32.52
-31.78
-30.48
-28.16
-24.67
-20.22
-15.24
-10.20
-5.46
-1.22
2.52
5.86
8.86
11.57
13.97
16.05
17.82
19.31
20.54
21.45
21.97
22.05
21.72
21.12
20.41
19.76
19.20
18.66
18.00
17.09
15.83
14.18
12.04
9.36
6.03
2.07
-2.43
-7.24
-12.04
-16.60
-20.75
-24.49
-27.94
-31.31
-34.91
-38.98
-43.64
-48.71
-53.68
-57.82
-60.28
-60.43
-57.99
-53.14
-46.38
-38.46
-30.13
-22.06
-14.72
-8.38
-3.08
1.28
4.90
7.97
10.59
12.80
14.58
15.94
16.92
17.66
18.31
18.99
19.79
20.66
21.49
22.18
22.59
22.64
22.29
21.54
20.46
19.13
17.70
16.32
15.12
14.12
13.23
12.30
11.17
9.85
8.43
7.16
6.19
5.57
5.11
4.56
3.68
2.38
0.77
-0.96
-2.66
-4.28
-5.96
-7.91
-10.35
-13.42
-17.15
-21.38
-25.81
-29.91
-33.02
-34.45
-33.67
-30.50
-25.21
-18.40
-10.82
-3.19
4.04
10.59
16.31
21.10
24.85
27.53
29.25
30.28
31.00
31.75
32.73
33.94
35.24
36.45
37.47
38.29
38.94
39.44
39.70
39.59
38.92
37.62
35.71
33.35
30.73
28.03
25.33
22.65
19.92
17.09
14.12
10.97
7.61
3.98
0.03
-4.22
-8.63
-12.97
-17.06
-20.76
-24.14
-27.37
-30.69
-34.27
-38.18
-42.27
-46.29
-49.83
-52.41
-53.55
-52.84
-50.10
-45.38
-39.05
-31.65
-23.74
-15.85
-8.33
-1.42
4.76
10.16
14.76
18.61
21.80
24.45
26.76
28.92
31.09
33.34
35.61
37.68
39.32
40.31
40.58
40.14
39.11
37.55
35.45
32.71
29.20
24.90
19.86
14.33
8.66
3.19
-1.84
-6.38
-10.56
-14.61
-18.64
-22.64
-26.42
-29.74
-32.48
-34.71
-36.70
-38.83
-41.40
-44.52
-48.14
-51.93
-55.40
-57.91
-58.81
-57.55
-53.91
-48.13
-40.81
-32.78
-24.81
-17.43
-10.89
-5.25
-0.48
3.48
6.67
9.18
11.19
12.91
14.56
16.24
17.92
19.47
20.74
21.63
22.19
22.59
23.03
23.63
24.33
24.91
25.07
24.53
23.15
21.00
18.27
15.20
12.05
8.98
6.06
3.27
0.46
-2.54
-5.87
-9.51
-13.25
-16.80
-19.92
-22.60
-25.12
-27.96
-31.57
-36.13
-41.45
-46.95
-51.82
-55.23
-56.55
-55.44
-51.94
-46.41
-39.47
-31.85
-24.24
-17.16
-10.86
-5.33
-0.39
4.17
8.52
12.76
16.99
21.24
25.61
30.13
34.80
39.52
44.20
48.80
53.33
57.88
62.52
67.18
71.68
75.72
79.04
81.45
82.93
83.54
83.41
82.63
81.27
79.39
77.01
74.23
71.21
68.11
65.02
61.90
58.51
54.48
49.42
43.01
35.12
25.85
15.46
4.38
-6.87
-17.77
-27.86
-36.89
-44.84
-51.94
-58.55
-65.10
-71.86
-78.86
-85.88
-92.47
-98.03
-101.98
-103.80
-103.11
-99.64
-93.26
-84.03
-72.26
-58.55
-43.74
-28.78
-14.50
-1.52
9.82
19.45
27.45
33.95
39.06
42.81
45.04
45.45
43.73
39.77
33.77
26.30
18.11
9.86
1.94
-5.58
-12.73
-19.46
-25.56
-30.71
-34.77
-37.84
-40.39
-43.07
-46.46
-50.82
-55.94
-61.13
-65.41
-67.77
-67.46
-64.23
-58.36
-50.51
-41.47
-31.96
-22.48
-13.34
-4.78
2.89
9.32
14.14
17.19
18.58
18.72
18.19
17.62
17.41
17.74
18.53
19.59
20.73
21.87
23.00
24.12
25.14
25.93
26.30
26.17
25.60
24.85
24.23
23.97
24.10
24.35
24.29
23.44
21.47
18.23
13.76
8.17
1.56
-5.98
-14.32
-23.19
-32.11
-40.49
-47.72
-53.24
-56.70
-57.89
-56.80
-53.72
-49.18
-44.03
-39.18
-35.42
-33.09
-32.00
-31.49
-30.71
-28.98
-25.96
-21.79
-16.91
-11.86
-7.12
-2.97
0.44
3.08
4.97
6.20
6.96
7.49
8.06
8.85
9.92
11.11
12.11
12.51
11.99
10.39
7.83
4.65
1.32
-1.70
-4.18
-6.16
-7.90
-9.74
-11.94
-14.59
-17.66
-21.05
-24.61
-28.11
-31.10
-33.01
-33.20
-31.26
-27.14
-21.22
-14.18
-6.73
0.56
7.33
13.36
18.44
22.32
24.80
25.86
25.77
25.09
24.44
24.33
24.91
25.92
26.90
27.35
27.01
25.88
24.19
22.21
20.11
17.97
15.83
13.72
11.72
9.86
8.09
6.27
4.18
1.68
-1.34
-4.85
-8.82
-13.24
-18.15
-23.53
-29.17
-34.57
-38.98
-41.58
-41.69
-39.03
-33.78
-26.53
-18.09
-9.27
-0.72
7.11
14.00
19.82
24.48
27.89
29.98
30.69
30.12
28.55
26.40
24.21
22.41
21.24
20.64
20.35
20.00
19.30
18.12
16.47
14.51
12.41
10.33
8.36
6.58
5.07
3.97
3.36
3.26
3.49
3.77
3.73
3.07
1.63
-0.66
-3.83
-7.90
-12.91
-18.75
-25.03
-31.01
-35.71
-38.16
-37.71
-34.23
-28.15
-20.26
-11.45
-2.49
6.17
14.27
21.73
28.43
34.24
39.02
42.74
45.54
47.76
49.77
51.93
54.42
57.20
60.06
62.61
64.47
65.33
65.08
63.83
61.81
59.25
56.28
52.89
48.99
44.55
39.68
34.65
29.71
25.00
20.47
15.93
11.16
6.11
0.86
-4.35
-9.35
-14.08
-18.69
-23.46
-28.75
-34.86
-41.97
-50.04
-58.83
-67.72
-75.83
-82.03
-85.21
-84.55
-79.83
-71.48
-60.49
-48.07
-35.32
-23.01
-11.56
-1.19
7.94
15.65
21.78
26.34
29.53
31.76
33.55
35.33
37.40
39.87
42.66
45.65
48.63
51.39
53.70
55.26
55.69
54.64
51.84
47.36
41.65
35.45
29.66
24.92
21.48
19.03
16.92
14.37
10.69
5.50
-1.29
-9.50
-18.70
-28.26
-37.38
-45.26
-51.28
-55.21
-57.33
-58.28
-58.84
-59.69
-61.25
-63.57
-66.37
-69.13
-71.13
-71.63
-70.02
-66.03
-59.82
-51.99
-43.37
-34.78
-26.84
-19.85
-13.78
-8.43
-3.58
0.92
5.11
8.94
12.34
15.28
17.83
20.10
22.19
24.16
26.01
27.68
29.16
30.48
31.72
32.93
34.06
35.01
35.63
35.83
35.63
35.11
34.36
33.45
32.39
31.16
29.74
28.16
26.43
24.57
22.63
20.60
18.47
16.21
13.75
11.03
7.95
4.43
0.49
-3.80
-8.29
-12.82
-17.30
-21.74
-26.21
-30.82
-35.56
-40.20
-44.24
-46.96
-47.63
-45.72
-41.14
-34.32
-26.08
-17.45
-9.33
-2.27
3.57
8.40
12.53
16.23
19.55
22.37
24.58
26.17
27.30
28.27
29.34
30.60
31.93
33.10
33.90
34.20
34.00
33.30
32.10
30.36
28.07
25.22
21.87
18.07
13.86
9.29
4.44
-0.52
-5.35
-9.81
-13.70
-16.93
-19.44
-21.16
-21.98
-21.83
-20.79
-19.22
-17.68
-16.81
-17.16
-19.05
-22.54
-27.48
-33.57
-40.35
-47.18
-53.21
-57.47
-59.12
-57.65
-53.15
-46.20
-37.75
-28.80
-20.15
-12.33
-5.63
-0.20
3.90
6.71
8.38
9.19
9.49
9.65
9.98
10.65
11.72
13.13
14.71
16.24
17.47
18.21
18.41
18.14
17.60
16.95
16.24
15.39
14.25
12.76
11.03
9.25
7.67
6.35
5.18
3.87
2.16
-0.06
-2.70
-5.48
-8.16
-10.60
-12.82
-14.92
-17.01
-19.17
-21.47
-24.08
-27.22
-31.07
-35.61
-40.55
-45.25
-48.90
-50.67
-49.98
-46.62
-40.85
-33.25
-24.64
-15.84
-7.50
-0.06
6.26
11.36
15.23
17.86
19.35
19.96
20.05
20.02
20.20
20.70
21.46
22.29
23.03
23.59
23.98
24.24
24.41
24.40
24.08
23.26
21.83
19.85
17.50
15.07
12.82
10.82
9.01
7.15
5.04
2.57
-0.22
-3.16
-6.07
-8.81
-11.34
-13.72
-16.04
-18.48
-21.26
-24.58
-28.55
-33.05
-37.63
-41.53
-43.85
-43.76
-40.82
-35.15
-27.44
-18.70
-9.99
-2.09
4.64
10.18
14.65
18.14
20.60
21.95
22.24
21.74
20.92
20.30
20.24
20.83
21.90
23.14
24.25
24.98
25.20
24.86
24.01
22.74
21.21
19.53
17.76
15.83
13.63
11.00
7.96
4.61
1.23
-1.95
-4.77
-7.23
-9.45
-11.61
-13.90
-16.52
-19.64
-23.42
-27.92
-32.96
-38.01
-42.22
-44.51
-44.00
-40.22
-33.41
-24.42
-14.44
-4.71
3.86
10.80
16.07
19.88
22.53
24.29
25.32
25.78
25.82
25.64
25.44
25.35
25.43
25.60
25.75
25.78
25.62
25.31
24.87
24.28
23.45
22.20
20.39
17.99
15.13
12.05
9.00
6.08
3.31
0.58
-2.21
-5.08
-7.97
-10.81
-13.54
-16.20
-18.96
-22.02
-25.62
-29.87
-34.68
-39.67
-44.15
-47.22
-48.02
-45.98
-41.02
-33.58
-24.48
-14.73
-5.22
3.38
10.70
16.59
21.03
24.10
25.98
26.91
27.24
27.36
27.61
28.17
29.02
29.91
30.53
30.60
30.01
28.87
27.43
25.94
24.55
23.23
21.82
20.12
17.95
15.27
12.14
8.77
5.32
1.94
-1.34
-4.56
-7.77
-10.90
-13.78
-16.18
-17.89
-18.94
-19.63
-20.52
-22.23
-25.35
-30.28
-37.15
-45.71
-55.29
-64.77
-72.73
-77.72
-78.65
-75.15
-67.70
-57.48
-46.03
-34.84
-24.98
-16.93
-10.63
-5.66
-1.47
2.41
6.21
9.98
13.67
17.25
20.75
24.27
27.78
31.10
33.93
36.01
37.32
38.06
38.55
39.03
39.46
39.57
39.00
37.59
35.48
33.10
30.91
29.19
27.85
26.58
24.94
22.64
19.62
16.07
12.30
8.67
5.43
2.71
0.44
-1.61
-3.81
-6.53
-10.10
-14.64
-19.99
-25.60
-30.69
-34.29
-35.54
-33.93
-29.45
-22.58
-14.20
-5.30
3.28
10.96
17.46
22.70
26.73
29.62
31.50
32.53
33.00
33.27
33.68
34.48
35.70
37.15
38.47
39.25
39.17
38.06
35.98
33.11
29.73
26.10
22.41
18.77
15.15
11.42
7.40
2.88
-2.23
-7.82
-13.50
-18.68
-22.65
-24.82
-24.99
-23.42
-20.80
-18.15
-16.49
-16.62
-18.92
-23.20
-28.76
-34.47
-39.04
-41.38
-40.86
-37.56
-32.08
-25.36
-18.24
-11.28
-4.72
1.35
6.79
11.34
14.74
16.83
17.78
17.99
18.03
18.40
19.45
21.27
23.82
27.00
30.73
35.00
39.88
45.38
51.41
57.59
63.33
68.01
71.22
72.99
73.81
74.45
75.64
77.80
80.95
84.82
89.00
93.03
96.38
98.48
98.75
96.79
92.64
86.77
79.81
72.22
63.95
54.56
43.66
31.52
19.39
9.26
3.24
2.69
7.64
16.87
28.43
40.51
52.08
63.08
74.19
86.23
99.52
113.52
126.86
137.68
144.21
145.33
140.87
131.58
118.75
103.72
87.57
70.93
54.16
37.62
21.79
7.22
-5.66
-16.82
-26.67
-35.86
-45.07
-54.65
-64.61
-74.62
-84.28
-93.31
-101.68
-109.68
-117.83
-126.79
-137.08
-148.82
-161.58
-174.37
-185.81
-194.58
-199.67
-200.59
-197.38
-190.54
-181.07
-170.22
-159.10
-148.41
-138.23
-127.88
-116.11
-101.72
-84.37
-65.44
-47.73
-34.65
-28.97
-31.72
-41.79
-56.31
-71.70
-84.84
-94.20
-99.34
-100.29
-97.33
-90.90
-81.78
-70.93
-59.27
-47.29
-36.18
-26.31
-17.18
-8.25
-0.00
6.11
8.53
6.55
1.05
-8.69
-21.93
-36.38
-49.27
-59.15
-66.18
-71.20
-74.91
-77.04
-81.34
-89.96
-102.33
-116.07
-129.49
-142.18
-154.15
-165.17
-173.76
-183.75
-196.70
-210.41
-221.10
-227.32
-231.20
-236.81
-248.30
-235.24
-183.64
-101.42
-11.42
67.86
129.40
173.02
200.69
210.94
209.34
194.79
168.95
138.56
112.70
98.05
96.69
110.90
137.66
173.89
205.40
220.23
216.72
201.91
184.34
168.89
156.30
144.23
130.88
114.23
93.41
71.30
51.84
37.29
27.68
21.79
18.03
16.07
14.66
13.05
11.66
10.42
8.25
3.76
-3.60
-13.30
-23.44
-32.44
-38.54
-39.90
-35.68
-26.29
-13.11
2.06
17.36
31.43
43.30
52.48
58.97
62.48
62.53
58.84
51.71
42.16
31.68
21.81
13.80
8.78
7.65
11.62
22.25
40.68
66.61
97.60
129.26
156.36
174.29
180.10
173.63
157.59
136.34
114.39
95.27
80.95
71.84
66.73
62.59
55.91
43.77
24.47
-2.31
-35.19
-71.37
-107.02
-138.20
-162.39
-178.30
-185.89
-186.37
-182.02
-174.99
-166.62
-156.67
-137.54
-105.90
-65.94
-25.97
8.53
36.99
61.03
80.25
93.22
94.32
78.16
44.01
-2.67
-52.03
-94.07
-118.50
-119.21
-99.29
-68.99
-39.59
-17.60
-3.51
5.78
13.39
20.64
27.42
32.02
33.60
32.69
30.65
28.69
27.36
26.33
24.90
22.20
17.81
11.47
4.73
-0.69
-3.80
-4.69
-4.36
-4.11
-5.19
-8.35
-13.23
-18.60
-23.18
-26.14
-27.24
-26.82
-25.64
-24.78
-25.37
-27.48
-30.18
-31.99
-31.32
-27.15
-19.37
-8.98
2.23
12.25
20.38
26.93
32.90
39.43
47.19
56.18
65.62
74.19
80.36
83.64
84.03
81.84
77.74
72.81
68.90
68.34
73.31
79.97
84.52
83.33
74.59
58.82
38.35
16.80
-2.48
-17.68
-29.04
-37.57
-44.49
-50.26
-54.32
-56.23
-55.42
-52.32
-48.35
-45.30
-44.02
-44.71
-47.12
-49.96
-52.90
-55.62
-57.81
-59.41
-60.51
-61.06
-61.04
-60.34
-58.64
-55.71
-51.30
-45.52
-38.93
-32.04
-24.82
-16.76
-7.25
3.98
16.47
29.22
41.32
51.35
58.18
61.15
60.14
55.63
48.99
42.30
37.97
37.69
41.49
47.56
52.61
53.02
46.18
31.79
12.12
-8.74
-26.35
-37.58
-41.24
-38.22
-30.92
-22.28
-14.55
-8.65
-4.48
-1.62
-0.17
-0.20
-1.50
-3.70
-6.44
-9.32
-12.04
-14.71
-17.76
-21.87
-26.94
-30.92
-31.10
-26.73
-20.08
-14.96
-14.76
-18.90
-24.87
-28.83
-26.64
-13.69
12.22
50.60
98.51
151.23
203.03
247.53
278.94
292.89
286.60
259.04
211.72
149.22
79.07
10.09
-49.77
-94.75
-122.24
-133.65
-134.40
-132.08
-134.14
-145.64
-168.54
-201.48
-239.06
-272.37
-291.37
-288.04
-258.41
-203.87
-130.42
-48.81
27.50
86.08
119.06
124.20
104.33
66.03
17.59
-29.51
-61.49
-71.01
-62.26
-45.53
-29.36
-17.95
-11.93
-12.43
-16.28
-21.13
-25.84
-29.45
-30.39
-27.09
-19.00
-4.18
16.04
39.68
63.42
83.20
95.54
98.96
94.40
84.78
74.57
68.46
70.91
83.62
104.79
129.85
153.37
170.75
179.47
179.54
172.71
161.77
148.59
133.43
115.40
93.62
67.95
38.97
7.65
-24.92
-56.71
-84.57
-104.29
-111.69
-104.63
-84.81
-58.13
-32.82
-16.23
-11.59
-17.02
-27.02
-35.49
-38.75
-36.67
-31.82
-27.27
-24.67
-23.41
-21.50
-17.11
-9.92
-1.52
5.23
7.62
4.40
-3.79
-14.85
-26.29
-36.33
-44.42
-51.07
-57.14
-63.07
-68.42
-72.02
-72.53
-69.17
-62.19
-52.98
-43.58
-36.06
-31.78
-31.11
-33.53
-37.95
-43.23
-48.54
-53.41
-57.64
-61.08
-63.67
-65.56
-67.36
-70.05
-74.60
-81.13
-88.42
-93.93
-94.71
-88.79
-76.23
-59.45
-42.42
-29.32
-23.12
-24.98
-34.28
-49.06
-66.53
-83.28
-95.52
-99.48
-92.10
-71.90
-39.69
1.25
45.59
87.16
120.45
141.97
150.93
149.04
139.50
125.75
110.53
95.63
82.26
71.41
64.05
60.70
61.05
63.72
66.70
68.11
66.92
63.02
56.77
48.37
37.41
22.91
4.03
-19.09
-44.87
-70.24
-91.50
-105.48
-110.76
-108.31
-101.16
-93.30
-88.09
-86.79
-88.11
-88.80
-85.13
-74.68
-57.17
-34.55
-10.05
12.70
30.33
40.27
41.51
35.56
26.78
21.34
24.61
38.18
58.17
76.29
83.47
74.34
50.00
17.36
-14.37
-38.07
-51.29
-55.93
-55.66
-53.06
-48.38
-40.24
-27.54
-10.95
6.72
21.71
31.09
34.15
32.77
30.36
30.22
33.88
40.53
47.49
51.64
50.94
45.34
36.71
27.92
21.59
19.25
21.05
26.14
33.16
40.74
47.73
53.33
57.05
58.66
58.13
55.50
50.84
44.35
36.66
29.02
23.05
19.97
19.82
21.12
21.46
18.53
11.30
0.46
-11.94
-23.24
-31.20
-34.49
-32.70
-26.13
-15.95
-4.26
6.12
12.46
13.80
11.11
7.06
5.04
7.86
16.69
30.57
47.00
62.93
76.77
87.65
95.15
99.10
99.90
98.45
95.73
92.67
89.85
89.06
91.34
96.33
102.30
107.41
110.32
110.32
107.68
103.30
100.38
101.32
106.34
113.29
119.55
123.08
122.72
118.39
99.22
62.31
14.34
-32.99
-71.92
-100.31
-119.31
-132.19
-140.19
-144.13
-143.53
-139.68
-133.18
-127.08
-123.74
-123.92
-127.00
-131.53
-136.19
-138.51
-136.87
-131.07
-122.39
-111.85
-99.94
-86.87
-72.86
-58.67
-44.88
-32.84
-24.67
-22.61
-27.17
-37.10
-50.04
-63.32
-74.82
-82.85
-86.57
-86.18
-82.66
-76.74
-69.24
-61.04
-52.73
-44.13
-34.35
-22.36
-8.08
7.51
23.33
37.99
50.01
58.28
62.71
63.96
63.33
61.90
60.81
61.88
66.43
74.43
84.34
93.91
100.40
101.28
94.31
75.74
47.34
16.58
-8.64
-25.41
-34.97
-41.83
-46.44
-47.49
-43.56
-33.97
-20.32
-4.54
9.26
18.15
21.72
22.30
22.91
26.08
32.94
42.12
49.95
51.98
45.54
30.66
10.07
-12.55
-33.59
-50.39
-62.13
-69.77
-75.26
-79.86
-83.61
-85.45
-84.30
-79.77
-72.34
-63.65
-55.88
-50.98
-49.49
-50.36
-51.34
-50.25
-45.87
-38.66
-30.81
-25.67
-26.44
-34.74
-49.51
-66.96
-81.54
-87.55
-80.87
-60.06
-26.54
15.82
61.72
105.23
140.57
162.93
169.52
160.69
140.10
113.78
87.99
66.83
51.06
38.63
26.81
14.21
1.72
-8.29
-13.85
-14.85
-13.19
-11.63
-12.15
-14.87
-18.42
-21.13
-22.38
-23.18
-25.53
-31.14
-39.98
-49.69
-56.13
-55.06
-44.12
-24.25
0.28
23.26
38.73
43.05
35.86
19.79
-0.84
-21.50
-38.53
-49.54
-53.41
-50.22
-41.17
-28.46
-15.12
-4.34
1.37
1.05
-4.25
-11.52
-16.79
-16.58
-9.16
4.73
22.30
39.83
54.07
63.16
66.88
66.25
62.84
58.34
54.30
52.09
52.84
57.25
65.41
76.68
89.72
102.72
113.70
120.92
123.42
121.25
115.61
108.48
101.92
97.34
95.12
94.68
95.01
95.16
94.47
92.47
88.50
81.66
71.00
56.07
37.39
16.56
-4.08
-22.12
-35.73
-43.98
-46.83
-44.97
-39.72
-32.99
-27.13
-24.48
-26.86
-34.96
-48.21
-65.16
-84.19
-104.24
-125.09
-147.19
-170.94
-196.01
-220.84
-242.74
-258.33
-264.33
-258.34
-239.42
-208.47
-168.22
-122.90
-77.53
-36.79
-3.77
20.98
39.45
55.28
71.98
91.37
112.77
133.40
149.60
158.23
157.43
146.84
127.24
100.37
68.89
36.49
7.63
-13.32
-23.16
-20.86
-7.97
11.66
32.66
49.32
56.96
53.32
39.53
20.28
2.86
-4.69
3.85
30.72
73.11
123.73
172.64
209.76
227.36
221.53
192.83
145.46
85.70
20.46
-43.52
-100.40
-145.78
-177.04
-193.77
-197.30
-190.60
-178.02
-164.21
-152.56
-144.47
-139.53
-136.07
-132.55
-127.45
-120.23
-112.09
-105.47
-102.31
-103.02
-106.22
-108.92
-107.65
-98.25
-77.28
-44.26
-2.32
42.82
84.17
114.94
130.52
124.77
96.42
54.54
13.72
-16.00
-32.79
-39.97
-43.98
-46.03
-45.14
-39.00
-25.83
-6.26
16.89
40.66
61.91
78.59
90.58
98.68
105.01
111.65
119.03
125.64
129.41
128.85
123.75
115.40
105.48
96.09
88.78
83.65
79.27
73.53
64.48
50.91
32.99
11.67
-11.40
-34.67
-57.24
-79.02
-100.00
-119.79
-137.26
-150.67
-158.52
-160.34
-156.84
-149.13
-137.45
-120.07
-93.83
-56.38
-7.84
47.59
101.86
145.59
171.93
178.74
168.95
148.04
121.03
92.18
64.75
41.24
23.41
12.52
7.86
6.57
3.38
-7.74
-28.97
-56.90
-83.84
-101.20
-102.14
-84.62
-51.20
-5.79
39.49
72.42
90.11
98.81
104.96
113.33
119.02
115.46
98.00
65.38
20.77
-31.98
-87.09
-140.44
-189.01
-229.72
-257.18
-264.88
-248.04
-205.27
-140.76
-64.41
9.99
69.47
105.02
113.72
97.50
61.09
11.11
-45.16
-100.51
-148.54
-183.53
-201.03
-198.07
-174.29
-132.69
-79.04
-21.02
33.37
77.25
106.67
121.37
124.67
121.80
118.01
116.63
118.06
120.25
119.43
111.40
92.80
62.66
23.09
-20.04
-58.41
-83.21
-87.30
-67.75
-27.85
23.41
74.32
114.07
137.02
143.10
136.64
124.73
114.32
109.08
108.41
108.98
106.01
96.35
77.76
49.44
13.93
-22.50
-51.94
-67.16
-63.35
-40.25
-0.41
50.04
96.81
124.22
125.62
106.67
77.63
51.62
26.41
-1.37
-34.11
-73.04
-118.21
-165.75
-211.08
-250.15
-278.98
-293.86
-290.32
-266.02
-222.23
-163.28
-96.20
-30.59
23.58
59.33
75.02
74.94
66.11
55.49
48.07
45.33
44.70
41.44
31.72
15.67
-3.06
-19.09
-26.68
-21.05
0.26
36.39
83.82
137.14
190.96
238.03
270.17
280.65
266.88
231.50
181.89
128.53
73.14
24.47
-9.80
-29.18
-39.67
-47.46
-54.88
-62.00
-67.50
-70.73
-71.10
-70.25
-69.17
-67.52
-63.00
-53.20
-36.50
-13.00
14.75
43.04
66.35
79.64
80.17
68.24
45.48
15.19
-18.22
-50.63
-78.60
-100.82
-117.45
-129.38
-137.72
-144.83
-152.06
-158.90
-163.56
-163.45
-156.18
-139.91
-114.08
-73.66
-23.98
21.83
51.82
62.63
58.73
47.56
35.75
27.26
23.16
21.33
19.87
18.36
17.38
17.37
18.36
20.06
22.16
24.23
24.97
23.88
21.46
18.53
15.40
11.87
7.52
2.32
-3.90
-11.39
-19.50
-26.70
-31.32
-32.57
-30.68
-26.86
-22.24
-17.97
-15.17
-14.30
-15.15
-17.18
-19.98
-23.37
-27.41
-31.24
-34.04
-35.40
-35.28
-33.90
-31.55
-28.65
-25.46
-22.62
-18.96
-12.90
-3.14
10.79
28.32
47.87
67.02
83.42
95.40
104.39
113.02
123.80
138.14
155.79
174.81
191.98
204.04
199.13
171.31
123.65
67.24
14.32
-27.73
-57.24
-76.04
-86.45
-90.83
-90.08
-85.66
-79.79
-74.37
-69.11
-62.14
-50.81
-32.65
-8.07
20.14
46.71
63.03
64.30
51.66
32.92
12.82
-4.87
-18.33
-27.08
-31.95
-34.24
-35.10
-35.60
-38.25
-44.92
-55.07
-66.47
-76.31
-84.71
-90.67
-92.79
-90.56
-85.23
-77.76
-65.19
-44.74
-15.06
24.30
68.50
112.37
152.60
180.77
189.16
173.86
136.79
83.54
22.21
-38.75
-90.25
-121.67
-128.92
-115.87
-96.51
-75.39
-54.28
-35.22
-19.61
-9.62
-6.39
-10.15
-18.57
-27.93
-32.95
-30.09
-16.38
7.86
38.99
70.80
95.06
107.64
105.93
90.73
65.11
33.49
-0.53
-31.50
-54.37
-67.64
-69.38
-61.52
-49.13
-38.56
-34.24
-37.11
-47.05
-61.70
-79.14
-96.24
-108.98
-112.31
-98.78
-65.85
-15.68
45.58
109.91
167.08
207.58
224.56
216.02
184.40
135.77
78.31
17.40
-35.18
-70.30
-87.17
-91.62
-89.20
-82.33
-70.90
-55.20
-39.90
-27.80
-22.08
-23.47
-28.68
-31.18
-25.16
-7.10
22.97
62.22
102.56
133.46
146.98
141.07
123.63
98.46
68.73
37.43
6.80
-21.70
-46.31
-67.45
-86.93
-106.47
-127.14
-147.69
-165.96
-180.04
-188.72
-190.67
-185.69
-173.97
-155.35
-129.71
-96.53
-56.08
-9.56
41.01
93.82
144.63
187.28
215.40
224.34
212.97
183.59
141.80
88.97
35.48
-5.81
-27.93
-34.80
-35.12
-35.09
-38.10
-44.06
-51.59
-56.77
-56.49
-48.88
-34.00
-13.94
7.24
24.24
32.69
30.46
19.47
3.67
-11.35
-20.28
-19.62
-8.95
9.04
30.14
49.71
65.04
75.20
82.23
89.10
97.82
108.20
117.94
124.28
124.59
117.86
99.24
69.68
36.37
8.24
-10.20
-22.33
-31.65
-40.70
-49.24
-57.59
-65.31
-71.91
-76.34
-76.26
-68.04
-47.90
-14.87
27.97
73.91
115.59
146.35
161.45
158.82
139.21
105.92
63.42
16.88
-28.37
-66.87
-94.74
-110.94
-117.29
-117.63
-116.26
-116.97
-121.81
-130.31
-139.03
-142.72
-136.36
-117.07
-85.45
-45.53
-3.71
33.56
61.73
79.43
87.83
89.19
85.45
77.60
66.01
51.15
34.22
17.16
2.07
-9.57
-17.43
-22.28
-25.53
-28.56
-32.23
-36.69
-41.44
-45.51
-47.69
-46.65
-41.17
-30.41
-14.21
6.62
30.29
54.29
75.93
92.81
103.24
106.40
102.27
91.57
75.55
55.88
34.46
13.10
-6.76
-24.27
-39.30
-52.19
-63.40
-73.04
-80.67
-85.42
-86.57
-84.26
-79.98
-76.40
-76.57
-82.82
-95.70
-113.66
-133.44
-151.31
-164.32
-171.04
-171.60
-166.98
-158.17
-145.62
-129.15
-108.42
-83.60
-55.73
-26.72
1.07
25.36
44.28
56.60
61.71
59.62
50.84
36.53
18.80
0.78
-13.46
-19.84
-15.41
0.51
25.77
55.42
83.13
103.31
113.03
113.00
106.60
98.20
91.45
88.24
88.26
89.85
91.18
91.26
90.20
88.27
85.29
80.55
73.16
62.10
46.87
27.98
6.64
-13.01
-26.19
-31.03
-29.59
-25.81
-23.40
-24.36
-28.71
-35.16
-41.99
-48.30
-54.07
-60.45
-66.94
-72.56
-76.17
-76.96
-74.85
-70.44
-65.10
-60.50
-57.83
-57.20
-58.09
-59.52
-60.09
-58.93
-55.65
-50.61
-44.78
-39.23
-34.54
-30.78
-27.37
-23.36
-17.82
-10.16
-0.51
10.33
21.23
31.15
39.27
45.18
48.91
50.81
51.51
51.62
51.51
51.28
50.84
50.00
48.67
46.88
44.77
42.44
39.90
37.06
33.83
30.33
26.84
23.75
21.28
19.38
17.68
15.72
13.14
9.91
6.39
3.17
0.72
-0.85
-1.87
-2.99
-4.75
-7.20
-9.78
-11.50
-11.39
-8.97
-4.45
1.40
7.58
13.32
18.25
22.39
25.90
28.88
31.25
32.87
33.65
33.66
33.14
32.39
31.62
30.90
30.13
29.17
27.94
26.51
25.05
23.74
22.71
21.91
21.20
20.37
19.23
17.67
15.64
13.19
10.40
7.38
4.28
1.29
-1.47
-3.94
-6.16
-8.30
-10.58
-13.14
-15.95
-18.70
-20.87
-21.86
-21.23
-18.84
-14.93
-10.02
-4.75
0.33
4.82
8.57
11.56
13.86
15.57
16.71
17.29
17.32
16.86
16.05
15.13
14.38
13.93
13.79
13.79
13.71
13.37
12.75
11.89
10.90
9.86
8.79
7.69
6.57
5.44
4.30
3.10
1.77
0.25
-1.49
-3.33
-5.13
-6.71
-7.95
-8.90
-9.67
-10.47
-11.49
-12.81
-14.32
-15.73
-16.65
-16.69
-15.62
-13.36
-10.08
-6.05
-1.63
2.84
7.02
10.66
13.61
15.85
17.46
18.56
19.28
19.69
19.81
19.61
19.09
18.31
17.38
16.43
15.56
14.83
14.24
13.72
13.16
12.44
11.41
9.99
8.17
6.05
3.80
1.61
-0.38
-2.15
-3.69
-5.05
-6.27
-7.38
-8.43
-9.53
-10.81
-12.35
-14.16
-16.11
-17.99
-19.60
-20.81
-21.52
-21.66
-21.13
-19.85
-17.79
-15.02
-11.69
-8.04
-4.28
-0.60
2.87
6.02
8.69
10.71
12.03
12.72
13.03
13.29
13.80
14.69
15.89
17.07
17.88
18.14
17.93
17.63
17.72
18.60
20.46
23.03
25.70
27.79
28.94
29.31
29.55
30.51
32.98
37.40
43.43
49.97
55.63
59.46
61.43
62.41
63.88
67.37
74.07
83.83
94.89
104.20
108.39
104.82
92.33
71.79
46.10
19.80
-2.91
-19.49
-29.85
-35.86
-40.39
-46.32
-55.79
-71.32
-91.52
-111.32
-124.97
-129.74
-126.50
-117.88
-106.95
-96.20
-87.14
-79.86
-74.61
-70.84
-68.59
-68.39
-70.65
-75.52
-82.48
-90.33
-97.00
-100.27
-98.47
-88.74
-70.64
-46.01
-18.82
6.35
25.28
35.62
37.30
32.32
23.87
15.02
8.29
5.24
7.31
14.80
26.12
37.53
43.79
40.32
25.43
1.79
-23.90
-41.84
-44.93
-30.80
-1.99
34.86
71.61
101.33
120.57
122.90
108.60
82.79
52.06
21.30
-7.07
-31.54
-50.56
-63.43
-69.92
-69.70
-64.17
-55.97
-47.89
-41.64
-37.18
-33.16
-27.50
-19.26
-7.90
5.69
19.87
32.96
42.57
47.14
46.31
40.82
31.89
21.18
9.95
-0.56
-9.31
-15.68
-19.45
-21.05
-21.46
-21.23
-20.18
-17.89
-13.73
-7.56
0.20
8.81
17.52
25.74
33.08
39.40
43.08
42.94
38.16
28.66
15.53
0.94
-12.28
-21.40
-24.65
-21.72
-13.66
-2.79
8.04
16.25
20.22
19.53
14.94
8.02
0.65
-5.32
-8.78
-9.57
-8.41
-6.45
-4.84
-4.28
-4.89
-6.30
-7.82
-8.82
-9.02
-8.44
-7.35
-6.16
-5.31
-5.28
-6.60
-9.67
-14.68
-21.55
-29.73
-38.31
-46.03
-51.60
-54.05
-52.99
-48.71
-42.11
-34.44
-26.92
-20.41
-15.24
-11.19
-7.77
-4.56
-1.34
1.85
4.73
6.96
8.19
8.30
7.38
5.62
3.16
0.47
-1.80
-2.95
-2.47
-0.29
3.49
8.69
14.98
21.69
28.22
33.96
38.26
40.63
41.03
40.39
40.43
42.46
46.26
50.49
53.00
51.42
44.06
30.28
11.35
-9.73
-29.15
-43.58
-50.07
-47.00
-34.74
-15.37
4.80
18.05
20.49
16.26
9.35
2.09
-4.73
-12.07
-20.11
-28.47
-35.62
-39.28
-37.89
-31.45
-21.64
-11.03
-1.96
4.59
9.06
13.14
18.73
26.76
37.06
48.14
58.00
64.68
66.97
64.14
55.97
42.65
21.50
-6.55
-37.34
-65.76
-88.66
-104.74
-113.24
-113.34
-105.04
-92.23
-77.51
-65.14
-58.97
-60.28
-66.27
-71.05
-68.37
-54.06
-26.37
13.01
59.59
108.00
152.81
188.58
209.86
211.75
192.06
153.73
105.77
60.02
26.71
10.12
7.44
11.14
12.65
6.31
-8.31
-26.74
-42.75
-51.30
-50.84
-42.68
-29.11
-12.52
5.35
23.36
40.60
55.23
64.66
65.34
51.44
23.07
-12.57
-45.57
-69.61
-83.82
-90.55
-91.54
-89.99
-85.30
-75.63
-61.15
-45.20
-33.24
-30.32
-38.76
-55.36
-74.22
-87.66
-87.93
-70.99
-37.78
6.89
56.82
101.08
136.22
163.53
179.00
179.12
161.82
128.10
82.81
33.84
-10.31
-42.03
-59.15
-64.65
-63.58
-61.33
-62.01
-67.92
-79.60
-96.23
-114.49
-131.63
-145.30
-152.23
-148.89
-132.60
-102.57
-60.52
-10.46
43.75
96.14
139.92
169.73
182.70
178.66
159.63
129.14
85.98
36.22
-10.50
-45.89
-66.53
-73.34
-69.57
-59.66
-48.54
-41.59
-38.17
-36.38
-33.63
-26.93
-13.89
5.96
30.65
55.59
74.01
82.45
81.60
75.83
70.21
67.70
67.68
66.45
59.68
44.93
23.98
0.94
-19.28
-32.89
-38.25
-36.59
-32.18
-28.92
-29.70
-35.33
-45.39
-58.51
-72.24
-82.91
-84.50
-73.68
-50.85
-20.93
8.39
29.45
37.87
34.30
23.69
12.44
5.21
3.72
6.78
12.08
17.61
22.31
25.46
26.64
25.00
20.40
14.43
9.97
10.18
16.77
29.10
44.36
58.92
69.70
75.46
76.52
73.51
66.34
54.05
35.90
12.67
-12.43
-34.90
-50.13
-55.57
-51.98
-42.98
-33.29
-26.52
-24.04
-22.83
-20.91
-17.30
-12.82
-10.01
-12.09
-21.54
-38.95
-62.50
-88.04
-110.15
-122.63
-120.16
-100.07
-63.68
-16.72
31.89
72.48
97.65
104.29
94.59
74.49
51.08
29.97
13.69
1.69
-8.40
-18.72
-29.73
-39.27
-43.43
-38.60
-23.56
-0.45
25.69
48.97
65.01
72.45
72.89
69.39
64.47
58.97
52.21
43.23
31.94
19.64
8.33
-0.40
-6.40
-11.08
-16.68
-25.14
-37.05
-51.41
-66.11
-79.01
-88.82
-95.70
-100.96
-106.23
-112.26
-118.07
-120.90
-117.22
-104.40
-82.16
-53.06
-21.67
7.34
30.91
48.31
60.59
69.27
75.37
79.11
80.45
79.61
77.57
75.77
75.54
77.54
81.56
86.64
91.24
93.48
91.34
83.47
69.89
52.13
32.65
13.99
-2.22
-15.55
-26.39
-35.64
-43.17
-47.54
-46.96
-40.59
-29.34
-15.26
-0.35
14.29
27.34
37.75
43.99
43.54
33.64
13.42
-14.24
-42.85
-64.96
-77.23
-79.87
-75.91
-69.46
-64.36
-62.85
-65.32
-71.00
-79.32
-92.45
-111.26
-133.86
-156.31
-174.63
-185.96
-188.56
-181.31
-150.56
-93.96
-23.05
43.55
92.59
120.30
129.63
126.65
118.34
110.94
104.40
97.77
90.71
83.50
76.11
67.95
58.23
46.48
32.79
16.77
0.72
-10.68
-12.55
-2.56
17.51
40.86
61.99
74.85
73.53
55.84
23.76
-18.08
-63.81
-107.03
-143.29
-170.51
-189.07
-200.55
-205.48
-203.11
-192.05
-171.55
-142.24
-106.19
-65.59
-22.27
23.06
70.41
118.59
163.49
198.13
214.93
209.46
184.01
147.33
111.93
88.58
81.12
85.28
92.03
93.29
86.35
74.83
65.20
63.60
72.63
90.56
113.00
135.40
154.53
168.28
174.74
171.20
156.16
130.01
94.69
52.81
7.10
-39.77
-85.43
-127.87
-166.02
-198.00
-221.32
-234.06
-235.41
-225.44
-204.74
-174.80
-131.28
-78.91
-28.34
11.49
37.88
51.99
55.30
48.67
34.71
14.40
-10.63
-36.43
-57.91
-71.28
-75.62
-72.84
-64.68
-54.48
-45.45
-40.51
-40.68
-44.63
-49.53
-51.83
-47.94
-34.70
-10.61
23.79
64.21
103.40
133.13
146.46
140.23
116.32
81.68
45.95
19.10
7.20
10.60
24.98
43.52
59.70
69.16
70.82
61.33
42.75
22.13
6.76
-0.29
-0.61
3.72
9.66
15.08
18.32
19.26
18.45
14.82
9.36
4.20
1.71
2.89
6.96
11.37
13.84
12.73
7.37
-1.26
-10.97
-18.99
-23.15
-21.88
-16.23
-9.11
-3.71
-2.29
-5.15
-11.06
-17.96
-23.96
-27.93
-29.78
-30.32
-29.49
-27.27
-23.71
-19.19
-14.37
-10.23
-7.91
-8.46
-12.29
-18.97
-27.81
-37.19
-45.65
-51.98
-55.55
-56.41
-55.12
-52.21
-47.66
-41.18
-32.34
-21.13
-8.25
4.83
16.14
23.77
26.32
23.23
14.75
1.88
-13.79
-30.26
-45.39
-57.12
-63.69
-63.89
-57.26
-44.40
-27.17
-8.45
8.33
20.03
24.81
22.80
16.16
8.38
3.17
3.25
9.69
21.43
35.74
49.34
59.64
65.37
66.50
63.87
58.64
52.40
46.32
41.05
36.97
34.47
33.71
34.35
35.50
36.10
36.05
35.35
33.64
30.58
26.30
21.50
17.21
14.57
14.59
18.97
28.45
42.01
57.24
71.10
80.56
83.14
77.81
60.30
33.18
5.36
-14.45
-24.02
-26.77
-27.06
-27.35
-26.74
-23.36
-15.44
-3.75
8.27
16.40
17.69
11.36
-1.37
-17.98
-35.71
-51.47
-63.23
-70.33
-72.83
-70.66
-63.61
-51.79
-36.13
-18.56
-1.29
13.22
22.60
25.51
22.20
14.40
4.48
-5.27
-13.28
-18.63
-21.28
-21.89
-21.45
-20.74
-20.18
-19.91
-19.95
-20.30
-20.78
-21.24
-21.50
-21.29
-20.31
-18.32
-15.42
-11.98
-8.68
-6.12
-4.83
-5.00
-6.43
-8.50
-10.21
-10.48
-8.48
-3.99
2.56
9.93
16.39
20.35
20.80
17.45
10.60
0.83
-11.24
-24.63
-38.61
-52.59
-65.85
-77.51
-86.79
-93.41
-97.53
-99.68
-99.52
-96.85
-91.75
-84.26
-74.47
-62.82
-50.70
-40.03
-32.86
-29.42
-29.52
-32.64
-37.28
-40.65
-39.28
-30.17
-11.13
18.37
58.46
105.86
153.53
192.67
215.60
217.85
198.98
162.81
106.65
38.43
-27.13
-78.03
-111.03
-128.49
-133.09
-128.80
-116.56
-98.64
-77.50
-57.20
-41.71
-32.46
-28.99
-28.17
-26.37
-20.77
-10.93
3.00
19.06
34.29
46.15
53.59
57.03
57.14
54.60
49.54
42.84
35.07
26.47
17.47
8.99
2.37
-1.34
-1.58
1.40
7.11
14.57
22.49
29.80
35.96
40.95
44.70
46.93
47.03
44.67
39.97
33.75
27.43
22.62
20.49
21.25
24.09
27.47
29.75
29.71
26.82
21.22
13.65
5.34
-2.19
-7.37
-8.92
-6.24
0.35
9.72
20.31
30.67
39.80
47.24
52.85
56.51
57.94
56.85
53.21
47.44
40.43
33.32
27.03
21.95
17.83
13.99
9.70
4.65
-0.85
-5.95
-9.67
-11.47
-11.60
-11.12
-11.48
-13.86
-18.61
-25.17
-32.30
-38.69
-43.45
-46.28
-47.43
-47.44
-46.99
-46.79
-47.46
-49.42
-52.62
-56.32
-59.21
-59.73
-56.67
-49.72
-39.65
-28.00
-16.51
-6.49
1.39
7.13
10.97
13.24
14.26
14.58
15.06
16.71
20.29
25.83
32.41
38.46
42.43
43.44
41.58
37.76
33.23
29.11
26.20
24.95
25.46
27.38
29.86
31.60
31.37
28.59
23.88
18.93
15.88
16.21
20.09
26.22
32.49
37.06
39.17
39.36
38.90
38.92
39.66
40.29
39.29
35.22
27.39
16.16
2.68
-11.57
-25.27
-37.51
-47.85
-56.17
-62.52
-67.02
-69.85
-71.22
-71.41
-70.91
-70.53
-71.48
-75.00
-81.83
-91.53
-102.15
-110.46
-112.86
-106.54
-90.51
-66.16
-36.95
-7.42
18.13
36.76
47.46
50.96
48.93
43.25
35.38
26.24
16.65
7.62
0.48
-3.45
-3.46
0.19
6.30
13.13
18.93
22.49
23.37
21.93
19.05
15.80
13.09
11.48
11.11
11.80
13.37
15.93
19.78
25.14
31.78
38.89
45.60
51.10
54.95
57.31
58.75
59.94
61.22
62.36
62.94
63.12
63.21
63.47
63.94
64.40
64.42
63.45
60.71
55.90
49.84
43.49
37.36
31.27
24.79
17.50
9.36
0.43
-8.47
-15.39
-18.82
-18.36
-14.54
-8.00
1.19
13.64
29.77
43.22
48.98
45.17
33.47
16.32
-4.78
-28.70
-51.11
-72.10
-90.91
-105.61
-114.97
-119.06
-119.06
-115.58
-109.36
-101.15
-92.46
-84.55
-78.11
-73.83
-72.08
-72.45
-73.29
-72.07
-66.10
-54.14
-36.33
-14.41
8.30
27.93
41.50
47.98
48.42
45.23
40.70
36.58
33.71
32.01
30.97
30.09
29.11
27.80
26.00
23.35
19.80
15.56
10.98
6.41
2.04
-2.10
-5.99
-9.54
-12.65
-15.28
-17.76
-20.72
-24.75
-30.00
-35.80
-40.75
-43.17
-41.80
-36.42
-27.98
-18.48
-10.26
-5.24
-4.26
-6.75
-10.83
-13.90
-13.51
-8.31
1.37
13.67
25.86
35.32
40.44
40.95
37.78
32.47
26.48
20.75
15.54
10.76
6.10
1.27
-3.90
-9.48
-15.46
-21.72
-27.90
-33.34
-36.93
-37.69
-35.13
-29.44
-21.33
-11.65
-1.10
9.88
20.89
31.76
41.75
49.63
54.17
54.99
52.89
49.45
46.29
44.44
44.70
46.91
50.21
53.36
55.56
56.47
56.10
54.60
52.25
50.42
50.14
51.66
54.20
56.76
58.63
59.53
59.70
54.27
41.55
23.54
4.70
-11.17
-21.91
-26.68
-25.69
-20.46
-13.89
-8.72
-7.41
-10.41
-17.49
-26.48
-34.10
-37.57
-35.84
-29.87
-21.45
-13.01
-6.90
-5.04
-8.42
-17.18
-30.79
-48.03
-66.91
-84.32
-96.99
-102.59
-100.58
-92.24
-80.21
-67.58
-56.78
-48.91
-43.41
-38.99
-34.41
-29.06
-22.76
-15.51
-7.32
1.75
11.35
20.81
29.14
35.20
38.14
37.76
34.60
29.71
24.48
20.37
18.79
20.75
26.39
34.62
43.15
49.09
49.87
44.17
32.24
15.69
-3.31
-22.63
-40.37
-54.68
-63.49
-64.76
-57.22
-41.24
-19.20
4.96
26.94
43.39
52.76
55.36
52.66
46.43
38.08
28.39
17.78
6.68
-4.17
-13.69
-20.78
-24.71
-25.52
-24.03
-21.60
-19.66
-19.25
-20.74
-23.77
-27.56
-31.14
-33.86
-35.39
-35.85
-35.68
-35.50
-35.74
-36.44
-37.18
-37.28
-36.17
-33.54
-29.44
-24.10
-17.72
-10.38
-2.02
7.08
16.03
23.22
27.08
26.71
22.26
14.92
6.54
-1.01
-6.69
-10.46
-13.22
-15.69
-17.85
-18.95
-18.02
-14.49
-8.64
-2.19
3.12
4.13
-1.61
-14.17
-31.24
-49.34
-64.54
-72.85
-70.92
-56.69
-30.90
3.00
39.36
72.13
96.83
110.90
114.58
110.08
100.74
89.14
77.46
67.69
60.82
57.61
59.11
66.38
77.00
87.89
94.69
94.37
86.58
72.50
55.11
39.18
29.66
29.21
37.75
51.30
64.52
72.07
67.97
47.75
11.12
-38.11
-93.72
-148.04
-194.94
-229.27
-236.20
-208.62
-156.53
-100.56
-57.02
-33.75
-22.63
-16.14
-9.52
-1.54
6.91
11.63
9.56
0.03
-15.27
-30.77
-41.32
-42.77
-39.34
-33.95
-28.16
-18.07
-1.11
22.81
50.46
74.82
88.93
88.71
74.66
50.87
24.38
2.10
-11.42
-15.07
-11.60
-5.05
0.97
4.52
4.68
1.93
-2.65
-7.58
-11.50
-13.91
-14.68
-13.90
-11.47
-7.60
-2.54
3.26
9.21
14.40
17.58
17.68
14.32
8.25
0.89
-6.04
-11.17
-13.70
-13.63
-11.63
-8.65
-5.46
-2.74
-1.09
-1.19
-3.47
-7.73
-13.03
-17.67
-19.68
-17.39
-10.53
-0.22
11.20
21.14
27.47
28.83
25.12
17.38
7.75
-1.79
-9.60
-14.99
-17.91
-18.74
-18.27
-17.22
-16.40
-16.61
-19.83
-26.38
-36.50
-49.16
-61.89
-71.97
-77.12
-79.70
-79.69
-77.69
-74.47
-70.73
-66.59
-59.59
-49.13
-35.50
-19.78
-2.85
14.07
30.12
44.66
57.20
67.04
72.97
74.25
71.08
65.22
58.81
53.88
51.41
51.17
51.95
51.98
50.10
46.08
40.80
35.25
30.25
26.10
22.65
19.43
15.69
10.79
4.29
-3.80
-13.27
-23.40
-33.14
-41.27
-46.61
-48.41
-46.38
-40.84
-32.58
-22.84
-12.85
-3.71
3.77
9.21
12.53
13.95
13.80
12.51
10.52
8.46
6.89
6.08
5.96
6.13
6.06
5.26
3.50
0.93
-1.63
-3.47
-4.39
-4.78
-5.23
-6.26
-8.11
-10.73
-13.73
-15.68
-15.31
-12.15
-6.52
0.98
9.67
18.97
28.49
37.90
48.19
59.88
72.11
83.21
91.84
97.50
100.80
103.02
105.47
110.59
119.58
131.31
143.36
153.66
161.01
165.14
166.14
152.73
119.45
70.42
16.72
-31.57
-69.49
-96.61
-115.78
-129.99
-140.68
-146.75
-147.38
-143.91
-139.22
-132.88
-125.55
-117.71
-109.62
-101.61
-92.85
-79.43
-60.75
-38.42
-14.80
7.38
25.45
37.59
43.06
42.37
36.74
27.04
14.00
-1.75
-18.95
-35.87
-50.40
-60.29
-63.31
-58.25
-46.17
-29.83
-12.80
1.47
10.74
14.59
14.36
12.45
11.40
12.79
17.22
24.48
33.71
43.67
53.07
60.66
65.24
65.96
62.35
54.61
43.69
31.00
18.00
5.87
-4.74
-13.66
-20.98
-26.71
-30.48
-31.51
-28.76
-21.40
-9.13
7.53
27.09
47.29
65.37
78.66
85.28
84.80
78.47
69.07
60.10
54.68
54.59
59.74
68.39
77.72
84.72
86.89
82.66
71.57
54.34
32.79
9.72
-11.51
-27.70
-36.64
-37.84
-32.73
-24.15
-15.51
-9.65
-8.14
-11.06
-17.36
-25.49
-33.99
-41.73
-47.97
-52.13
-53.90
-53.43
-51.68
-50.55
-52.47
-59.61
-72.81
-90.83
-110.29
-126.59
-135.45
-134.49
-124.15
-107.41
-88.66
-72.03
-60.08
-53.31
-50.53
-49.85
-49.51
-48.47
-46.41
-43.46
-39.95
-36.20
-32.57
-29.47
-27.33
-26.52
-27.16
-29.01
-31.46
-33.61
-34.51
-33.46
-30.28
-25.52
-20.32
-16.09
-14.00
-14.48
-17.03
-20.34
-22.76
-22.85
-19.92
-14.13
-6.38
2.13
10.28
17.33
22.95
27.13
29.99
31.70
32.40
32.34
31.85
31.34
31.15
31.33
31.61
31.35
29.91
26.97
22.84
18.54
15.49
14.96
17.52
22.77
29.47
35.94
40.70
42.87
42.25
39.18
34.26
28.13
21.43
14.97
9.88
7.67
10.03
18.29
32.86
52.80
75.69
98.19
116.73
128.50
131.97
127.20
115.65
99.74
82.31
66.00
52.85
43.86
38.92
36.89
36.05
34.63
31.39
25.89
18.50
10.01
1.25
-7.22
-15.23
-22.77
-29.87
-36.38
-42.00
-46.52
-50.03
-52.97
-55.94
-59.41
-63.36
-67.23
-70.13
-71.23
-70.23
-67.45
-63.67
-59.76
-56.31
-53.39
-50.63
-47.48
-43.55
-38.76
-33.40
-28.00
-23.06
-18.89
-15.51
-12.67
-10.03
-7.32
-4.52
-1.86
0.30
1.68
2.27
2.38
2.49
3.08
4.39
6.27
8.20
9.41
9.10
6.75
2.46
-2.93
-7.86
-10.44
-9.09
-3.07
7.18
20.22
34.07
46.87
57.40
65.17
70.29
73.20
74.36
74.14
72.88
70.84
68.24
65.13
61.27
56.17
49.25
40.15
29.00
16.54
3.95
-7.46
-16.67
-23.13
-26.77
-27.82
-26.65
-23.64
-19.19
-13.67
-7.34
-0.14
8.26
18.31
30.22
43.50
57.01
69.15
78.40
83.75
84.86
81.92
75.34
65.56
52.97
38.12
21.81
5.07
-11.02
-25.59
-38.17
-48.70
-57.47
-64.89
-71.31
-77.00
-82.12
-86.87
-91.42
-95.86
-100.05
-103.46
-105.20
-104.34
-100.33
-93.39
-84.73
-76.28
-70.36
-69.04
-73.62
-84.35
-100.22
-119.14
-138.13
-153.92
-163.49
-164.74
-156.87
-140.54
-117.67
-90.97
-63.46
-37.80
-15.81
2.06
16.93
31.16
47.46
67.59
91.38
116.45
139.10
155.79
164.73
166.46
163.40
158.45
153.66
149.40
144.63
137.69
127.24
112.85
95.12
75.61
56.40
39.63
26.87
18.51
13.40
9.13
2.79
-7.83
-23.27
-42.21
-61.90
-79.38
-92.61
-101.19
-106.35
-110.34
-115.52
-123.37
-134.00
-146.03
-156.89
-163.48
-163.07
-153.96
-136.02
-110.80
-81.15
-50.55
-22.35
0.98
18.19
29.31
35.36
37.93
38.66
38.99
39.90
41.94
45.37
50.14
56.08
62.87
70.13
77.49
84.62
91.28
97.27
102.21
105.46
106.21
103.63
97.33
87.54
75.15
61.41
47.46
34.05
21.38
9.29
-2.49
-14.04
-25.29
-35.97
-45.77
-54.39
-61.59
-67.25
-71.37
-74.24
-76.41
-78.55
-81.30
-85.00
-89.54
-94.37
-98.56
-101.04
-100.77
-96.92
-89.06
-77.19
-61.78
-43.63
-23.72
-2.98
17.72
37.60
55.87
71.71
84.33
93.20
98.17
99.54
97.86
93.71
87.63
80.16
71.96
63.81
56.40
50.02
44.37
38.66
32.05
24.08
15.00
5.63
-3.08
-10.53
-16.72
-22.16
-27.52
-33.22
-39.18
-44.91
-49.77
-53.29
-55.35
-56.21
-56.30
-55.91
-55.08
-53.48
-50.65
-46.24
-40.25
-33.13
-25.69
-18.83
-13.25
-9.16
-6.23
-3.62
-0.31
4.54
11.24
19.47
28.48
37.43
45.73
53.18
59.80
65.65
70.58
74.26
76.34
76.76
75.76
73.80
71.24
68.11
64.05
58.63
51.67
43.63
35.57
28.74
24.09
21.78
21.17
20.97
20.34
19.36
19.04
20.66
25.08
32.39
41.97
52.75
63.40
72.87
80.47
85.52
86.94
83.43
74.12
59.41
41.35
22.87
7.63
-1.01
-1.33
5.77
17.22
29.04
37.97
42.45
41.20
35.09
26.87
19.65
14.79
11.44
7.40
0.31
-11.40
-31.35
-60.14
-94.05
-126.75
-153.06
-170.36
-178.30
-177.98
-171.66
-167.81
-172.75
-187.08
-207.03
-228.72
-249.77
-268.70
-284.48
-296.73
-312.94
-338.35
-371.73
-407.17
-439.38
-465.38
-483.32
-491.60
-445.59
-330.62
-174.18
-23.70
91.04
165.96
210.57
237.19
255.63
272.15
281.52
278.44
263.64
242.81
221.30
202.40
188.51
182.16
182.74
185.39
186.18
184.95
184.07
184.81
186.43
187.41
186.53
182.60
171.95
152.70
127.81
103.69
86.12
77.98
78.62
84.72
90.70
89.77
76.87
52.05
20.43
-10.52
-33.49
-43.54
-38.84
-21.37
4.71
29.39
42.42
39.24
24.19
6.34
-7.73
-12.29
-11.37
-9.01
-7.99
-8.40
-8.02
-7.63
-7.19
-7.39
-9.11
-13.51
-20.02
-27.34
-33.18
-35.23
-32.63
-26.31
-19.17
-14.52
-15.16
-21.57
-32.66
-45.99
-58.56
-67.90
-72.37
-71.68
-66.41
-57.89
-47.18
-35.36
-23.29
-11.70
-1.50
6.27
10.21
9.09
2.29
-9.35
-23.60
-37.21
-47.07
-51.59
-51.50
-49.79
-50.19
-55.24
-64.74
-75.63
-83.49
-84.60
-77.79
-64.92
-49.87
-36.71
-27.97
-23.92
-23.00
-22.96
-21.95
-19.02
-14.07
-7.36
0.91
10.76
22.23
35.08
48.59
61.59
72.81
81.24
86.46
88.69
88.60
87.03
84.67
81.94
78.98
75.70
71.99
67.78
63.05
57.88
52.38
46.68
40.86
35.04
29.40
24.14
19.47
15.47
11.93
8.31
3.90
-1.84
-8.84
-16.29
-22.75
-26.75
-27.37
-24.63
-19.55
-13.66
-8.43
-4.76
-2.74
-1.77
-0.92
0.66
3.50
7.71
12.97
18.76
24.39
29.17
32.55
34.08
33.54
30.92
26.57
21.05
15.13
9.53
4.79
1.12
-1.60
-3.76
-5.95
-8.86
-13.06
-18.79
-25.71
-32.74
-38.27
-40.56
-38.28
-31.05
-19.62
-5.56
9.19
22.94
34.60
43.68
50.14
54.09
55.60
54.70
51.49
46.22
39.32
31.36
22.91
14.45
6.26
-1.57
-9.06
-16.17
-22.77
-28.53
-33.04
-35.96
-37.14
-36.75
-35.22
-33.22
-31.46
-30.59
-30.92
-32.30
-33.93
-34.46
-32.37
-26.46
-16.33
-2.61
13.32
29.75
45.19
58.64
69.59
77.83
83.22
85.74
85.50
82.91
78.67
73.51
68.06
62.65
57.26
51.67
45.61
38.97
31.92
24.91
18.60
13.59
10.20
8.22
7.00
5.71
3.65
0.60
-3.08
-6.61
-9.00
-9.33
-6.95
-1.56
6.67
17.05
28.40
39.30
48.48
55.21
59.36
61.27
61.49
60.48
58.50
55.65
52.04
48.14
44.67
42.45
42.24
44.60
49.75
57.51
67.19
77.72
88.16
97.56
104.86
108.87
108.36
102.36
90.42
72.89
51.13
28.11
7.15
-9.21
-20.28
-27.33
-32.88
-39.84
-50.41
-65.14
-81.53
-95.59
-103.43
-102.88
-93.93
-78.40
-59.61
-41.63
-28.46
-21.67
-20.93
-24.36
-29.03
-31.17
-26.62
-12.32
12.73
38.30
54.08
54.46
41.53
20.65
-4.20
-30.95
-58.32
-84.69
-107.87
-124.57
-132.66
-132.28
-125.93
-117.57
-109.20
-101.58
-94.51
-87.57
-79.61
-69.93
-58.49
-46.02
-33.54
-21.85
-11.92
-5.87
-5.52
-11.09
-21.38
-33.90
-45.78
-54.63
-59.13
-60.23
-59.23
-57.38
-55.16
-52.46
-48.57
-42.65
-34.15
-22.90
-9.21
6.39
22.74
38.78
52.28
61.51
66.35
68.50
70.09
72.25
74.84
76.76
76.90
74.36
68.69
59.82
48.27
35.31
23.23
15.44
13.42
17.47
26.07
36.27
44.61
48.19
45.39
36.64
24.33
11.78
2.35
-1.99
-1.22
2.87
8.67
13.66
16.08
15.80
14.09
13.16
14.88
20.20
28.96
40.04
51.56
61.61
68.56
71.17
68.94
62.05
51.23
37.84
23.67
10.60
0.46
-5.56
-7.49
-6.70
-5.59
-6.71
-11.69
-20.74
-32.89
-46.44
-59.81
-71.96
-82.32
-90.50
-96.03
-98.53
-97.97
-94.96
-90.36
-84.81
-78.33
-70.47
-60.93
-50.11
-39.27
-30.08
-23.80
-20.70
-20.09
-20.92
-22.51
-24.98
-29.00
-35.30
-43.98
-54.34
-65.08
-74.78
-82.35
-87.19
-89.19
-88.58
-85.80
-81.39
-76.07
-70.60
-65.64
-61.61
-58.45
-55.77
-52.96
-49.51
-45.19
-39.99
-34.12
-27.79
-21.26
-14.85
-9.02
-4.32
-1.25
-0.17
-1.16
-4.02
-8.29
-13.32
-18.31
-22.44
-24.96
-25.37
-23.49
-19.49
-13.75
-6.75
1.06
9.27
17.37
24.83
31.06
35.61
38.32
39.39
39.32
38.66
37.80
36.90
35.91
34.72
33.28
31.68
30.04
28.41
26.75
24.94
22.87
20.48
17.83
15.01
12.10
9.19
6.24
3.22
0.02
-3.43
-7.02
-10.45
-13.12
-14.32
-13.42
-10.17
-4.80
2.07
9.62
17.08
23.90
29.79
34.55
38.08
40.26
41.12
40.82
39.72
38.29
36.92
35.83
34.99
34.16
33.04
31.39
29.12
26.32
23.18
19.91
16.64
13.42
10.27
7.18
4.21
1.36
-1.45
-4.45
-7.94
-12.15
-16.98
-21.96
-26.26
-28.95
-29.30
-27.06
-22.44
-16.10
-8.82
-1.33
5.86
12.42
18.16
22.93
26.60
29.07
30.35
30.62
30.18
29.38
28.48
27.62
26.80
25.90
24.85
23.60
22.19
20.65
19.01
17.21
15.16
12.79
10.07
7.04
3.83
0.60
-2.49
-5.37
-8.12
-10.96
-14.16
-17.92
-22.15
-26.41
-30.02
-32.18
-32.25
-29.95
-25.41
-19.12
-11.81
-4.18
3.17
9.84
15.58
20.23
23.69
25.90
26.94
27.01
26.46
25.68
24.99
24.52
24.21
23.87
23.28
22.32
20.99
19.41
17.69
15.90
14.02
12.00
9.82
7.51
5.20
2.98
0.86
-1.26
-3.56
-6.21
-9.31
-12.86
-16.79
-20.94
-25.02
-28.64
-31.24
-32.21
-31.06
-27.62
-22.09
-15.04
-7.21
0.65
7.96
14.31
19.48
23.36
25.95
27.38
27.85
27.64
26.98
26.03
24.86
23.51
22.04
20.57
19.17
17.82
16.41
14.78
12.81
10.50
7.99
5.45
3.03
0.76
-1.45
-3.70
-6.10
-8.75
-11.71
-15.05
-18.71
-22.49
-25.96
-28.49
-29.39
-28.12
-24.47
-18.67
-11.35
-3.33
4.54
11.62
17.54
22.15
25.49
27.62
28.63
28.63
27.77
26.27
24.39
22.42
20.60
19.03
17.70
16.51
15.29
13.86
12.14
10.11
7.85
5.47
3.07
0.69
-1.71
-4.21
-6.94
-10.02
-13.49
-17.38
-21.56
-25.73
-29.44
-32.05
-32.98
-31.78
-28.33
-22.87
-15.98
-8.37
-0.76
6.28
12.39
17.39
21.23
23.96
25.70
26.61
26.84
26.57
25.92
24.98
23.75
22.20
20.28
18.06
15.67
13.34
11.25
9.46
7.87
6.27
4.45
2.27
-0.24
-3.00
-5.85
-8.70
-11.55
-14.48
-17.65
-21.20
-25.19
-29.46
-33.58
-36.91
-38.78
-38.64
-36.29
-31.87
-25.83
-18.80
-11.46
-4.43
1.75
6.74
10.39
12.79
14.20
14.93
15.25
15.31
15.16
14.81
14.24
13.46
12.52
11.48
10.43
9.43
8.55
7.78
7.05
6.21
5.11
3.63
1.65
-0.78
-3.60
-6.62
-9.65
-12.52
-15.15
-17.56
-19.93
-22.53
-25.61
-29.29
-33.36
-37.30
-40.33
-41.64
-40.64
-37.16
-31.52
-24.41
-16.66
-8.98
-1.92
4.29
9.52
13.71
16.85
18.95
20.07
20.38
20.07
19.36
18.38
17.22
15.90
14.44
12.88
11.31
9.81
8.43
7.14
5.81
4.29
2.45
0.27
-2.15
-4.66
-7.11
-9.51
-12.00
-14.85
-18.31
-22.49
-27.17
-31.81
-35.62
-37.75
-37.52
-34.70
-29.55
-22.74
-15.15
-7.59
-0.65
5.38
10.41
14.45
17.48
19.51
20.55
20.68
20.08
18.98
17.63
16.24
14.91
13.72
12.64
11.60
10.48
9.15
7.51
5.49
3.11
0.45
-2.36
-5.20
-7.93
-10.54
-13.14
-15.96
-19.28
-23.25
-27.72
-32.17
-35.77
-37.61
-36.98
-33.62
-27.81
-20.27
-11.93
-3.68
3.84
10.27
15.53
19.66
22.78
25.03
26.51
27.27
27.39
26.92
25.94
24.61
23.07
21.50
19.98
18.47
16.89
15.08
12.93
10.43
7.61
4.56
1.33
-2.02
-5.45
-8.89
-12.28
-15.66
-19.23
-23.26
-27.95
-33.17
-38.38
-42.62
-44.84
-44.23
-40.55
-34.23
-26.20
-17.60
-9.36
-2.04
4.20
9.46
13.87
17.46
20.18
21.98
22.90
23.17
23.16
23.22
23.57
24.23
25.06
25.87
26.45
26.72
26.69
26.38
25.83
24.97
23.66
21.75
19.13
15.82
12.01
7.96
3.98
0.24
-3.20
-6.50
-9.91
-13.73
-18.22
-23.44
-29.23
-35.13
-40.45
-44.37
-46.20
-45.50
-42.27
-36.87
-29.92
-22.15
-14.23
-6.69
0.13
6.03
10.93
14.83
17.76
19.76
21.00
21.65
21.94
22.06
22.10
22.08
21.90
21.46
20.70
19.66
18.42
17.09
15.72
14.24
12.52
10.41
7.85
4.92
1.81
-1.23
-4.04
-6.64
-9.21
-12.03
-15.35
-19.27
-23.70
-28.33
-32.63
-35.94
-37.51
-36.75
-33.36
-27.54
-19.97
-11.63
-3.51
3.70
9.70
14.50
18.23
20.98
22.71
23.41
23.16
22.20
20.89
19.56
18.41
17.53
16.89
16.45
16.18
16.07
16.06
16.00
15.69
14.91
13.49
11.39
8.68
5.57
2.31
-0.85
-3.74
-6.36
-8.88
-11.58
-14.73
-18.38
-22.26
-25.80
-28.19
-28.68
-26.79
-22.49
-16.23
-8.79
-1.05
6.29
12.79
18.30
22.85
26.46
29.11
30.74
31.39
31.20
30.48
29.59
28.82
28.28
27.92
27.55
26.97
26.04
24.73
23.10
21.24
19.25
17.21
15.11
12.89
10.47
7.80
4.88
1.83
-1.22
-4.15
-6.92
-9.60
-12.34
-15.34
-18.78
-22.71
-26.98
-31.15
-34.58
-36.51
-36.31
-33.62
-28.53
-21.60
-13.65
-5.53
2.07
8.74
14.30
18.77
22.24
24.84
26.63
27.73
28.23
28.30
28.10
27.73
27.20
26.44
25.30
23.66
21.51
19.03
16.54
14.32
12.41
10.69
9.01
7.25
5.35
3.25
0.89
-1.75
-4.75
-8.16
-11.78
-15.00
-17.17
-18.07
-18.12
-18.12
-18.95
-21.23
-25.16
-30.23
-35.15
-38.48
-39.34
-37.66
-33.91
-28.70
-22.71
-16.54
-10.32
-3.44
5.00
15.53
27.93
41.42
54.73
66.02
72.89
69.69
53.05
25.39
-5.64
-32.05
-48.74
-53.88
-48.36
-37.04
-23.15
-9.60
0.91
6.22
5.26
-1.30
-11.28
-20.97
-26.74
-25.96
-18.03
-4.56
11.15
25.25
34.69
38.12
35.83
29.08
19.78
9.78
0.49
-7.41
-13.98
-19.63
-24.79
-29.63
-34.17
-38.07
-40.80
-41.86
-40.89
-37.88
-33.10
-27.07
-20.47
-14.06
-8.48
-4.14
-1.13
0.74
1.81
2.43
2.85
3.22
3.52
3.74
3.87
3.93
3.95
3.94
3.88
3.78
3.71
3.78
4.09
4.59
5.11
5.37
5.16
4.41
3.30
2.10
1.15
0.64
0.64
1.06
1.76
2.53
3.16
3.53
3.68
3.92
4.82
7.11
11.47
18.28
27.45
38.41
50.32
62.27
73.59
84.05
93.87
103.64
113.98
125.14
136.65
147.18
154.81
157.68
154.78
146.46
134.43
121.15
109.07
99.86
94.15
91.47
90.48
89.25
85.49
77.04
62.39
41.30
15.09
-13.53
-41.35
-65.61
-84.81
-98.90
-108.90
-116.20
-121.98
-126.88
-131.10
-134.49
-136.79
-137.57
-136.29
-132.28
-124.95
-114.02
-99.76
-83.04
-65.19
-47.68
-31.79
-18.38
-7.90
-0.41
4.13
5.88
5.12
2.38
-1.47
-5.27
-7.85
-8.36
-6.60
-3.01
1.44
5.64
8.70
10.11
9.75
7.77
4.45
0.15
-4.70
-9.57
-13.93
-17.34
-19.58
-20.67
-20.85
-20.38
-19.48
-18.29
-17.00
-15.96
-15.72
-16.92
-20.02
-24.98
-31.06
-36.92
-41.01
-42.14
-39.97
-35.16
-29.22
-23.89
-20.50
-19.50
-20.37
-22.05
-23.50
-24.18
-24.27
-24.55
-25.96
-29.32
-34.98
-42.64
-51.09
-58.18
-61.05
-56.88
-44.04
-23.09
2.83
28.66
49.04
60.02
60.35
51.50
36.77
19.75
3.22
-11.38
-23.67
-33.70
-41.50
-46.99
-50.11
-51.17
-50.89
-50.23
-50.05
-50.82
-52.45
-54.45
-56.24
-57.39
-57.82
-57.72
-57.29
-56.57
-55.33
-53.16
-49.70
-44.85
-38.81
-32.01
-24.96
-18.11
-11.82
-6.41
-2.18
0.68
2.14
2.42
1.97
1.28
0.76
0.60
0.83
1.41
2.33
3.65
5.42
7.60
9.94
12.05
13.46
13.79
12.84
10.69
7.65
4.12
0.53
-2.80
-5.70
-8.16
-10.29
-12.29
-14.40
-16.80
-19.53
-22.44
-25.15
-27.17
-27.94
-27.05
-24.33
-19.91
-14.20
-7.79
-1.26
4.88
10.29
14.81
18.33
20.84
22.34
22.95
22.94
22.73
22.82
23.53
24.97
26.88
28.74
30.00
30.33
29.69
28.33
26.64
24.93
23.26
21.48
19.39
16.85
13.90
10.80
7.86
5.35
3.31
1.62
0.03
-1.73
-3.87
-6.55
-9.79
-13.53
-17.47
-21.10
-23.71
-24.60
-23.27
-19.67
-14.23
-7.70
-0.87
5.65
11.56
16.78
21.31
25.09
28.01
29.94
30.91
31.07
30.70
30.06
29.30
28.41
27.29
25.88
24.17
22.34
20.60
19.16
18.12
17.41
16.80
15.96
14.59
12.51
9.75
6.50
3.11
-0.09
-2.87
-5.15
-7.04
-8.77
-10.61
-12.79
-15.40
-18.34
-21.32
-23.86
-25.43
-25.52
-23.84
-20.37
-15.47
-9.71
-3.80
1.69
6.36
10.13
13.13
15.59
17.72
19.62
21.30
22.70
23.80
24.59
25.11
25.36
25.28
24.81
23.93
22.72
21.38
20.13
19.14
18.41
17.82
17.18
16.29
15.01
13.29
11.12
8.60
5.87
3.12
0.53
-1.81
-3.96
-6.11
-8.50
-11.33
-14.58
-17.99
-21.05
-23.16
-23.79
-22.66
-19.87
-15.77
-10.91
-5.83
-0.90
3.62
7.60
10.95
13.59
15.49
16.65
17.22
17.38
17.34
17.20
16.96
16.59
16.07
15.47
14.92
14.54
14.36
14.32
14.27
14.06
13.56
12.72
11.53
10.04
8.33
6.53
4.77
3.13
1.59
0.01
-1.81
-4.04
-6.74
-9.74
-12.68
-15.12
-16.62
-16.84
-15.68
-13.20
-9.68
-5.53
-1.19
2.92
6.51
9.39
11.48
12.69
12.96
12.20
10.46
7.94
4.99
2.06
-0.46
-2.36
-3.66
-4.52
-5.11
-5.49
-5.60
-5.32
-4.57
-3.46
-2.18
-1.08
-0.45
-0.51
-1.30
-2.71
-4.55
-6.61
-8.79
-11.09
-13.54
-16.14
-18.74
-21.08
-22.84
-23.72
-23.54
-22.22
-19.80
-16.38
-12.14
-7.37
-2.36
2.52
6.94
10.71
13.76
16.14
17.96
19.35
20.40
21.15
21.64
21.89
21.90
21.67
21.19
20.44
19.42
18.15
16.75
15.32
13.93
12.53
10.97
9.07
6.73
4.02
1.15
-1.59
-3.98
-6.01
-7.81
-9.58
-11.44
-13.43
-15.52
-17.71
-20.01
-22.45
-24.91
-27.09
-28.51
-28.72
-27.41
-24.59
-20.55
-15.78
-10.82
-6.06
-1.66
2.39
6.19
9.77
13.04
15.75
17.68
18.71
18.92
18.59
18.04
17.51
17.13
16.86
16.65
16.50
16.46
16.61
16.94
17.37
17.70
17.74
17.34
16.44
15.06
13.26
11.11
8.69
6.02
3.20
0.31
-2.50
-5.12
-7.51
-9.72
-11.87
-14.11
-16.50
-18.98
-21.33
-23.18
-24.12
-23.81
-22.08
-18.98
-14.77
-9.86
-4.73
0.15
4.43
7.86
10.34
11.85
12.51
12.46
11.95
11.21
10.48
9.91
9.59
9.54
9.67
9.86
9.95
9.81
9.40
8.75
7.90
6.95
5.96
4.98
4.08
3.26
2.50
1.75
0.91
-0.15
-1.49
-3.17
-5.21
-7.60
-10.30
-13.19
-16.08
-18.64
-20.53
-21.46
-21.28
-20.07
-18.04
-15.50
-12.73
-9.94
-7.28
-4.86
-2.72
-0.89
0.64
1.90
2.96
3.87
4.70
5.41
5.99
6.47
6.90
7.29
7.65
7.93
8.15
8.42
8.92
9.79
11.16
12.93
14.72
16.07
16.62
16.32
15.34
13.96
12.38
10.90
9.61
8.36
6.80
4.64
1.77
-1.66
-5.31
-8.75
-10.97
-11.17
-9.20
-5.57
-1.15
3.35
7.51
11.22
14.51
18.32
23.29
29.26
35.27
40.18
43.27
44.42
43.97
42.63
42.45
45.36
52.29
62.71
75.00
87.05
96.75
102.44
96.79
76.59
44.95
10.25
-19.29
-39.55
-50.22
-52.90
-49.88
-43.70
-35.88
-27.92
-21.51
-18.19
-18.87
-23.52
-31.46
-41.73
-53.04
-63.00
-69.36
-71.26
-68.99
-63.73
-56.82
-49.28
-41.73
-34.53
-27.53
-20.82
-14.97
-10.80
-8.85
-9.04
-10.75
-13.16
-15.59
-17.31
-17.89
-17.31
-15.85
-13.97
-12.09
-10.54
-9.48
-8.94
-8.71
-8.52
-8.11
-7.34
-6.22
-4.86
-3.47
-2.25
-1.40
-1.02
-1.12
-1.60
-2.33
-3.24
-4.29
-5.52
-6.94
-8.56
-10.35
-12.20
-14.02
-15.68
-17.18
-18.57
-20.08
-21.95
-24.37
-27.31
-30.42
-33.05
-34.42
-33.90
-31.25
-26.68
-20.77
-14.27
-7.83
-1.87
3.42
8.05
12.02
15.29
17.78
19.41
20.23
20.38
20.08
19.60
19.11
18.69
18.34
18.01
17.66
17.29
16.89
16.46
15.96
15.29
14.42
13.26
11.79
10.01
7.96
5.71
3.37
1.03
-1.25
-3.44
-5.58
-7.77
-10.12
-12.76
-15.80
-19.22
-22.83
-26.22
-28.82
-30.00
-29.31
-26.64
-22.29
-16.82
-10.95
-5.27
-0.16
4.26
8.01
11.14
13.66
15.55
16.82
17.57
17.96
18.22
18.57
19.17
20.10
21.33
22.71
24.06
25.18
25.93
26.32
26.43
26.38
26.23
25.96
25.44
24.56
23.23
21.47
19.36
16.99
14.45
11.76
8.96
6.01
2.87
-0.53
-4.30
-8.48
-13.03
-17.78
-22.37
-26.28
-28.89
-29.66
-28.26
-24.77
-19.71
-13.82
-7.92
-2.55
2.03
5.90
9.27
12.30
15.06
17.47
19.45
20.94
21.96
22.58
22.92
23.07
23.12
23.09
22.96
22.69
22.23
21.61
20.82
19.93
18.96
17.95
16.93
15.93
14.97
13.99
12.90
11.54
9.77
7.56
4.99
2.27
-0.43
-3.02
-5.52
-8.01
-10.60
-13.35
-16.30
-19.42
-22.57
-25.47
-27.72
-28.84
-28.43
-26.36
-22.75
-18.05
-12.82
-7.59
-2.71
1.66
5.49
8.83
11.66
13.93
15.60
16.65
17.11
17.07
16.65
16.01
15.33
14.80
14.56
14.66
15.06
15.61
16.11
16.38
16.33
15.92
15.16
14.09
12.77
11.24
9.53
7.65
5.62
3.40
1.00
-1.51
-3.99
-6.29
-8.32
-10.10
-11.76
-13.49
-15.46
-17.72
-20.16
-22.53
-24.44
-25.45
-25.16
-23.35
-20.03
-15.47
-10.18
-4.73
0.40
4.85
8.44
11.16
13.05
14.19
14.73
14.84
14.73
14.57
14.49
14.52
14.61
14.71
14.77
14.73
14.58
14.28
13.85
13.30
12.67
11.95
11.11
10.10
8.88
7.49
5.99
4.43
2.79
1.02
-0.91
-2.96
-4.99
-6.85
-8.47
-9.95
-11.53
-13.43
-15.72
-18.22
-20.58
-22.34
-23.14
-22.78
-21.26
-18.69
-15.31
-11.38
-7.21
-3.08
0.76
4.18
7.07
9.41
11.17
