1513828830.00
64.000000
-0.00
-0.00
-0.00
-0.00
-0.00
-0.00
-0.00
-0.00
-0.00
-0.00
0.00
0.01
0.01
-0.00
-0.03
-0.05
-0.05
0.00
0.13
0.36
0.66
1.01
1.37
1.72
2.06
2.40
2.79
3.24
3.80
4.42
5.06
5.66
6.20
6.68
7.15
7.68
8.31
9.14
10.09
11.04
11.89
12.57
13.13
13.75
14.65
15.97
17.94
20.37
22.96
25.40
27.50
29.35
31.28
33.75
37.10
41.74
47.29
53.22
58.92
63.98
68.47
72.89
77.95
84.23
92.25
101.50
111.12
120.16
128.00
134.67
140.84
147.93
154.73
163.54
174.88
188.72
203.68
216.73
223.52
219.55
201.70
169.29
124.84
72.07
15.02
-43.42
-101.99
-160.45
-218.65
-275.86
-330.79
-381.74
-427.94
-469.14
-505.36
-536.15
-560.20
-575.35
-579.23
-570.12
-547.45
-512.48
-467.74
-416.46
-361.92
-307.03
-253.99
-204.00
-156.97
-111.46
-65.40
-16.89
34.66
87.89
139.80
186.74
225.59
254.68
273.85
283.98
286.33
282.24
273.01
260.14
245.33
230.28
216.34
204.15
193.55
183.76
173.63
162.10
148.66
133.60
117.96
103.13
90.32
80.02
71.93
65.18
58.74
51.85
44.19
35.92
27.54
19.76
13.14
8.04
4.57
2.48
1.25
0.19
-1.26
-3.28
-5.66
-7.91
-9.54
-10.39
-10.70
-11.02
-11.77
-13.09
-14.63
-15.83
-16.20
-15.52
-13.96
-12.02
-10.36
-9.56
-9.98
-11.38
-12.87
-12.96
-10.11
-3.48
6.45
17.75
27.73
33.95
35.33
32.56
27.92
24.21
23.75
27.54
34.96
43.95
51.31
53.31
46.71
29.99
4.53
-25.06
-52.00
-69.79
-74.72
-67.65
-53.36
-38.36
-27.89
-23.88
-24.95
-27.85
-29.79
-29.52
-27.73
-26.32
-26.99
-30.30
-35.32
-40.15
-42.88
-42.50
-38.98
-32.90
-24.66
-13.94
0.15
18.13
39.24
61.27
81.13
96.02
104.18
104.82
97.79
83.11
61.80
36.93
14.10
-0.03
-0.80
11.54
31.07
48.31
54.09
43.93
19.54
-12.60
-44.83
-71.40
-89.72
-99.21
-99.62
-90.13
-70.17
-41.03
-7.08
24.86
47.91
57.63
53.67
39.60
21.00
3.30
-9.91
-17.35
-19.57
-18.10
-14.69
-10.84
-7.59
-5.45
-4.52
-4.60
-5.34
-6.36
-7.27
-7.78
-7.66
-6.81
-5.30
-3.39
-1.46
0.05
0.84
0.81
0.12
-0.90
-1.87
-2.54
-2.81
-2.74
-2.45
-1.98
-1.37
-0.60
0.26
1.09
1.70
1.98
1.90
1.58
1.26
1.16
1.40
1.95
2.66
3.32
3.78
3.96
3.93
3.78
3.62
3.47
3.29
3.02
2.63
2.18
1.75
1.38
1.06
0.77
0.46
0.14
-0.14
-0.34
-0.48
-0.68
-1.17
-2.13
-3.66
-5.65
-7.81
-9.75
-11.11
-11.65
-11.33
-10.27
-8.65
-6.66
-4.43
-2.00
0.57
3.22
5.82
8.27
10.57
12.88
15.35
17.94
20.24
21.57
21.30
19.19
15.60
11.34
7.32
4.15
1.92
0.34
-0.98
-2.25
-3.48
-4.59
-5.61
-6.70
-8.04
-9.64
-11.33
-12.78
-13.78
-14.32
-14.63
-14.98
-15.55
-16.29
-16.89
-16.95
-16.18
-14.54
-12.33
-10.09
-8.40
-7.60
-7.66
-8.13
-8.36
-7.79
-6.21
-3.82
-1.13
1.31
3.11
4.27
5.18
6.52
9.10
13.60
20.41
29.32
39.51
49.71
58.60
65.34
69.84
72.78
75.19
77.89
81.10
84.44
87.56
90.74
95.40
103.72
117.64
137.46
160.82
182.60
195.87
193.99
172.48
130.22
69.94
-2.09
-76.77
-143.55
-192.79
-218.94
-222.52
-210.03
-191.47
-176.52
-171.12
-176.02
-187.87
-201.78
-213.93
-221.80
-223.56
-217.41
-201.91
-177.12
-145.29
-110.47
-77.11
-49.07
-28.28
-14.84
-7.62
-4.83
-4.30
-3.39
0.52
12.38
32.99
58.27
80.06
90.68
87.17
71.95
50.63
29.30
12.53
1.80
-2.98
-2.90
0.53
5.24
8.89
10.11
9.83
11.68
19.85
37.28
62.78
90.51
112.10
120.72
114.64
98.14
79.80
65.39
57.62
55.28
54.93
53.38
49.58
44.90
41.51
40.70
41.91
43.85
45.19
45.60
45.77
46.75
49.16
52.26
53.98
51.69
44.34
33.29
22.14
15.51
16.92
27.23
43.90
62.69
77.23
82.69
78.05
66.55
53.99
45.62
43.81
46.49
48.07
42.64
26.76
-0.01
-35.96
-79.04
-128.37
-183.83
-245.63
-312.89
-380.49
-439.30
-479.29
-492.99
-478.26
-439.02
-382.32
-316.71
-250.19
-185.88
-122.92
-59.65
4.14
66.14
122.17
169.25
205.15
227.62
237.62
237.91
230.69
216.84
196.01
159.29
105.28
47.69
-9.08
-64.11
-112.55
-148.34
-166.25
-163.71
-141.92
-104.40
-57.62
-10.23
32.55
69.61
102.55
133.74
164.66
194.89
223.35
247.55
263.53
269.71
267.06
258.58
247.61
236.57
226.04
215.43
202.82
185.34
161.96
133.87
104.35
76.79
53.28
34.17
18.83
6.33
-4.11
-12.22
-22.58
-37.62
-57.51
-80.27
-103.50
-125.06
-142.72
-154.03
-156.80
-150.00
-133.55
-109.23
-80.48
-51.47
-26.42
-8.74
-0.59
-2.53
-13.10
-28.39
-43.52
-53.80
-55.62
-47.78
-32.06
-13.45
1.03
4.81
-4.42
-22.67
-42.18
-53.82
-51.93
-37.12
-16.26
1.19
8.63
6.11
-0.59
-4.68
-2.10
4.20
7.42
1.64
-13.97
-34.10
-50.17
-55.35
-48.45
-33.10
-16.74
-4.93
1.71
7.10
16.52
32.93
55.03
77.91
95.87
105.32
106.10
100.55
91.66
81.68
71.58
61.44
51.09
38.65
22.69
2.82
-20.00
-43.37
-63.87
-78.11
-84.33
-82.26
-75.70
-69.91
-69.31
-75.25
-85.07
-92.67
-92.24
-78.11
-49.53
-11.17
28.50
59.68
74.75
70.48
48.88
16.19
-19.33
-50.06
-70.15
-75.68
-65.56
-41.88
-9.72
24.07
53.26
73.79
84.63
86.59
80.94
67.77
46.00
14.71
-25.74
-72.26
-119.81
-162.69
-196.07
-216.57
-222.78
-213.79
-188.75
-146.88
-88.94
-18.51
58.01
131.70
191.71
226.62
227.64
192.76
128.81
50.51
-23.70
-77.18
-100.08
-89.48
-51.63
-2.00
42.59
72.74
88.82
96.24
99.96
101.94
101.72
98.22
91.87
85.44
82.04
82.72
85.07
84.72
77.78
63.21
43.19
21.47
2.50
-12.74
-25.85
-40.28
-59.22
-83.38
-110.38
-134.34
-148.80
-148.00
-128.91
-92.79
-45.94
1.64
39.32
59.81
61.58
49.01
30.01
12.09
-0.52
-7.76
-11.92
-15.00
-17.25
-17.60
-15.34
-11.03
-6.40
-3.11
-1.33
0.05
2.58
6.84
12.02
16.10
17.18
14.67
9.50
3.65
-0.85
-2.40
0.08
6.99
17.93
31.21
43.86
52.64
55.40
52.21
45.52
38.15
32.34
28.46
25.10
20.05
11.79
0.04
-14.33
-29.80
-44.98
-58.49
-69.27
-76.65
-80.70
-82.30
-83.44
-86.72
-93.89
-104.35
-114.41
-118.24
-109.19
-85.34
-49.19
-7.73
30.28
57.90
72.57
76.63
75.12
72.98
72.61
74.03
75.88
76.95
76.87
75.65
72.88
67.25
57.36
42.81
25.08
7.48
-6.29
-14.01
-15.96
-14.76
-14.35
-17.57
-24.76
-33.35
-39.23
-39.22
-32.81
-22.31
-11.39
-2.90
2.50
5.94
8.84
11.48
12.60
10.72
5.83
-0.17
-4.14
-3.80
0.74
7.04
12.10
13.85
12.28
9.11
6.37
5.23
5.72
7.12
8.53
9.54
9.91
9.99
10.50
12.37
16.21
21.59
26.49
27.79
22.94
11.76
-2.44
-13.91
-17.11
-10.22
3.70
17.54
23.81
17.80
-0.82
-28.71
-60.52
-89.85
-111.47
-122.64
-123.54
-116.45
-105.07
-93.87
-86.68
-84.75
-85.40
-84.89
-77.53
-59.74
-31.43
4.12
41.83
77.14
105.34
124.43
135.53
140.71
140.78
135.06
122.96
105.41
85.85
68.67
57.12
52.03
49.25
43.99
33.36
18.11
2.14
-9.65
-13.99
-10.78
-3.22
3.74
5.95
1.51
-9.13
-24.24
-41.97
-60.13
-76.26
-87.81
-92.86
-90.52
-81.41
-67.61
-52.26
-38.41
-28.01
-21.39
-17.72
-15.80
-14.45
-12.50
-8.78
-2.58
6.11
16.48
26.86
34.77
36.97
29.36
10.14
-17.37
-44.66
-62.25
-64.62
-52.64
-32.51
-12.42
1.68
8.77
12.24
15.73
19.58
20.90
16.14
4.66
-9.68
-20.32
-21.59
-12.42
3.33
17.93
24.08
19.20
7.05
-4.62
-8.69
-2.05
13.65
34.69
57.02
77.98
96.42
111.50
121.50
123.81
116.42
95.04
62.45
27.41
-0.46
-16.43
-22.00
-22.01
-21.02
-21.27
-22.69
-23.34
-21.97
-18.92
-15.51
-13.02
-12.08
-12.89
-15.49
-19.76
-24.77
-29.46
-33.21
-35.58
-36.19
-34.61
-30.18
-22.12
-9.81
6.75
25.18
41.53
51.70
53.34
46.68
34.17
18.83
2.72
-13.65
-30.82
-48.97
-66.60
-80.50
-86.95
-83.50
-70.40
-50.59
-28.69
-9.20
4.99
13.48
18.03
21.33
25.47
30.72
35.50
37.44
35.14
29.25
22.29
17.30
15.72
16.54
16.84
13.97
7.36
-0.62
-6.18
-6.84
-3.35
0.48
0.18
-6.46
-17.71
-29.00
-35.55
-35.12
-28.84
-19.93
-11.53
-5.06
-0.10
4.33
8.49
11.60
12.68
11.58
9.49
8.22
9.06
12.02
15.85
18.74
19.10
16.40
11.20
4.72
-1.45
-6.22
-9.09
-10.10
-9.63
-8.17
-6.14
-3.82
-1.34
1.27
3.90
6.36
8.25
9.19
8.97
7.74
5.96
4.16
2.72
1.67
0.77
-0.37
-2.00
-4.08
-6.30
-8.12
-9.09
-9.02
-8.09
-6.78
-5.66
-5.06
-4.95
-4.98
-4.62
-3.52
-1.66
0.57
2.57
3.79
3.98
3.24
1.92
0.42
-0.93
-1.98
-2.62
-2.76
-2.36
-1.49
-0.43
0.36
0.38
-0.60
-2.37
-4.28
-5.61
-5.80
-4.72
-2.68
-0.25
1.95
3.55
4.38
4.50
4.11
3.50
2.91
2.43
2.03
1.60
1.05
0.39
-0.24
-0.67
-0.73
-0.41
0.18
0.87
1.49
1.94
2.18
2.18
1.92
1.47
0.91
0.28
-0.34
-0.90
-1.35
-1.71
-2.07
-2.47
-2.86
-3.16
-3.40
-3.68
-4.06
-4.52
-4.99
-5.42
-5.80
-5.96
-5.98
-6.18
-6.88
-8.09
-9.43
-10.32
-10.25
-8.84
-5.82
-1.25
4.39
10.44
16.33
21.62
26.09
29.60
30.68
28.78
24.80
20.39
16.47
13.00
9.53
6.14
2.75
-0.26
-2.11
-2.32
-1.06
0.91
2.80
3.80
3.43
1.62
-1.13
-3.83
-5.59
-5.96
-5.09
-3.42
-1.49
0.28
1.59
2.28
2.38
1.90
0.80
-0.92
-3.15
-5.61
-7.97
-9.94
-11.39
-12.28
-12.65
-12.62
-12.33
-11.85
-11.23
-10.42
-9.33
-8.02
-6.53
-4.87
-3.08
-1.23
0.50
2.05
3.46
4.90
6.24
7.36
8.31
9.25
10.28
11.43
12.66
13.88
14.98
15.33
14.46
12.53
10.21
8.26
7.03
6.39
5.83
4.70
1.86
-3.38
-10.70
-19.15
-27.81
-36.15
-44.11
-51.83
-55.44
-52.54
-43.99
-33.04
-22.40
-13.06
-4.84
2.77
10.24
17.75
24.48
29.28
31.79
32.05
30.44
27.64
24.55
22.08
20.78
20.20
19.55
18.22
16.33
14.11
11.80
9.55
7.48
5.66
3.91
2.12
0.38
-1.19
-2.59
-3.91
-5.29
-6.87
-8.68
-10.78
-13.25
-16.07
-19.26
-22.59
-25.42
-27.03
-27.07
-25.79
-24.06
-22.93
-23.23
-25.26
-28.33
-30.91
-31.31
-28.57
-22.73
-14.64
-5.75
2.31
7.96
10.52
10.83
10.89
13.02
19.14
30.09
45.30
62.54
76.51
79.90
68.14
43.34
12.82
-15.08
-34.35
-42.56
-41.08
-34.05
-25.79
-18.90
-13.93
-10.80
-8.48
-6.98
-6.75
-8.17
-11.23
-15.14
-18.53
-20.32
-20.07
-17.67
-13.05
-6.00
4.18
16.71
29.61
40.14
45.70
44.83
37.87
26.71
14.16
2.77
-5.98
-11.60
-14.25
-14.39
-12.61
-9.52
-5.82
-2.16
0.88
2.78
3.45
3.23
2.75
2.70
3.50
5.10
7.00
8.41
8.41
6.31
1.91
-4.46
-11.98
-19.66
-26.57
-32.08
-35.79
-37.46
-36.95
-34.27
-29.81
-24.38
-19.00
-14.41
-10.73
-7.42
-3.68
0.88
5.94
10.56
13.77
15.23
15.41
15.30
15.70
16.82
18.16
18.99
18.83
17.75
16.29
15.10
14.55
14.58
14.82
14.81
14.26
13.12
11.56
9.81
8.04
6.32
4.66
3.02
1.44
0.02
-1.12
-1.85
-2.06
-1.70
-0.79
0.54
2.01
3.31
4.16
4.42
4.12
3.47
2.74
2.14
1.78
1.62
1.56
1.51
1.42
1.32
1.25
1.22
1.25
1.26
1.17
0.90
0.43
-0.18
-0.82
-1.33
-1.64
-1.72
-1.61
-1.38
-1.10
-0.82
-0.57
-0.35
-0.15
0.04
0.26
0.53
0.83
1.18
1.53
1.85
2.10
2.20
2.08
1.70
1.09
0.38
-0.26
-0.67
-0.80
-0.71
-0.55
-0.46
-0.52
-0.69
-0.89
-1.03
-1.12
-1.17
-1.29
-1.51
-1.82
-2.16
-2.42
-2.55
-2.51
-2.33
-2.09
-1.86
-1.69
-1.63
-1.70
-1.94
-2.37
-2.97
-3.67
-4.36
-4.93
-5.29
-5.42
-5.37
-5.19
-4.88
-4.38
-3.62
-2.56
-1.32
-0.08
0.96
1.69
2.18
2.55
2.98
3.54
4.16
4.69
5.02
5.08
4.91
4.63
4.31
4.04
3.81
3.63
3.49
3.38
3.28
3.16
3.02
2.85
2.65
2.40
2.10
1.73
1.28
0.75
0.18
-0.40
-0.96
-1.49
-1.98
-2.44
-2.86
-3.27
-3.69
-4.16
-4.70
-5.33
-5.97
-6.53
-6.93
-7.09
-6.97
-6.60
-6.02
-5.28
-4.45
-3.56
-2.67
-1.81
-1.01
-0.29
0.36
0.90
1.34
1.68
1.97
2.27
2.64
3.08
3.51
3.80
3.83
3.55
3.02
2.41
1.92
1.71
1.78
2.03
2.28
2.37
2.23
1.90
1.49
1.07
0.69
0.33
-0.07
-0.51
-0.97
-1.40
-1.72
-1.92
-2.07
-2.24
-2.51
-2.89
-3.31
-3.66
-3.84
-3.75
-3.39
-2.80
-2.06
-1.20
-0.27
0.74
1.78
2.79
3.69
4.39
4.90
5.25
5.55
5.84
6.15
6.41
6.53
6.48
6.29
6.09
6.04
6.25
6.74
7.42
8.13
8.67
8.92
8.83
8.46
7.99
7.64
7.56
7.80
8.19
8.47
8.36
7.71
6.61
5.33
4.23
3.54
3.31
3.35
3.33
2.89
1.69
-0.56
-4.03
-8.58
-13.60
-17.96
-20.31
-19.62
-15.66
-9.31
-2.17
4.05
8.20
10.09
10.27
9.59
8.63
7.53
6.11
4.24
2.06
0.00
-1.48
-2.16
-2.20
-2.06
-2.24
-3.13
-4.77
-6.87
-9.00
-10.74
-11.90
-12.54
-12.91
-13.31
-13.89
-14.66
-15.44
-16.00
-16.20
-16.02
-15.59
-15.14
-14.84
-14.80
-14.97
-15.18
-15.25
-15.01
-14.34
-13.20
-11.62
-9.72
-7.68
-5.72
-4.00
-2.62
-1.50
-0.49
0.54
1.66
2.81
3.85
4.68
5.26
5.62
5.86
6.01
6.09
6.08
5.97
5.79
5.59
5.39
5.19
4.98
4.77
4.58
4.49
4.56
4.78
5.09
5.38
5.56
5.59
5.51
5.37
5.26
5.25
5.37
5.60
5.83
5.80
5.02
2.96
-0.80
-6.28
-12.99
-20.04
-26.44
-31.33
-34.29
-35.21
-34.21
-31.50
-27.28
-21.82
-15.56
-9.07
-2.99
2.23
6.41
9.66
12.28
14.57
16.69
18.64
20.28
21.43
21.96
21.89
21.35
20.55
19.70
18.94
18.25
17.54
16.67
15.60
14.37
13.11
11.91
10.82
9.78
8.70
7.55
6.40
5.37
4.60
4.11
3.75
3.25
2.36
0.92
-1.00
-3.19
-5.37
-7.28
-8.73
-9.62
-9.92
-9.64
-8.82
-7.57
-6.08
-4.54
-3.15
-2.05
-1.31
-0.91
-0.79
-0.84
-0.95
-1.04
-1.03
-0.89
-0.62
-0.25
0.17
0.59
0.93
1.11
1.08
0.86
0.52
0.16
-0.14
-0.36
-0.55
-0.75
-0.99
-1.21
-1.33
-1.31
-1.23
-1.21
-1.41
-1.90
-2.61
-3.43
-4.21
-4.87
-5.40
-5.83
-6.13
-6.25
-6.07
-5.53
-4.64
-3.49
-2.25
-1.07
-0.04
0.82
1.50
2.04
2.47
2.79
3.04
3.23
3.37
3.46
3.51
3.51
3.47
3.38
3.22
3.01
2.77
2.55
2.43
2.41
2.44
2.44
2.30
1.98
1.51
0.97
0.47
0.02
-0.40
-0.84
-1.30
-1.74
-2.06
-2.21
-2.22
-2.21
-2.33
-2.65
-3.13
-3.62
-3.96
-4.08
-4.00
-3.86
-3.75
-3.67
-3.52
-3.12
-2.33
-1.17
0.26
1.74
3.06
4.05
4.61
4.69
4.30
3.51
2.44
1.23
0.05
-0.98
-1.84
-2.55
-3.18
-3.75
-4.21
-4.47
-4.47
-4.26
-3.99
-3.88
-4.15
-4.88
-6.04
-7.43
-8.77
-9.79
-10.25
-10.03
-9.19
-7.96
-6.72
-5.94
-6.00
-7.10
-9.13
-11.74
-14.45
-16.80
-18.53
-19.53
-19.86
-19.55
-18.58
-16.87
-14.31
-10.97
-7.04
-2.88
1.15
4.77
7.88
10.47
12.59
14.26
15.43
16.01
15.98
15.43
14.53
13.54
12.72
12.29
12.36
12.96
14.02
15.41
16.92
18.31
19.33
19.79
19.60
18.75
17.36
15.58
13.57
11.48
9.44
7.53
5.84
4.43
3.31
2.43
1.67
0.91
0.05
-0.90
-1.85
-2.65
-3.16
-3.33
-3.21
-2.93
-2.61
-2.30
-1.98
-1.57
-1.04
-0.44
0.09
0.47
0.67
0.79
1.01
1.42
2.00
2.56
2.88
2.82
2.37
1.71
1.10
0.76
0.83
1.21
1.74
2.16
2.27
2.03
1.48
0.82
0.35
0.42
1.37
3.47
6.78
11.05
15.76
20.16
23.51
25.32
25.62
24.97
24.33
24.73
26.83
30.70
35.77
41.05
45.58
48.70
50.38
51.05
51.40
52.02
53.28
55.07
56.94
58.17
58.05
56.08
52.05
45.95
37.94
28.37
17.64
6.19
-5.70
-17.91
-30.43
-43.32
-56.58
-69.83
-82.16
-92.49
-100.04
-104.83
-107.46
-108.61
-108.49
-106.56
-101.63
-92.28
-77.71
-58.30
-35.99
-13.86
4.58
15.90
17.30
7.21
-12.63
-37.59
-60.82
-77.04
-84.95
-86.25
-83.32
-78.14
-72.21
-67.06
-64.29
-64.55
-66.46
-65.93
-57.21
-35.79
-1.30
41.78
85.80
122.82
147.47
157.43
152.78
134.80
105.35
67.29
25.60
-12.43
-40.30
-52.99
-49.96
-35.51
-16.87
-1.05
7.60
8.75
5.09
0.35
-2.65
-3.20
-2.13
-0.44
1.65
4.83
9.88
16.56
23.41
28.17
28.89
25.14
18.43
11.54
7.32
7.70
11.71
17.98
24.62
29.89
32.86
33.46
32.19
29.69
26.44
22.65
18.54
14.34
10.36
6.94
4.29
2.45
1.25
0.33
-0.70
-1.98
-3.41
-4.72
-5.64
-6.05
-5.97
-5.47
-4.59
-3.36
-1.73
0.38
2.88
5.42
7.36
8.17
7.73
6.30
4.41
2.44
0.63
-1.04
-2.62
-3.96
-4.43
-3.18
0.21
5.27
9.46
10.26
7.08
1.83
-2.93
-5.84
-7.25
-8.44
-10.52
-13.61
-16.68
-18.40
-18.19
-16.72
-15.33
-15.15
-16.50
-18.84
-21.15
-22.36
-21.84
-19.65
-16.55
-13.22
-10.24
-7.92
-6.33
-5.32
-4.59
-3.84
-2.98
-2.13
-1.48
-1.17
-1.13
-1.16
-1.06
-0.72
-0.26
0.15
0.40
0.68
1.40
3.16
6.01
9.79
13.99
17.86
20.72
22.26
22.62
22.26
21.79
21.59
21.74
21.90
21.55
20.37
18.38
16.02
13.91
12.80
13.25
15.55
19.52
24.66
30.33
35.90
40.78
44.24
45.82
45.33
42.78
38.19
31.53
22.81
12.11
-0.19
-13.58
-26.78
-38.16
-46.50
-51.66
-54.63
-56.94
-59.86
-63.67
-67.92
-71.00
-71.09
-67.30
-60.07
-50.82
-41.21
-32.95
-25.37
-20.38
-20.49
-25.82
-32.81
-36.31
-32.49
-20.90
-4.60
11.60
23.25
28.97
30.55
31.04
32.47
34.81
36.49
35.80
32.46
27.07
21.37
17.11
15.04
14.67
14.83
14.52
13.38
11.72
9.98
8.79
8.56
9.22
10.18
10.64
10.07
8.32
5.81
3.12
0.89
-0.61
-1.74
-3.48
-7.00
-13.09
-21.72
-31.98
-42.46
-51.78
-59.02
-63.97
-66.89
-68.12
-67.75
-65.49
-60.88
-53.63
-43.80
-31.98
-19.16
-6.44
5.23
15.36
23.93
31.25
37.55
42.74
46.43
48.15
47.78
45.88
43.57
42.13
42.49
44.87
48.81
53.49
57.99
61.37
62.67
60.93
55.44
46.17
34.10
21.12
9.44
0.85
-3.97
-5.61
-5.47
-5.18
-5.93
-8.28
-12.26
-17.60
-23.95
-30.86
-37.70
-43.63
-47.77
-49.45
-48.51
-45.40
-41.06
-36.54
-32.67
-29.75
-27.55
-25.48
-22.84
-19.10
-14.01
-7.64
-0.36
7.22
14.35
20.36
24.78
27.55
28.94
29.51
29.84
30.40
31.44
32.97
34.88
36.99
39.06
40.85
42.08
42.51
41.91
40.10
36.93
32.27
26.07
18.41
9.58
-0.01
-9.81
-19.28
-27.89
-35.15
-40.54
-43.56
-43.76
-40.90
-35.09
-26.82
-16.88
-6.14
4.58
14.71
23.89
31.87
38.45
43.37
46.34
47.12
45.62
42.09
37.05
31.29
25.63
20.73
16.98
14.48
13.11
12.65
12.75
12.97
12.72
11.38
8.42
3.66
-2.64
-9.83
-17.11
-23.82
-29.72
-34.94
-39.87
-44.76
-49.55
-53.80
-56.86
-58.20
-57.68
-55.60
-52.60
-49.38
-46.45
-44.05
-42.27
-41.11
-40.64
-40.83
-41.41
-41.86
-41.47
-39.65
-36.12
-31.00
-24.70
-17.74
-10.59
-3.64
2.78
8.36
12.91
16.37
18.90
20.82
22.42
23.89
25.28
26.57
27.82
29.18
30.87
33.01
35.50
38.03
40.08
41.16
40.94
39.52
37.50
35.83
35.46
36.86
39.70
42.86
44.94
44.88
42.52
38.63
34.51
31.34
29.66
29.25
29.36
29.00
27.07
22.33
13.42
-0.76
-20.33
-43.76
-67.70
-87.88
-100.59
-104.13
-99.37
-89.24
-77.30
-66.23
-57.11
-49.58
-42.77
-36.08
-29.53
-23.41
-17.95
-13.21
-9.13
-5.78
-3.44
-2.42
-2.57
-3.08
-2.55
0.39
6.12
14.01
22.53
30.02
35.26
38.01
38.89
39.05
39.66
40.88
42.31
43.22
43.04
41.28
37.52
31.09
21.51
8.93
-5.96
-21.46
-35.24
-45.33
-51.04
-53.05
-53.18
-53.12
-50.87
-45.10
-36.12
-25.91
-16.48
-9.52
-4.02
0.67
4.38
6.33
5.20
0.39
-7.11
-14.94
-20.31
-21.08
-16.68
-7.82
4.03
16.54
27.43
34.80
37.50
35.31
29.27
21.37
14.19
9.85
8.85
10.13
11.92
12.75
12.31
11.36
11.07
12.26
14.87
17.90
20.27
21.67
22.72
24.49
27.33
30.61
33.01
33.13
30.28
25.21
20.09
17.36
18.86
24.46
32.63
41.04
47.27
49.33
46.04
36.88
21.41
-0.40
-28.18
-59.60
-90.33
-115.34
-130.82
-135.38
-130.27
-118.90
-101.00
-78.33
-53.80
-30.37
-10.12
5.71
16.89
25.35
33.00
41.23
49.81
57.84
64.41
69.15
70.59
66.82
58.62
48.22
38.09
29.22
21.62
15.11
9.62
5.20
2.01
0.21
-0.65
-1.27
-2.58
-4.94
-7.90
-10.55
-12.01
-11.57
-8.97
-4.83
-0.31
3.17
4.67
4.11
1.66
-2.16
-6.53
-10.37
-12.86
-13.62
-12.86
-11.22
-9.52
-8.46
-8.29
-8.73
-9.21
-9.25
-8.77
-7.96
-7.13
-6.48
-5.99
-5.41
-4.47
-2.94
-0.83
1.59
3.96
5.96
7.39
8.21
8.61
8.77
8.91
9.13
9.40
9.56
9.48
9.11
8.61
8.34
8.42
8.85
9.33
9.28
8.06
5.28
0.96
-4.36
-9.71
-14.25
-17.30
-18.51
-17.95
-16.00
-13.33
-10.86
-9.73
-10.55
-14.25
-20.67
-28.27
-34.80
-38.40
-38.18
-34.37
-28.99
-22.66
-16.15
-10.08
-4.90
-0.83
2.08
4.06
5.20
5.73
6.15
6.72
7.84
9.90
13.09
17.24
21.80
26.02
29.29
31.43
32.51
32.85
32.79
32.44
31.71
30.45
28.64
26.62
24.99
24.25
24.60
25.81
27.27
28.28
28.30
27.22
25.39
23.52
22.20
21.69
21.87
22.39
22.80
22.62
21.21
17.80
11.85
3.36
-6.93
-17.39
-25.91
-30.67
-31.12
-28.32
-24.49
-21.96
-22.15
-25.64
-32.01
-40.17
-48.75
-56.58
-62.83
-66.89
-68.24
-66.38
-61.68
-54.91
-46.68
-37.05
-25.79
-12.94
0.75
13.65
23.66
27.79
23.64
10.97
-6.68
-22.22
-29.39
-26.55
-18.91
-9.70
-1.54
4.22
7.64
10.40
13.33
16.31
18.38
18.55
16.81
13.38
9.33
5.33
1.10
-4.35
-11.30
-18.45
-22.92
-21.45
-12.79
1.61
17.92
31.75
39.88
41.52
38.29
33.00
28.22
24.77
22.21
19.23
15.41
11.29
8.05
6.61
7.11
8.89
10.70
11.49
10.97
9.72
8.75
8.90
10.40
12.79
15.17
16.60
16.21
13.80
9.78
4.88
-0.12
-4.64
-8.43
-11.44
-13.68
-15.07
-15.45
-14.58
-12.40
-9.09
-5.05
-0.87
2.87
5.72
7.49
8.21
8.13
7.52
6.54
5.15
3.14
0.23
-3.77
-8.78
-14.35
-19.78
-24.30
-27.21
-28.11
-26.91
-23.83
-19.30
-13.88
-8.18
-2.79
1.73
4.90
6.39
6.15
4.39
1.55
-1.84
-5.34
-8.64
-11.65
-14.38
-16.84
-18.96
-20.59
-21.59
-22.00
-22.00
-21.87
-21.86
-22.15
-22.69
-23.28
-23.58
-23.31
-22.40
-21.02
-19.31
-17.55
-16.08
-15.23
-15.11
-15.52
-16.01
-16.07
-15.30
-13.06
-9.04
-3.44
3.10
9.85
16.24
21.79
26.12
28.92
30.71
32.17
33.63
34.99
36.07
36.80
37.23
37.46
37.57
38.53
41.18
45.71
51.65
58.42
65.74
73.50
81.58
84.47
78.61
64.83
47.60
31.04
16.83
4.99
-4.84
-12.81
-18.93
-22.45
-23.10
-21.59
-19.39
-17.73
-17.11
-17.40
-18.27
-19.63
-20.90
-21.73
-22.22
-22.88
-24.17
-26.24
-29.08
-31.93
-34.40
-35.87
-36.06
-35.20
-34.04
-33.27
-33.21
-33.62
-33.86
-33.31
-31.30
-27.62
-22.75
-17.76
-13.87
-12.07
-12.82
-15.84
-20.22
-24.50
-27.16
-27.17
-24.29
-19.04
-12.41
-5.43
1.16
6.95
11.90
16.10
19.66
22.62
25.07
27.16
29.11
31.14
33.27
35.36
37.15
38.39
38.99
39.07
38.97
39.09
39.75
41.05
42.81
44.63
46.04
46.67
46.36
45.16
43.23
40.71
37.64
33.90
29.35
23.92
17.67
10.79
3.61
-3.44
-9.84
-14.97
-18.24
-19.27
-18.01
-14.95
-10.95
-7.12
-4.38
-3.18
-3.37
-4.26
-4.99
-4.80
-3.38
-0.89
2.01
4.38
5.15
3.42
-1.35
-9.11
-19.08
-29.87
-39.78
-47.38
-51.86
-53.20
-52.18
-49.99
-47.78
-46.27
-45.61
-45.60
-46.03
-46.76
-47.65
-48.47
-48.72
-47.68
-44.52
-38.63
-29.91
-19.09
-7.28
4.48
15.38
25.07
33.67
41.76
50.11
59.40
69.23
78.93
87.89
95.59
101.58
105.79
108.71
111.29
114.68
118.59
122.89
127.73
132.57
135.17
131.65
117.89
90.99
51.10
-0.00
-56.74
-111.04
-155.66
-187.06
-205.92
-215.22
-218.64
-218.63
-218.85
-220.79
-223.69
-226.03
-226.73
-225.05
-219.78
-210.17
-180.27
-127.81
-65.33
-10.08
28.99
52.75
64.75
71.43
75.88
79.18
79.14
75.08
69.20
64.46
62.62
63.70
66.98
71.48
77.16
82.59
87.29
91.71
94.63
93.62
86.90
75.07
60.20
44.91
30.23
17.14
6.82
0.10
-3.80
-5.59
-6.05
-5.91
-5.25
-4.26
-2.78
-0.62
1.94
4.13
5.11
3.62
-1.50
-10.57
-22.95
-36.78
-49.37
-58.13
-61.50
-59.85
-55.11
-49.60
-44.86
-40.95
-36.98
-31.47
-23.28
-12.18
0.91
14.64
28.04
40.96
53.92
67.22
80.88
94.54
107.62
118.82
127.31
133.28
137.93
143.07
149.57
157.90
167.97
179.13
188.20
192.89
193.33
192.22
193.71
198.95
207.43
217.42
226.56
228.82
221.05
205.01
186.08
170.49
157.00
141.65
120.32
90.25
44.32
-19.91
-97.86
-179.12
-250.78
-309.94
-357.30
-395.27
-427.49
-466.81
-522.60
-596.43
-681.03
-762.30
-834.68
-892.70
-929.87
-885.85
-733.97
-503.28
-261.47
-84.96
36.73
124.25
196.47
267.45
342.04
406.52
455.98
484.45
482.09
446.69
377.27
285.97
193.44
119.18
69.89
46.81
46.84
64.59
93.76
119.30
128.85
117.86
89.49
48.30
1.94
-41.76
-74.82
-89.11
-83.31
-60.36
-23.44
20.24
59.76
86.85
98.17
96.26
87.69
75.97
61.34
42.14
16.39
-15.62
-49.02
-76.64
-91.81
-90.90
-75.56
-50.98
-23.02
4.01
24.86
37.02
40.57
37.72
32.02
27.28
26.51
31.33
41.34
54.54
68.52
80.76
89.13
92.35
90.16
83.48
74.16
64.38
56.01
50.47
47.93
47.36
47.06
45.57
42.42
38.35
34.83
33.23
34.43
38.20
43.42
48.61
52.57
54.84
55.68
55.68
55.31
54.74
53.64
51.35
47.21
40.82
32.23
21.98
10.97
0.30
-8.78
-15.09
-17.67
-15.94
-9.83
0.20
13.20
27.97
43.15
57.47
69.74
78.93
84.13
84.72
80.66
72.69
62.45
52.09
43.39
36.79
30.67
21.62
5.61
-20.21
-56.09
-99.19
-144.42
-186.10
-219.46
-241.45
-250.65
-246.92
-231.17
-205.59
-173.95
-141.51
-114.04
-96.29
-90.51
-95.71
-108.20
-122.95
-135.28
-141.96
-141.42
-133.39
-118.28
-96.95
-70.86
-42.25
-14.14
10.23
28.34
39.30
44.13
45.30
45.56
46.81
49.58
53.22
56.62
59.02
60.30
60.80
60.92
60.69
59.75
57.57
53.87
48.94
43.49
38.42
34.37
31.45
29.30
27.32
25.06
22.45
19.76
17.44
15.80
14.84
14.23
13.52
12.32
10.49
8.19
5.72
3.41
1.50
0.08
-0.92
-1.67
-2.39
-3.26
-4.29
-5.15
-5.21
-3.66
0.11
6.21
13.95
22.03
28.85
33.09
34.15
32.29
28.39
23.57
18.72
14.38
10.74
7.83
5.69
4.35
3.82
3.90
4.24
4.39
3.98
2.90
1.32
-0.40
-1.88
-2.88
-3.37
-3.48
-3.44
-3.41
-3.51
-3.73
-4.05
-4.41
-4.74
-4.98
-5.04
-4.87
-4.44
-3.83
-3.11
-2.37
-1.64
-0.92
-0.17
0.62
1.40
2.13
2.72
3.15
3.39
3.49
3.51
3.50
3.52
3.58
3.68
3.79
3.86
3.88
3.87
3.88
4.00
4.28
4.71
5.22
5.68
5.98
6.05
5.84
5.40
4.80
4.10
3.41
2.84
2.47
2.35
2.45
2.62
2.70
2.53
2.10
1.50
0.93
0.57
0.51
0.72
1.06
1.36
1.50
1.49
1.37
1.27
1.22
1.21
1.17
1.01
0.66
0.12
-0.59
-1.44
-2.42
-3.50
-4.66
-5.83
-6.92
-7.89
-8.68
-9.27
-9.65
-9.79
-9.65
-9.23
-8.58
-7.77
-6.91
-6.06
-5.19
-4.25
-3.19
-2.03
-0.87
0.15
0.88
1.23
1.19
0.78
0.09
-0.79
-1.73
-2.54
-3.08
-3.21
-2.92
-2.29
-1.45
-0.58
0.25
0.97
1.60
2.11
2.50
2.71
2.74
2.63
2.43
2.21
2.05
1.97
1.99
2.12
2.33
2.59
2.83
2.97
2.96
2.79
2.51
2.18
1.87
1.57
1.28
1.01
0.80
0.71
0.75
0.87
0.93
0.79
0.37
-0.30
-1.06
-1.71
-2.08
-2.12
-1.86
-1.39
-0.79
-0.10
0.64
1.38
2.05
2.56
2.89
3.08
3.21
3.40
3.67
4.00
4.33
4.57
4.70
4.74
4.75
4.77
4.84
4.90
4.91
4.78
4.45
3.91
3.25
2.59
2.06
1.73
1.58
1.51
1.36
1.05
0.57
0.04
-0.43
-0.72
-0.86
-0.94
-1.11
-1.52
-2.17
-2.97
-3.77
-4.40
-4.79
-4.97
-5.03
-5.07
-5.13
-5.19
-5.20
-5.11
-4.99
-4.89
-4.94
-5.18
-5.60
-6.15
-6.73
-7.28
-7.71
-7.94
-7.90
-7.53
-6.80
-5.77
-4.53
-3.24
-2.00
-0.89
0.11
1.02
1.86
2.62
3.23
3.60
3.67
3.41
2.87
2.15
1.40
0.74
0.25
-0.08
-0.33
-0.59
-0.95
-1.42
-1.99
-2.59
-3.11
-3.48
-3.58
-3.35
-2.76
-1.84
-0.71
0.43
1.43
2.17
2.64
2.89
2.99
3.00
2.95
2.85
2.74
2.64
2.54
2.42
2.23
1.95
1.61
1.30
1.14
1.19
1.43
1.78
2.07
2.20
2.09
1.75
1.24
0.65
0.07
-0.42
-0.80
-1.07
-1.23
-1.36
-1.51
-1.74
-2.11
-2.63
-3.25
-3.88
-4.35
-4.49
-4.15
-3.35
-2.18
-0.92
0.17
0.84
0.99
0.70
0.14
-0.48
-1.00
-1.29
-1.33
-1.12
-0.69
-0.10
0.56
1.17
1.64
1.91
1.99
1.96
1.90
1.90
1.98
2.10
2.20
2.21
2.05
1.71
1.20
0.57
-0.10
-0.76
-1.33
-1.83
-2.24
-2.59
-2.94
-3.34
-3.84
-4.42
-5.03
-5.49
-5.66
-5.39
-4.66
-3.56
-2.28
-1.02
0.04
0.81
1.29
1.52
1.55
1.47
1.31
1.15
1.08
1.16
1.37
1.66
1.88
1.91
1.73
1.44
1.20
1.12
1.19
1.26
1.17
0.84
0.35
-0.15
-0.52
-0.71
-0.80
-0.93
-1.19
-1.55
-1.96
-2.36
-2.75
-3.12
-3.44
-3.60
-3.47
-2.97
-2.11
-1.06
0.01
0.94
1.74
2.44
3.11
3.68
4.07
4.14
3.87
3.36
2.81
2.40
2.23
2.27
2.41
2.52
2.55
2.48
2.37
2.22
2.06
1.87
1.66
1.38
1.01
0.52
-0.08
-0.73
-1.34
-1.81
-2.13
-2.33
-2.48
-2.65
-2.85
-3.00
-3.02
-2.86
-2.53
-2.11
-1.67
-1.26
-0.85
-0.40
0.13
0.72
1.31
1.87
2.35
2.77
3.15
3.42
3.53
3.38
2.94
2.29
1.57
0.96
0.53
0.28
0.12
-0.02
-0.15
-0.21
-0.13
0.06
0.27
0.36
0.21
-0.16
-0.65
-1.17
-1.64
-2.06
-2.46
-2.86
-3.23
-3.52
-3.70
-3.77
-3.78
-3.75
-3.68
-3.47
-3.03
-2.30
-1.35
-0.36
0.45
0.86
0.78
0.30
-0.37
-0.96
-1.26
-1.23
-0.95
-0.64
-0.44
-0.40
-0.45
-0.49
-0.44
-0.33
-0.29
-0.44
-0.83
-1.42
-2.10
-2.71
-3.19
-3.55
-3.96
-4.62
-5.71
-7.34
-9.44
-11.83
-14.22
-16.35
-17.97
-18.81
-18.62
-17.16
-14.38
-10.55
-6.31
-2.55
-0.15
0.38
-1.04
-4.08
-8.22
-12.95
-17.74
-21.90
-24.53
-24.63
-21.49
-15.17
-6.71
2.05
9.05
12.82
12.94
10.14
5.81
1.47
-1.86
-3.84
-4.63
-4.65
-4.26
-3.64
-2.85
-1.97
-1.20
-0.75
-0.76
-1.20
-1.80
-2.20
-2.11
-1.45
-0.34
0.99
2.32
3.53
4.66
5.79
7.01
8.33
9.69
11.03
12.28
13.44
14.53
15.55
16.47
17.25
17.83
18.16
18.21
18.03
17.73
17.51
17.57
18.02
18.86
19.95
21.10
22.14
23.03
23.87
24.84
26.10
27.72
29.66
31.83
34.10
36.31
38.28
39.77
40.53
40.34
39.04
36.54
32.82
27.91
21.93
15.14
7.98
1.02
-5.21
-10.37
-14.42
-17.55
-20.02
-22.02
-23.58
-24.65
-25.23
-25.44
-25.55
-25.85
-26.55
-27.72
-29.21
-30.71
-31.77
-31.92
-30.73
-28.03
-24.04
-19.34
-14.75
-11.05
-8.67
-7.54
-7.13
-6.73
-5.73
-3.90
-1.36
1.55
4.49
7.35
10.22
13.33
16.90
21.00
25.53
30.26
34.87
38.95
42.09
43.86
43.91
42.03
38.20
32.63
25.66
17.74
9.39
1.18
-6.26
-12.45
-17.11
-20.36
-22.62
-24.43
-26.20
-27.93
-29.27
-29.69
-28.81
-26.63
-23.63
-20.56
-18.18
-16.93
-16.88
-17.75
-19.05
-20.24
-20.88
-20.68
-19.51
-17.42
-14.62
-11.49
-8.47
-5.98
-4.27
-3.37
-3.06
-2.97
-2.77
-2.20
-1.15
0.33
2.10
3.88
5.26
5.79
5.12
3.26
0.63
-1.97
-3.67
-3.90
-2.62
-0.27
2.52
5.30
7.94
10.61
13.43
16.28
18.68
20.02
19.87
18.20
15.40
12.07
8.77
5.83
3.34
1.30
-0.28
-1.35
-1.92
-2.12
-2.24
-2.61
-3.42
-4.67
-6.09
-7.34
-8.13
-8.34
-8.01
-7.33
-6.45
-5.53
-4.70
-4.07
-3.70
-3.63
-3.76
-3.89
-3.75
-3.10
-1.89
-0.20
1.69
3.46
4.79
5.43
5.25
4.25
2.57
0.47
-1.67
-3.43
-4.44
-4.43
-3.33
-1.34
1.20
3.76
5.85
7.10
7.34
6.66
5.32
3.74
2.33
1.43
1.22
1.70
2.69
3.93
5.13
6.05
6.52
6.47
5.94
5.00
3.76
2.34
0.82
-0.79
-2.56
-4.55
-6.75
-8.92
-10.57
-11.05
-9.81
-6.71
-2.15
2.96
7.58
10.98
12.96
13.94
14.53
15.18
15.84
16.01
15.08
12.74
9.18
5.02
1.01
-2.28
-4.68
-6.30
-7.34
-7.88
-7.84
-7.06
-5.50
-3.37
-1.14
0.59
1.25
0.45
-1.94
-5.73
-10.36
-14.87
-18.00
-18.44
-15.27
-8.42
1.13
11.48
20.38
25.88
26.95
23.70
17.16
8.90
0.46
-6.93
-12.55
-16.11
-17.68
-17.51
-16.02
-13.70
-11.08
-8.68
-6.91
-6.00
-5.92
-6.40
-7.00
-7.23
-6.69
-5.19
-2.81
0.13
3.17
5.74
7.36
7.68
6.57
4.16
0.77
-3.12
-6.88
-9.79
-11.19
-10.62
-8.10
-4.18
0.12
3.69
5.76
6.20
5.54
4.64
4.25
4.65
5.64
6.71
7.44
7.68
7.61
7.46
7.37
7.26
6.92
6.20
5.16
4.09
3.39
3.42
4.21
5.55
6.99
8.05
8.42
8.02
6.99
5.59
4.13
2.84
1.93
1.52
1.71
2.50
3.77
5.31
6.85
8.16
9.06
9.46
9.31
8.58
7.24
5.26
2.61
-0.67
-4.48
-8.57
-12.53
-15.88
-18.11
-18.90
-18.20
-16.31
-13.82
-11.37
-9.48
-8.38
-8.02
-8.18
-8.61
-9.12
-9.57
-9.81
-9.71
-9.08
-7.85
-6.12
-4.14
-2.30
-0.94
-0.22
-0.05
-0.16
-0.19
0.10
0.83
1.94
3.28
4.66
5.90
6.84
7.35
7.32
6.75
5.75
4.54
3.36
2.34
1.50
0.75
0.02
-0.69
-1.22
-1.39
-1.09
-0.36
0.61
1.55
2.18
2.36
2.02
1.20
0.01
-1.42
-2.90
-4.26
-5.32
-5.99
-6.20
-5.96
-5.29
-4.22
-2.84
-1.32
0.17
1.40
2.17
2.41
2.12
1.45
0.63
-0.11
-0.59
-0.78
-0.78
-0.77
-0.92
-1.33
-1.96
-2.64
-3.21
-3.55
-3.65
-3.60
-3.51
-3.49
-3.57
-3.76
-4.00
-4.21
-4.32
-4.27
-4.02
-3.64
-3.28
-3.16
-3.45
-4.23
-5.34
-6.44
-7.08
-6.85
-5.50
-3.07
0.14
3.65
6.89
9.39
10.79
11.00
10.12
8.45
6.41
4.44
2.91
2.05
1.88
2.25
2.89
3.52
3.96
4.13
4.10
3.98
3.83
3.64
3.35
2.89
2.22
1.45
0.69
0.07
-0.40
-0.76
-1.12
-1.58
-2.15
-2.77
-3.36
-3.86
-4.21
-4.43
-4.47
-4.31
-3.89
-3.20
-2.31
-1.37
-0.55
0.02
0.34
0.53
0.73
1.09
1.63
2.24
2.76
3.00
2.91
2.53
1.97
1.37
0.85
0.43
0.13
-0.04
-0.09
-0.05
0.01
0.01
-0.14
-0.43
-0.81
-1.15
-1.34
-1.36
-1.25
-1.11
-1.06
-1.17
-1.45
-1.84
-2.24
-2.53
-2.61
-2.46
-2.07
-1.51
-0.84
-0.14
0.54
1.14
1.59
1.80
1.72
1.38
0.87
0.36
0.01
-0.09
0.05
0.31
0.55
0.62
0.48
0.17
-0.17
-0.41
-0.48
-0.41
-0.31
-0.29
-0.42
-0.67
-0.97
-1.24
-1.49
-1.76
-2.11
-2.57
-3.06
-3.45
-3.63
-3.52
-3.15
-2.62
-2.05
-1.56
-1.16
-0.83
-0.51
-0.14
0.28
0.70
1.08
1.36
1.53
1.61
1.62
1.54
1.34
1.01
0.56
0.11
-0.25
-0.43
-0.39
-0.19
0.09
0.32
0.43
0.36
0.12
-0.26
-0.69
-1.10
-1.41
-1.62
-1.76
-1.87
-1.98
-2.06
-2.08
-1.99
-1.75
-1.37
-0.86
-0.26
0.42
1.13
1.78
2.27
2.53
2.54
2.32
2.03
1.80
1.75
1.91
2.22
2.54
2.75
2.74
2.52
2.15
1.75
1.41
1.16
0.97
0.77
0.51
0.22
-0.05
-0.26
-0.40
-0.54
-0.74
-1.03
-1.39
-1.77
-2.10
-2.36
-2.54
-2.62
-2.57
-2.36
-1.96
-1.40
-0.73
-0.08
0.48
0.89
1.12
1.21
1.19
1.11
1.02
0.97
0.99
1.11
1.28
1.45
1.53
1.46
1.24
0.90
0.52
0.18
-0.09
-0.28
-0.40
-0.46
-0.46
-0.41
-0.35
-0.30
-0.35
-0.53
-0.86
-1.25
-1.61
-1.89
-2.08
-2.25
-2.46
-2.71
-2.94
-3.02
-2.85
-2.39
-1.73
-1.02
-0.39
0.09
0.43
0.72
1.00
1.29
1.56
1.75
1.85
1.84
1.76
1.65
1.57
1.57
1.65
1.76
1.83
1.78
1.59
1.31
0.98
0.66
0.34
-0.00
-0.37
-0.72
-0.98
-1.09
-1.06
-0.99
-1.01
-1.20
-1.52
-1.86
-2.09
-2.11
-1.91
-1.54
-1.08
-0.57
-0.05
0.46
0.89
1.18
1.32
1.32
1.27
1.27
1.37
1.57
1.78
1.89
1.81
1.51
1.05
0.55
0.10
-0.22
-0.36
-0.33
-0.16
0.08
0.32
0.49
0.54
0.45
0.21
-0.16
-0.66
-1.25
-1.84
-2.35
-2.69
-2.82
-2.80
-2.70
-2.61
-2.56
-2.48
-2.27
-1.87
-1.29
-0.60
0.06
0.59
0.97
1.19
1.32
1.36
1.34
1.26
1.12
0.97
0.85
0.80
0.82
0.90
1.00
1.04
1.01
0.90
0.76
0.64
0.57
0.47
0.28
-0.08
-0.61
-1.17
-1.58
-1.74
-1.65
-1.48
-1.44
-1.67
-2.15
-2.75
-3.23
-3.43
-3.28
-2.79
-2.03
-1.10
-0.10
0.84
1.60
2.11
2.34
2.38
2.32
2.25
2.19
2.10
1.97
1.79
1.59
1.40
1.26
1.14
1.05
0.97
0.89
0.79
0.67
0.52
0.34
0.15
-0.05
-0.23
-0.42
-0.65
-0.95
-1.29
-1.63
-1.91
-2.10
-2.16
-2.15
-2.10
-2.05
-1.98
-1.85
-1.60
-1.22
-0.72
-0.17
0.37
0.85
1.25
1.56
1.77
1.90
1.94
1.91
1.84
1.76
1.70
1.68
1.72
1.81
1.93
1.99
1.92
1.65
1.20
0.70
0.30
0.13
0.18
0.33
0.37
0.15
-0.32
-0.90
-1.41
-1.74
-1.91
-2.04
-2.28
-2.63
-2.98
-3.15
-2.99
-2.53
-1.85
-1.13
-0.47
0.12
0.68
1.22
1.73
2.13
2.37
2.46
2.48
2.52
2.65
2.82
2.92
2.84
2.52
2.00
1.41
0.91
0.62
0.55
0.64
0.78
0.88
0.89
0.81
0.63
0.39
0.08
-0.27
-0.66
-1.06
-1.42
-1.73
-1.94
-2.09
-2.21
-2.39
-2.67
-3.02
-3.35
-3.52
-3.38
-2.87
-2.06
-1.06
-0.06
0.82
1.47
1.84
1.92
1.74
1.40
1.03
0.78
0.74
0.90
1.15
1.38
1.48
1.46
1.37
1.27
1.18
1.05
0.85
0.58
0.30
0.10
0.03
0.06
0.10
0.04
-0.17
-0.50
-0.87
-1.17
-1.38
-1.53
-1.71
-1.97
-2.27
-2.48
-2.45
-2.07
-1.32
-0.33
0.71
1.61
2.24
2.54
2.57
2.43
2.25
2.14
2.14
2.26
2.41
2.52
2.47
2.22
1.81
1.34
0.92
0.66
0.61
0.74
0.98
1.23
1.39
1.40
1.21
0.80
0.22
-0.49
-1.23
-1.87
-2.33
-2.58
-2.63
-2.57
-2.51
-2.52
-2.56
-2.57
-2.46
-2.17
-1.69
-1.06
-0.36
0.37
1.09
1.76
2.32
2.69
2.86
2.82
2.64
2.40
2.19
2.02
1.88
1.74
1.58
1.40
1.23
1.10
1.03
1.01
1.03
1.03
0.99
0.87
0.65
0.33
-0.03
-0.39
-0.69
-0.92
-1.06
-1.18
-1.31
-1.52
-1.80
-2.09
-2.30
-2.34
-2.19
-1.89
-1.53
-1.18
-0.80
-0.35
0.26
0.96
1.63
2.05
2.09
1.75
1.23
0.80
0.66
0.87
1.27
1.67
1.89
1.86
1.66
1.38
1.10
0.85
0.63
0.43
0.27
0.12
-0.03
-0.25
-0.57
-0.99
-1.46
-1.90
-2.28
-2.58
-2.82
-2.96
-2.94
-2.68
-2.17
-1.48
-0.75
-0.13
0.33
0.63
0.83
1.00
1.16
1.33
1.50
1.67
1.87
2.06
2.23
2.35
2.40
2.37
2.28
2.12
1.88
1.54
1.10
0.62
0.16
-0.18
-0.38
-0.43
-0.39
-0.33
-0.32
-0.41
-0.58
-0.83
-1.12
-1.42
-1.73
-2.05
-2.32
-2.46
-2.38
-2.00
-1.33
-0.47
0.44
1.29
1.98
2.49
2.83
3.01
3.02
2.85
2.49
2.00
1.45
0.98
0.65
0.51
0.52
0.59
0.62
0.55
0.39
0.21
0.08
0.04
0.06
0.07
-0.01
-0.19
-0.45
-0.73
-1.00
-1.28
-1.65
-2.13
-2.68
-3.17
-3.45
-3.43
-3.09
-2.50
-1.76
-0.95
-0.15
0.57
1.12
1.46
1.56
1.48
1.31
1.15
1.06
1.03
1.01
0.96
0.88
0.78
0.73
0.77
0.91
1.12
1.35
1.50
1.49
1.29
0.95
0.55
0.19
-0.08
-0.23
-0.33
-0.43
-0.60
-0.87
-1.29
-1.84
-2.49
-3.16
-3.71
-4.03
-3.97
-3.53
-2.75
-1.78
-0.80
0.04
0.67
1.12
1.46
1.76
2.04
2.23
2.26
2.09
1.77
1.40
1.12
0.96
0.90
0.84
0.70
0.49
0.27
0.14
0.15
0.28
0.43
0.50
0.39
0.08
-0.36
-0.82
-1.16
-1.33
-1.33
-1.24
-1.18
-1.27
-1.53
-1.90
-2.25
-2.44
-2.37
-2.00
-1.38
-0.58
0.28
1.08
1.73
2.16
2.35
2.31
2.12
1.86
1.66
1.58
1.66
1.85
2.05
2.13
2.00
1.66
1.22
0.81
0.51
0.33
0.20
0.01
-0.28
-0.60
-0.84
-0.89
-0.70
-0.34
0.06
0.37
0.46
0.30
-0.09
-0.61
-1.18
-1.70
-2.12
-2.42
-2.54
-2.47
-2.16
-1.63
-0.94
-0.22
0.41
0.87
1.15
1.32
1.43
1.52
1.55
1.53
1.46
1.43
1.50
1.71
1.99
2.21
2.24
2.06
1.75
1.46
1.31
1.35
1.48
1.55
1.39
0.94
0.26
-0.45
-0.96
-1.11
-0.90
-0.49
-0.16
-0.13
-0.50
-1.17
-1.93
-2.55
-2.91
-2.98
-2.84
-2.53
-2.09
-1.47
-0.68
0.19
0.98
1.51
1.69
1.53
1.20
0.86
0.67
0.64
0.74
0.88
1.01
1.14
1.26
1.35
1.37
1.20
0.81
0.22
-0.44
-0.98
-1.26
-1.24
-0.97
-0.58
-0.20
0.03
0.07
-0.09
-0.42
-0.85
-1.35
-1.86
-2.34
-2.78
-3.15
-3.42
-3.52
-3.38
-2.96
-2.29
-1.49
-0.69
-0.02
0.47
0.80
1.06
1.31
1.59
1.87
2.08
2.17
2.13
1.97
1.75
1.49
1.23
0.98
0.71
0.43
0.17
-0.03
-0.12
-0.08
0.03
0.13
0.12
-0.05
-0.33
-0.62
-0.85
-0.99
-1.10
-1.30
-1.64
-2.10
-2.55
-2.82
-2.80
-2.45
-1.88
-1.23
-0.63
-0.15
0.21
0.48
0.72
0.98
1.26
1.53
1.71
1.75
1.64
1.41
1.18
1.06
1.10
1.30
1.57
1.78
1.85
1.73
1.44
1.02
0.55
0.10
-0.26
-0.48
-0.56
-0.53
-0.48
-0.51
-0.68
-0.97
-1.34
-1.71
-2.03
-2.28
-2.42
-2.45
-2.34
-2.06
-1.63
-1.07
-0.45
0.12
0.58
0.87
1.01
1.05
1.05
1.07
1.12
1.19
1.23
1.22
1.16
1.10
1.05
1.02
0.97
0.83
0.58
0.24
-0.13
-0.44
-0.60
-0.54
-0.30
0.06
0.40
0.62
0.65
0.51
0.22
-0.18
-0.67
-1.22
-1.78
-2.26
-2.57
-2.63
-2.45
-2.13
-1.77
-1.45
-1.18
-0.94
-0.68
-0.36
-0.01
0.32
0.57
0.68
0.64
0.46
0.26
0.15
0.22
0.50
0.89
1.23
1.37
1.23
0.83
0.28
-0.27
-0.72
-0.99
-1.09
-1.04
-0.88
-0.63
-0.39
-0.20
-0.14
-0.24
-0.51
-0.90
-1.34
-1.74
-2.03
-2.15
-2.06
-1.79
-1.41
-0.97
-0.53
-0.11
0.30
0.69
1.03
1.26
1.28
1.08
0.71
0.29
-0.01
-0.09
0.01
0.20
0.33
0.32
0.17
-0.01
-0.08
0.01
0.22
0.44
0.55
0.49
0.26
-0.06
-0.40
-0.71
-0.96
-1.16
-1.37
-1.58
-1.79
-1.99
-2.12
-2.12
-1.95
-1.59
-1.08
-0.49
0.10
0.60
0.99
1.27
1.51
1.76
2.01
2.18
2.17
1.89
1.38
0.77
0.25
-0.03
-0.05
0.11
0.30
0.40
0.38
0.27
0.13
-0.02
-0.19
-0.37
-0.55
-0.68
-0.75
-0.79
-0.85
-0.95
-1.08
-1.16
-1.17
-1.12
-1.10
-1.19
-1.36
-1.49
-1.43
-1.07
-0.45
0.22
0.72
0.90
0.79
0.52
0.28
0.21
0.32
0.53
0.72
0.85
0.93
1.01
1.12
1.22
1.28
1.25
1.15
1.04
0.98
0.97
0.93
0.79
0.53
0.18
-0.18
-0.46
-0.65
-0.79
-0.93
-1.12
-1.33
-1.54
-1.70
-1.78
-1.79
-1.75
-1.69
-1.62
-1.55
-1.47
-1.36
-1.18
-0.90
-0.50
0.01
0.56
1.11
1.59
1.94
2.14
2.18
2.05
1.81
1.55
1.35
1.31
1.41
1.57
1.66
1.59
1.32
0.93
0.57
0.35
0.33
0.44
0.56
0.58
0.46
0.23
-0.01
-0.21
-0.36
-0.53
-0.79
-1.13
-1.50
-1.80
-1.99
-2.06
-2.07
-2.04
-1.96
-1.73
-1.28
-0.59
0.26
1.12
1.83
2.30
2.51
2.51
2.37
2.15
1.89
1.63
1.42
1.28
1.19
1.14
1.10
1.03
0.97
0.92
0.90
0.91
0.91
0.87
0.76
0.55
0.24
-0.16
-0.59
-0.98
-1.30
-1.51
-1.65
-1.78
-1.95
-2.19
-2.45
-2.70
-2.87
-2.93
-2.87
-2.69
-2.42
-2.06
-1.62
-1.13
-0.63
-0.13
0.32
0.68
0.93
1.09
1.20
1.28
1.38
1.45
1.47
1.41
1.29
1.20
1.22
1.38
1.62
1.82
1.84
1.63
1.24
0.80
0.42
0.16
0.02
-0.09
-0.21
-0.36
-0.55
-0.75
-0.99
-1.28
-1.59
-1.90
-2.13
-2.23
-2.18
-2.04
-1.85
-1.64
-1.39
-1.04
-0.55
0.05
0.63
1.07
1.28
1.27
1.14
1.04
1.04
1.13
1.23
1.26
1.22
1.17
1.17
1.23
1.29
1.27
1.14
0.94
0.74
0.60
0.47
0.30
0.01
-0.37
-0.75
-1.05
-1.26
-1.43
-1.67
-1.99
-2.35
-2.63
-2.72
-2.59
-2.28
-1.86
-1.35
-0.77
-0.14
0.49
1.04
1.46
1.72
1.91
2.08
2.26
2.43
2.50
2.44
2.24
1.98
1.73
1.56
1.43
1.31
1.16
1.00
0.90
0.89
0.95
1.02
1.00
0.83
0.51
0.05
-0.45
-0.96
-1.40
-1.75
-2.01
-2.20
-2.37
-2.56
-2.78
-2.98
-3.02
-2.79
-2.28
-1.56
-0.79
-0.12
0.38
0.76
1.09
1.45
1.84
2.19
2.41
2.44
2.29
2.02
1.73
1.51
1.41
1.46
1.61
1.81
1.98
2.08
2.13
2.14
2.13
2.08
1.92
1.60
1.11
0.51
-0.10
-0.58
-0.87
-0.96
-0.91
-0.81
-0.77
-0.87
-1.14
-1.55
-2.00
-2.38
-2.57
-2.53
-2.26
-1.82
-1.27
-0.67
-0.03
0.63
1.25
1.76
2.11
2.22
2.11
1.83
1.50
1.21
1.04
1.03
1.12
1.25
1.34
1.36
1.31
1.20
1.07
0.94
0.81
0.70
0.59
0.49
0.35
0.14
-0.16
-0.54
-0.95
-1.32
-1.63
-1.85
-2.04
-2.26
-2.55
-2.91
-3.28
-3.56
-3.67
-3.55
-3.18
-2.58
-1.81
-0.97
-0.21
0.38
0.72
0.82
0.75
0.64
0.60
0.70
0.95
1.29
1.61
1.84
1.94
1.89
1.71
1.40
1.01
0.58
0.20
-0.04
-0.09
0.07
0.31
0.46
0.35
-0.06
-0.71
-1.44
-2.09
-2.59
-2.97
-3.29
-3.59
-3.79
-3.80
-3.56
-3.10
-2.55
-2.03
-1.57
-1.11
-0.57
0.09
0.78
1.39
1.80
2.02
2.17
2.35
2.56
2.71
2.66
2.35
1.83
1.32
1.00
0.96
1.13
1.35
1.48
1.49
1.44
1.38
1.33
1.24
1.01
0.62
0.13
-0.36
-0.76
-1.05
-1.28
-1.52
-1.81
-2.15
-2.51
-2.82
-3.05
-3.17
-3.15
-2.96
-2.59
-2.04
-1.35
-0.55
0.27
1.05
1.69
2.12
2.30
2.24
2.01
1.75
1.58
1.54
1.57
1.57
1.43
1.15
0.78
0.40
0.10
-0.09
-0.19
-0.23
-0.22
-0.14
0.03
0.24
0.45
0.54
0.47
0.23
-0.13
-0.54
-0.97
-1.38
-1.76
-2.09
-2.34
-2.44
-2.41
-2.24
-1.95
-1.54
-1.03
-0.43
0.20
0.78
1.27
1.63
1.90
2.14
2.35
2.51
2.55
2.44
2.19
1.89
1.66
1.57
1.61
1.70
1.70
1.56
1.26
0.87
0.51
0.29
0.24
0.35
0.53
0.68
0.73
0.60
0.27
-0.26
-0.91
-1.59
-2.15
-2.49
-2.52
-2.28
-1.88
-1.48
-1.21
-1.09
-1.06
-1.00
-0.82
-0.46
0.01
0.53
0.99
1.33
1.49
1.45
1.23
0.88
0.48
0.09
-0.23
-0.50
-0.74
-1.00
-1.30
-1.63
-2.02
-2.44
-2.91
-3.40
-3.90
-4.39
-4.85
-5.32
-5.78
-6.18
-6.46
-6.54
-6.39
-6.06
-5.59
-5.04
-4.40
-3.65
-2.76
-1.78
-0.78
0.15
0.96
1.68
2.35
3.02
3.68
4.28
4.74
5.00
5.03
4.91
4.71
4.50
4.33
4.19
4.02
3.78
3.43
3.03
2.66
2.40
2.30
2.35
2.45
2.52
2.45
2.22
1.84
1.40
0.99
0.67
0.46
0.32
0.20
0.03
-0.22
-0.56
-1.01
-1.53
-2.07
-2.54
-2.86
-2.96
-2.81
-2.49
-2.11
-1.77
-1.51
-1.26
-0.91
-0.39
0.28
0.99
1.63
2.09
2.38
2.54
2.61
2.62
2.55
2.42
2.23
2.03
1.89
1.81
1.77
1.70
1.51
1.19
0.77
0.34
0.00
-0.21
-0.31
-0.37
-0.45
-0.61
-0.83
-1.09
-1.37
-1.65
-1.94
-2.22
-2.46
-2.60
-2.56
-2.32
-1.87
-1.28
-0.57
0.18
0.90
1.50
1.86
1.94
1.77
1.48
1.23
1.16
1.31
1.61
1.93
2.14
2.20
2.11
1.91
1.65
1.39
1.14
0.92
0.74
0.58
0.40
0.13
-0.22
-0.61
-0.95
-1.16
-1.20
-1.13
-1.06
-1.12
-1.37
-1.77
-2.20
-2.52
-2.62
-2.44
-2.01
-1.40
-0.71
-0.01
0.63
1.19
1.62
1.92
2.08
2.10
2.00
1.82
1.62
1.42
1.26
1.15
1.08
1.02
0.93
0.77
0.53
0.26
-0.00
-0.19
-0.27
-0.28
-0.26
-0.24
-0.23
-0.21
-0.17
-0.11
-0.11
-0.22
-0.51
-0.94
-1.40
-1.73
-1.85
-1.78
-1.62
-1.51
-1.52
-1.62
-1.71
-1.66
-1.41
-0.96
-0.35
0.32
1.01
1.63
2.13
2.44
2.51
2.36
2.09
1.83
1.66
1.61
1.59
1.51
1.31
1.00
0.66
0.38
0.20
0.14
0.13
0.14
0.17
0.23
0.30
0.33
0.24
-0.03
-0.50
-1.10
-1.69
-2.15
-2.43
-2.54
-2.56
-2.53
-2.46
-2.34
-2.15
-1.90
-1.62
-1.32
-0.96
-0.51
0.08
0.74
1.38
1.87
2.09
2.01
1.68
1.21
0.70
0.27
0.02
0.01
0.21
0.50
0.72
0.73
0.48
0.08
-0.28
-0.43
-0.33
-0.08
0.16
0.22
0.06
-0.25
-0.61
-0.94
-1.19
-1.38
-1.53
-1.66
-1.76
-1.84
-1.91
-1.97
-2.00
-1.95
-1.77
-1.40
-0.84
-0.16
0.56
1.17
1.60
1.79
1.77
1.61
1.39
1.15
0.94
0.74
0.58
0.46
0.43
0.47
0.56
0.66
0.72
0.69
0.57
0.37
0.10
-0.22
-0.56
-0.88
-1.12
-1.25
-1.29
-1.29
-1.35
-1.52
-1.78
-2.08
-2.30
-2.34
-2.17
-1.83
-1.37
-0.86
-0.35
0.14
0.60
1.02
1.38
1.66
1.85
1.98
2.04
2.06
2.01
1.92
1.78
1.64
1.56
1.57
1.68
1.84
1.96
1.97
1.79
1.44
0.99
0.53
0.14
-0.16
-0.40
-0.65
-0.93
-1.21
-1.41
-1.45
-1.35
-1.18
-1.08
-1.16
-1.43
-1.79
-2.12
-2.27
-2.19
-1.92
-1.53
-1.05
-0.53
0.04
0.63
1.19
1.69
2.08
2.37
2.53
2.54
2.38
2.04
1.60
1.13
0.74
0.48
0.36
0.35
0.40
0.50
0.65
0.84
1.02
1.08
0.96
0.61
0.12
-0.39
-0.81
-1.04
-1.10
-1.06
-1.02
-1.06
-1.23
-1.51
-1.84
-2.14
-2.37
-2.48
-2.45
-2.25
-1.89
-1.40
-0.87
-0.36
0.07
0.42
0.75
1.08
1.42
1.70
1.86
1.87
1.75
1.60
1.52
1.54
1.64
1.77
1.87
1.96
2.05
2.13
2.16
2.07
1.83
1.45
1.02
0.63
0.35
0.18
0.10
0.06
0.01
-0.07
-0.22
-0.43
-0.70
-1.03
-1.39
-1.74
-2.07
-2.34
-2.53
-2.60
-2.54
-2.32
-1.96
-1.52
-1.03
-0.54
-0.08
0.35
0.76
1.14
1.45
1.69
1.83
1.84
1.73
1.49
1.19
0.88
0.66
0.58
0.63
0.75
0.84
0.85
0.77
0.66
0.60
0.60
0.66
0.71
0.70
0.59
0.40
0.12
-0.21
-0.58
-0.96
-1.30
-1.55
-1.68
-1.70
-1.69
-1.76
-1.98
-2.36
-2.77
-3.08
-3.09
-2.76
-2.12
-1.35
-0.64
-0.10
0.26
0.54
0.83
1.14
1.43
1.63
1.70
1.68
1.63
1.61
1.61
1.57
1.42
1.11
0.70
0.26
-0.11
-0.37
-0.55
-0.66
-0.71
-0.69
-0.61
-0.46
-0.28
-0.15
-0.10
-0.17
-0.34
-0.58
-0.89
-1.27
-1.72
-2.21
-2.66
-2.97
-3.03
-2.82
-2.35
-1.77
-1.20
-0.75
-0.45
-0.23
0.03
0.41
0.94
1.52
2.04
2.34
2.36
2.13
1.72
1.30
0.96
0.76
0.67
0.64
0.58
0.44
0.23
-0.02
-0.24
-0.40
-0.48
-0.52
-0.60
-0.78
-1.10
-1.52
-1.96
-2.33
-2.56
-2.62
-2.57
-2.46
-2.32
-2.16
-1.93
-1.61
-1.18
-0.66
-0.12
0.37
0.77
1.09
1.35
1.58
1.77
1.88
1.88
1.75
1.54
1.32
1.16
1.07
1.04
1.02
0.96
0.87
0.79
0.77
0.86
1.01
1.15
1.18
1.02
0.67
0.17
-0.38
-0.87
-1.27
-1.56
-1.80
-2.03
-2.27
-2.48
-2.60
-2.55
-2.31
-1.87
-1.29
-0.61
0.09
0.76
1.33
1.74
1.93
1.88
1.63
1.25
0.84
0.50
0.31
0.31
0.49
0.75
1.01
1.16
1.18
1.08
0.90
0.69
0.49
0.28
0.03
-0.24
-0.49
-0.64
-0.66
-0.53
-0.34
-0.16
-0.07
-0.12
-0.27
-0.50
-0.75
-1.00
-1.21
-1.35
-1.37
-1.22
-0.87
-0.33
0.32
0.97
1.50
1.83
1.93
1.83
1.58
1.26
0.94
0.68
0.52
0.46
0.50
0.60
0.72
0.83
0.91
0.94
0.90
0.77
0.57
0.33
0.07
-0.14
-0.28
-0.38
-0.47
-0.61
-0.81
-1.09
-1.41
-1.76
-2.11
-2.45
-2.72
-2.84
-2.74
-2.35
-1.70
-0.90
-0.15
0.39
0.61
0.57
0.41
0.29
0.31
0.45
0.62
0.71
0.69
0.59
0.49
0.48
0.56
0.69
0.82
0.91
0.96
0.97
0.92
0.75
0.41
-0.11
-0.72
-1.27
-1.63
-1.71
-1.56
-1.28
-1.00
-0.80
-0.75
-0.87
-1.14
-1.53
-1.97
-2.34
-2.53
-2.49
-2.22
-1.81
-1.34
-0.86
-0.37
0.14
0.63
1.04
1.32
1.43
1.43
1.37
1.34
1.35
1.41
1.48
1.54
1.58
1.60
1.59
1.53
1.41
1.24
1.06
0.89
0.74
0.57
0.33
-0.01
-0.39
-0.75
-0.99
-1.07
-1.06
-1.08
-1.21
-1.48
-1.82
-2.09
-2.16
-1.97
-1.52
-0.88
-0.17
0.54
1.17
1.68
2.06
2.32
2.47
2.51
2.44
2.28
2.07
1.89
1.81
1.88
2.02
2.16
2.19
2.08
1.86
1.60
1.38
1.22
1.11
1.01
0.89
0.72
0.49
0.20
-0.14
-0.50
-0.85
-1.13
-1.33
-1.43
-1.47
-1.49
-1.55
-1.72
-2.01
-2.40
-2.83
-3.18
-3.32
-3.14
-2.61
-1.78
-0.75
0.31
1.28
2.04
2.51
2.66
2.50
2.13
1.69
1.37
1.33
1.60
2.08
2.58
2.91
2.98
2.84
2.58
2.30
2.06
1.83
1.60
1.35
1.14
0.99
0.92
0.89
0.81
0.63
0.35
0.06
-0.16
-0.28
-0.35
-0.48
-0.80
-1.37
-2.13
-2.97
-3.67
-4.09
-4.15
-3.87
-3.38
-2.79
-2.22
-1.69
-1.16
-0.57
0.08
0.76
1.38
1.82
2.05
2.12
2.11
2.12
2.20
2.29
2.34
2.31
2.20
2.08
1.99
1.92
1.81
1.61
1.30
0.94
0.63
0.48
0.49
0.61
0.71
0.65
0.35
-0.14
-0.72
-1.23
-1.58
-1.75
-1.83
-1.88
-1.97
-2.08
-2.15
-2.15
-2.05
-1.91
-1.79
-1.70
-1.59
-1.38
-0.98
-0.38
0.34
1.04
1.61
1.97
2.11
2.09
1.99
1.88
1.79
1.70
1.57
1.37
1.10
0.84
0.66
0.62
0.71
0.84
0.91
0.81
0.56
0.22
-0.10
-0.34
-0.53
-0.74
-1.04
-1.44
-1.84
-2.18
-2.40
-2.54
-2.68
-2.89
-3.16
-3.39
-3.47
-3.36
-3.06
-2.69
-2.34
-2.06
-1.83
-1.56
-1.23
-0.80
-0.31
0.23
0.79
1.35
1.85
2.18
2.26
2.08
1.73
1.36
1.13
1.11
1.21
1.31
1.26
1.04
0.71
0.42
0.27
0.24
0.26
0.20
0.04
-0.18
-0.36
-0.44
-0.46
-0.51
-0.71
-1.09
-1.54
-1.92
-2.11
-2.10
-2.04
-2.09
-2.33
-2.69
-2.97
-2.95
-2.54
-1.85
-1.08
-0.46
-0.05
0.20
0.47
0.88
1.40
1.88
2.14
2.09
1.80
1.44
1.18
1.12
1.23
1.40
1.52
1.52
1.39
1.17
0.93
0.73
0.60
0.55
0.53
0.43
0.18
-0.25
-0.78
-1.30
-1.66
-1.82
-1.83
-1.84
-1.95
-2.15
-2.34
-2.35
-2.04
-1.42
-0.62
0.17
0.80
1.21
1.45
1.59
1.70
1.79
1.82
1.79
1.70
1.62
1.59
1.63
1.69
1.73
1.70
1.60
1.47
1.35
1.27
1.21
1.11
0.92
0.60
0.16
-0.34
-0.84
-1.26
-1.54
-1.72
-1.82
-1.95
-2.16
-2.45
-2.78
-3.03
-3.10
-2.90
-2.44
-1.79
-1.05
-0.33
0.30
0.80
1.14
1.33
1.36
1.30
1.20
1.14
1.17
1.28
1.44
1.58
1.65
1.63
1.51
1.33
1.12
0.92
0.73
0.57
0.45
0.34
0.24
0.12
-0.02
-0.16
-0.29
-0.42
-0.55
-0.74
-1.03
-1.44
-1.93
-2.42
-2.79
-2.94
-2.82
-2.47
-1.96
-1.35
-0.68
0.03
0.77
1.49
2.10
2.50
2.61
2.44
2.06
1.61
1.21
0.93
0.76
0.69
0.69
0.75
0.87
1.04
1.23
1.36
1.38
1.24
0.95
0.55
0.10
-0.33
-0.70
-0.98
-1.16
-1.27
-1.34
-1.41
-1.54
-1.75
-2.04
-2.36
-2.58
-2.60
-2.35
-1.83
-1.12
-0.35
0.34
0.87
1.21
1.40
1.48
1.47
1.41
1.30
1.15
1.00
0.85
0.71
0.60
0.53
0.48
0.46
0.48
0.53
0.61
0.69
0.75
0.72
0.55
0.19
-0.32
-0.92
-1.51
-2.00
-2.35
-2.56
-2.65
-2.66
-2.62
-2.54
-2.45
-2.36
-2.28
-2.19
-2.00
-1.66
-1.11
-0.41
0.35
1.01
1.46
1.68
1.71
1.63
1.52
1.40
1.26
1.11
0.94
0.82
0.78
0.81
0.87
0.91
0.89
0.83
0.77
0.70
0.59
0.38
0.00
-0.52
-1.08
-1.51
-1.67
-1.55
-1.23
-0.91
-0.77
-0.89
-1.24
-1.67
-1.99
-2.06
-1.84
-1.40
-0.89
-0.41
-0.02
0.30
0.63
1.00
1.38
1.70
1.83
1.72
1.44
1.09
0.87
0.87
1.08
1.38
1.62
1.68
1.53
1.19
0.77
0.35
-0.01
-0.27
-0.45
-0.57
-0.67
-0.79
-0.95
-1.14
-1.36
-1.58
-1.79
-1.97
-2.09
-2.10
-1.97
-1.65
-1.16
-0.54
0.10
0.67
1.12
1.44
1.65
1.76
1.77
1.67
1.45
1.19
0.96
0.85
0.88
1.02
1.18
1.27
1.22
1.06
0.84
0.65
0.53
0.49
0.48
0.40
0.17
-0.24
-0.80
-1.40
-1.89
-2.19
-2.29
-2.29
-2.29
-2.37
-2.48
-2.46
-2.21
-1.68
-0.96
-0.26
0.28
0.61
0.80
1.01
1.33
1.75
2.13
2.34
2.30
2.07
1.76
1.52
1.40
1.36
1.33
1.25
1.13
1.02
0.94
0.87
0.74
0.51
0.16
-0.23
-0.57
-0.79
-0.89
-0.88
-0.83
-0.80
-0.86
-1.03
-1.37
-1.84
-2.36
-2.78
-2.98
-2.89
-2.50
-1.92
-1.26
-0.60
0.01
0.55
1.03
1.43
1.72
1.90
1.99
2.00
1.98
1.93
1.84
1.70
1.51
1.32
1.17
1.14
1.23
1.38
1.52
1.55
1.40
1.12
0.77
0.44
0.20
0.04
-0.10
-0.31
-0.65
-1.15
-1.73
-2.30
-2.73
-2.94
-2.92
-2.71
-2.38
-1.97
-1.48
-0.91
-0.25
0.46
1.15
1.72
2.12
2.31
2.33
2.19
1.95
1.66
1.38
1.18
1.06
1.03
1.01
0.95
0.81
0.59
0.36
0.16
-0.00
-0.13
-0.26
-0.40
-0.53
-0.61
-0.59
-0.49
-0.34
-0.25
-0.30
-0.52
-0.88
-1.30
-1.69
-2.03
-2.29
-2.52
-2.73
-2.86
-2.82
-2.53
-1.93
-1.12
-0.22
0.59
1.23
1.66
1.92
2.05
2.09
2.06
1.97
1.89
1.87
1.93
2.07
2.23
2.34
2.34
2.20
1.91
1.48
0.93
0.33
-0.23
-0.68
-0.96
-1.10
-1.22
-1.45
-1.85
-2.37
-2.85
-3.10
-3.03
-2.72
-2.34
-2.12
-2.15
-2.34
-2.47
-2.30
-1.73
-0.81
0.21
1.08
1.61
1.78
1.72
1.58
1.50
1.51
1.55
1.58
1.55
1.47
1.40
1.33
1.25
1.08
0.79
0.39
-0.03
-0.38
-0.56
-0.56
-0.43
-0.25
-0.09
0.01
0.05
-0.00
-0.13
-0.37
-0.70
-1.09
-1.46
-1.74
-1.86
-1.78
-1.53
-1.15
-0.72
-0.28
0.13
0.56
1.02
1.57
2.19
2.83
3.41
3.81
3.96
3.83
3.46
2.93
2.32
1.74
1.31
1.10
1.11
1.28
1.48
1.58
1.49
1.22
0.80
0.31
-0.18
-0.62
-0.98
-1.24
-1.39
-1.47
-1.56
-1.73
-2.06
-2.49
-2.92
-3.21
-3.24
-2.99
-2.52
-1.90
-1.21
-0.51
0.18
0.81
1.35
1.75
1.99
2.12
2.17
2.16
2.09
1.94
1.71
1.44
1.21
1.10
1.13
1.24
1.33
1.30
1.12
0.79
0.39
0.00
-0.31
-0.52
-0.65
-0.76
-0.92
-1.16
-1.44
-1.68
-1.81
-1.79
-1.71
-1.68
-1.80
-2.08
-2.39
-2.56
-2.42
-1.96
-1.27
-0.52
0.13
0.62
0.99
1.30
1.57
1.79
1.90
1.89
1.79
1.70
1.68
1.74
1.78
1.69
1.44
1.04
0.65
0.41
0.39
0.56
0.82
1.05
1.18
1.20
1.12
0.96
0.72
0.40
0.03
-0.39
-0.80
-1.17
-1.48
-1.72
-1.89
-2.02
-2.13
-2.26
-2.41
-2.53
-2.54
-2.37
-2.00
-1.50
-0.94
-0.41
0.08
0.54
1.02
1.52
1.96
2.25
2.33
2.18
1.89
1.58
1.35
1.24
1.22
1.25
1.25
1.17
0.99
0.68
0.26
-0.19
-0.57
-0.79
-0.79
-0.60
-0.33
-0.11
-0.07
-0.28
-0.72
-1.31
-1.93
-2.45
-2.79
-2.96
-2.99
-2.94
-2.83
-2.67
-2.44
-2.16
-1.85
-1.58
-1.36
-1.16
-0.89
-0.45
0.19
0.95
1.66
2.16
2.32
2.17
1.81
1.40
1.07
0.86
0.74
0.68
0.66
0.72
0.90
1.15
1.39
1.47
1.29
0.86
0.31
-0.15
-0.38
-0.34
-0.13
0.09
0.15
-0.02
-0.43
-0.99
-1.61
-2.22
-2.77
-3.21
-3.50
-3.57
-3.36
-2.85
-2.10
-1.23
-0.40
0.24
0.66
0.87
0.96
1.01
1.04
1.06
1.05
0.99
0.92
0.87
0.85
0.87
0.92
0.94
0.93
0.86
0.73
0.58
0.42
0.26
0.11
-0.03
-0.19
-0.37
-0.60
-0.87
-1.16
-1.47
-1.79
-2.13
-2.48
-2.80
-3.00
-2.99
-2.73
-2.26
-1.67
-1.08
-0.57
-0.14
0.27
0.68
1.09
1.43
1.63
1.68
1.62
1.54
1.47
1.41
1.30
1.09
0.77
0.42
0.15
0.06
0.16
0.39
0.59
0.61
0.38
-0.10
-0.70
-1.26
-1.63
-1.78
-1.75
-1.68
-1.65
-1.70
-1.81
-1.92
-1.97
-1.96
-1.88
-1.71
-1.42
-0.96
-0.32
0.41
1.10
1.61
1.83
1.77
1.52
1.16
0.78
0.41
0.11
-0.09
-0.10
0.08
0.41
0.77
1.01
1.06
0.92
0.67
0.41
0.20
0.03
-0.12
-0.29
-0.44
-0.54
-0.55
-0.51
-0.50
-0.65
-1.03
-1.64
-2.34
-2.96
-3.30
-3.33
-3.08
-2.66
-2.19
-1.66
-1.06
-0.33
0.47
1.22
1.75
1.93
1.80
1.46
1.10
0.84
0.71
0.66
0.63
0.56
0.45
0.34
0.28
0.33
0.49
0.73
0.92
0.96
0.75
0.31
-0.24
-0.74
-1.07
-1.17
-1.13
-1.08
-1.18
-1.49
-1.99
-2.56
-3.04
-3.30
-3.24
-2.89
-2.31
-1.61
-0.90
-0.23
0.40
0.99
1.52
1.93
2.14
2.12
1.89
1.53
1.11
0.69
0.25
-0.20
-0.60
-0.83
-0.77
-0.34
0.42
1.35
2.27
3.06
3.69
4.21
4.66
5.01
5.18
5.04
4.55
3.71
2.60
1.35
0.08
-1.10
-2.07
-2.74
-3.01
-2.82
-2.15
-1.07
0.29
1.70
2.95
3.82
4.22
4.19
3.87
3.46
3.09
2.79
2.51
2.23
1.93
1.65
1.43
1.23
0.96
0.49
-0.23
-1.10
-1.97
-2.64
-2.97
-2.98
-2.78
-2.51
-2.24
-1.95
-1.53
-0.89
-0.00
1.03
2.03
2.80
3.16
3.05
2.56
1.90
1.31
1.02
1.13
1.58
2.21
2.83
3.35
3.71
3.98
4.17
4.29
4.28
4.10
3.75
3.28
2.76
2.23
1.70
1.13
0.48
-0.26
-1.07
-1.89
-2.61
-3.08
-3.17
-2.83
-2.12
-1.27
-0.53
-0.10
-0.03
-0.24
-0.60
-1.08
-1.68
-2.48
-3.44
-4.38
-5.07
-5.29
-5.00
-4.31
-3.44
-2.59
-1.86
-1.25
-0.74
-0.38
-0.23
-0.34
-0.70
-1.19
-1.66
-1.98
-2.09
-2.03
-1.87
-1.69
-1.55
-1.49
-1.54
-1.75
-2.10
-2.57
-3.03
-3.39
-3.51
-3.37
-3.02
-2.56
-2.13
-1.86
-1.84
-2.10
-2.61
-3.26
-3.91
-4.39
-4.56
-4.39
-3.87
-3.14
-2.29
-1.45
-0.67
0.05
0.70
1.29
1.81
2.24
2.58
2.84
2.99
3.04
3.00
2.86
2.69
2.53
2.43
2.38
2.34
2.25
2.06
1.78
1.46
1.16
0.91
0.70
0.46
0.13
-0.33
-0.90
-1.54
-2.15
-2.69
-3.10
-3.41
-3.61
-3.70
-3.67
-3.48
-3.10
-2.57
-1.93
-1.30
-0.74
-0.29
0.05
0.31
0.53
0.74
0.93
1.13
1.36
1.61
1.85
2.03
2.11
2.11
2.06
2.04
2.08
2.19
2.33
2.45
2.50
2.47
2.35
2.18
1.96
1.72
1.48
1.25
1.04
0.84
0.57
0.20
-0.31
-0.88
-1.43
-1.79
-1.87
-1.58
-0.91
0.10
1.43
3.03
4.81
6.65
8.33
9.65
10.43
10.62
10.28
9.59
8.75
7.93
7.16
6.39
5.53
4.48
3.21
1.75
0.18
-1.35
-2.73
-3.85
-4.66
-5.18
-5.50
-5.80
-6.24
-6.97
-7.97
-9.08
-10.01
-10.45
-10.22
-9.34
-8.05
-6.73
-5.74
-5.32
-5.48
-6.03
-6.72
-7.27
-7.50
-7.32
-6.69
-5.67
-4.31
-2.71
-0.97
0.77
2.40
3.78
4.80
5.38
5.48
5.18
4.62
3.97
3.35
2.83
2.39
1.97
1.58
1.28
1.19
1.41
1.96
2.74
3.52
4.06
4.16
3.76
2.91
1.78
0.54
-0.67
-1.78
-2.75
-3.53
-4.11
-4.44
-4.55
-4.49
-4.34
-4.19
-4.07
-4.00
-3.96
-3.91
-3.83
-3.65
-3.29
-2.70
-1.83
-0.73
0.48
1.68
2.76
3.64
4.33
4.86
5.23
5.46
5.57
5.58
5.53
5.51
5.57
5.75
5.99
6.21
6.27
6.08
5.61
4.92
4.09
3.20
2.26
1.26
0.20
-0.87
-1.84
-2.60
-3.10
-3.43
-3.74
-4.13
-4.60
-4.98
-5.03
-4.53
-3.48
-2.03
-0.49
0.86
1.91
2.73
3.58
4.68
6.11
7.73
9.26
10.34
10.72
10.34
9.26
7.65
5.73
3.78
2.06
0.80
0.15
0.10
0.52
1.16
1.78
2.14
2.15
1.83
1.30
0.72
0.25
-0.03
-0.13
-0.15
-0.19
-0.29
-0.43
-0.55
-0.62
-0.68
-0.87
-1.30
-2.05
-3.05
-4.12
-5.05
-5.58
-5.58
-4.99
-3.91
-2.53
-1.09
0.17
1.08
1.59
1.72
1.59
1.37
1.23
1.29
1.52
1.76
1.70
1.06
-0.28
-2.15
-4.09
-5.55
-6.14
-5.80
-4.87
-3.94
-3.58
-4.10
-5.44
-7.16
-8.68
-9.44
-9.13
-7.79
-5.75
-3.49
-1.48
0.02
0.96
1.47
1.79
2.15
2.79
3.94
5.71
8.01
10.41
12.24
12.73
11.44
8.48
4.61
1.04
-1.06
-1.01
1.14
4.67
8.48
11.51
12.98
12.55
10.26
6.45
1.67
-3.45
-8.25
-12.14
-14.70
-15.74
-15.35
-13.83
-11.64
-9.28
-7.21
-5.74
-5.02
-4.94
-5.22
-5.40
-5.09
-4.05
-2.32
-0.24
1.69
2.98
3.39
3.02
2.28
1.71
1.78
2.69
4.32
6.30
8.15
9.44
9.85
9.22
7.48
4.73
1.26
-2.43
-5.68
-7.89
-8.68
-8.10
-6.59
-4.81
-3.39
-2.71
-2.83
-3.52
-4.51
-5.51
-6.39
-7.07
-7.48
-7.54
-7.17
-6.36
-5.22
-3.89
-2.49
-1.03
0.60
2.46
4.47
6.35
7.74
8.34
8.15
7.41
6.48
5.66
4.96
4.24
3.36
2.34
1.47
1.14
1.55
2.62
3.94
4.98
5.33
4.86
3.75
2.39
1.16
0.26
-0.28
-0.64
-1.01
-1.52
-2.16
-2.77
-3.17
-3.21
-2.90
-2.37
-1.84
-1.50
-1.46
-1.68
-2.02
-2.30
-2.34
-2.10
-1.69
-1.37
-1.43
-2.04
-3.20
-4.67
-6.09
-7.15
-7.67
-7.70
-7.42
-7.02
-6.65
-6.31
-5.94
-5.44
-4.74
-3.83
-2.76
-1.61
-0.52
0.44
1.24
1.95
2.70
3.60
4.71
5.97
7.25
8.44
9.39
10.02
10.23
9.98
9.24
8.10
6.72
5.35
4.24
3.53
3.21
3.14
3.11
2.92
2.41
1.55
0.38
-0.99
-2.36
-3.48
-4.08
-3.98
-3.10
-1.57
0.39
2.43
4.22
5.54
6.28
6.50
6.36
6.05
5.74
5.47
5.20
4.80
4.20
3.41
2.52
1.65
0.80
-0.08
-1.13
-2.42
-3.93
-5.54
-7.07
-8.38
-9.34
-9.89
-10.05
-9.87
-9.44
-8.93
-8.47
-8.17
-8.07
-8.18
-8.49
-9.05
-9.87
-10.86
-11.85
-12.53
-12.61
-11.94
-10.56
-8.68
-6.58
-4.51
-2.59
-0.85
0.78
2.45
4.27
6.33
8.58
10.84
12.73
13.84
13.83
12.60
10.42
7.85
5.64
4.43
4.53
5.84
7.80
9.61
10.46
9.83
7.69
4.49
1.00
-1.95
-3.81
-4.48
-4.26
-3.72
-3.37
-3.50
-4.03
-4.65
-4.95
-4.67
-3.78
-2.45
-0.98
0.39
1.50
2.33
2.87
3.16
3.16
2.89
2.36
1.69
1.02
0.48
0.15
0.03
0.07
0.18
0.33
0.54
0.89
1.45
2.18
2.91
3.30
2.97
1.65
-0.62
-3.45
-6.17
-8.09
-8.75
-8.07
-6.38
-4.26
-2.34
-1.11
-0.81
-1.42
-2.72
-4.31
-5.76
-6.66
-6.73
-5.94
-4.47
-2.71
-1.08
0.10
0.69
0.80
0.68
0.68
1.11
2.10
3.53
5.01
6.02
6.06
4.92
2.87
0.60
-1.03
-1.34
-0.23
1.81
3.87
5.05
4.86
3.41
1.27
-0.82
-2.32
-3.04
-3.14
-2.95
-2.75
-2.64
-2.58
-2.41
-2.02
-1.38
-0.55
0.30
1.08
1.71
2.24
2.74
3.25
3.73
4.02
3.98
3.48
2.57
1.42
0.26
-0.64
-1.09
-0.95
-0.20
1.11
2.77
4.45
5.76
6.34
6.06
5.04
3.60
2.09
0.68
-0.70
-2.28
-4.18
-6.28
-8.19
-9.41
-9.65
-8.96
-7.75
-6.51
-5.64
-5.20
-5.02
-4.81
-4.38
-3.70
-2.82
-1.84
-0.80
0.22
1.11
1.69
1.78
1.29
0.35
-0.70
-1.39
-1.29
-0.19
1.80
4.23
6.41
7.67
7.55
5.98
3.36
0.42
-2.03
-3.41
-3.56
-2.79
-1.66
-0.73
-0.30
-0.29
-0.34
-0.07
0.74
1.98
3.32
4.40
4.99
5.10
4.90
4.58
4.20
3.69
2.91
1.83
0.56
-0.62
-1.36
-1.43
-0.82
0.28
1.52
2.53
3.09
3.15
2.85
2.40
2.01
1.76
1.63
1.50
1.29
1.02
0.76
0.67
0.81
1.19
1.70
2.15
2.37
2.19
1.49
0.25
-1.45
-3.38
-5.26
-6.77
-7.71
-8.07
-7.99
-7.74
-7.56
-7.59
-7.84
-8.26
-8.73
-9.13
-9.33
-9.22
-8.65
-7.52
-5.81
-3.60
-1.08
1.46
3.71
5.40
6.41
6.78
6.71
6.47
6.29
6.28
6.38
6.43
6.25
5.77
5.03
4.15
3.32
2.62
2.11
1.77
1.58
1.50
1.51
1.57
1.61
1.57
1.41
1.17
0.92
0.72
0.57
0.42
0.23
-0.02
-0.30
-0.49
-0.48
-0.21
0.31
0.99
1.68
2.25
2.55
2.51
2.17
1.68
1.23
0.99
1.06
1.39
1.85
2.24
2.40
2.30
2.02
1.70
1.47
1.45
1.73
2.29
2.96
3.43
3.37
2.51
0.73
-1.81
-4.59
-6.85
-7.87
-7.31
-5.30
-2.32
1.08
4.48
7.23
8.71
8.70
7.51
5.56
3.10
0.30
-2.52
-4.96
-6.71
-7.58
-7.65
-7.06
-6.07
-4.91
-3.77
-2.71
-1.81
-1.20
-1.05
-1.63
-2.95
-4.88
-7.18
-9.57
-11.58
-12.82
-13.01
-11.91
-9.37
-5.35
-0.11
5.82
11.75
17.25
22.02
25.91
28.90
31.11
32.78
34.13
35.10
34.09
30.10
23.39
15.56
8.61
3.83
1.58
1.31
1.82
2.05
1.61
0.62
-0.49
-1.35
-1.89
-2.29
-2.60
-2.95
-3.44
-3.90
-4.22
-4.36
-4.45
-4.85
-5.80
-7.32
-9.32
-11.73
-14.55
-18.18
-23.19
-28.93
-34.67
-39.60
-42.98
-44.09
-42.46
-38.19
-32.40
-26.86
-23.40
-23.50
-27.57
-34.62
-42.51
-48.45
-49.70
-44.60
-32.97
-16.34
2.38
19.92
33.66
42.33
45.96
45.96
43.21
38.62
33.12
27.69
23.30
20.73
20.19
21.22
22.98
24.38
24.73
23.98
22.53
21.07
20.28
20.52
20.98
20.84
18.75
13.55
4.98
-5.82
-16.45
-24.11
-26.77
-24.11
-17.49
-9.39
-2.18
2.85
5.61
6.78
7.14
7.08
6.60
5.69
4.40
3.09
2.11
1.75
1.81
1.91
1.69
0.95
-0.16
-1.37
-2.34
-2.82
-2.82
-2.53
-2.24
-2.23
-2.60
-3.22
-3.87
-4.26
-4.25
-3.82
-3.15
-2.42
-1.79
-1.33
-1.03
-0.89
-0.91
-1.12
-1.49
-1.95
-2.35
-2.55
-2.45
-2.08
-1.50
-0.81
-0.06
0.75
1.65
2.74
4.09
5.73
7.62
9.57
11.32
12.55
13.00
12.58
11.40
9.71
7.83
6.06
4.64
3.66
3.06
2.60
1.99
0.92
-0.70
-2.69
-4.67
-6.17
-6.92
-6.97
-6.71
-6.60
-6.98
-7.92
-9.14
-10.25
-10.92
-10.99
-10.53
-9.68
-8.55
-7.17
-5.55
-3.77
-1.97
-0.38
0.79
1.44
1.67
1.80
2.21
3.12
4.40
5.62
6.20
5.66
3.83
1.03
-2.03
-4.46
-5.75
-5.84
-5.06
-3.91
-2.88
-2.42
-2.70
-3.63
-4.79
-5.81
-6.24
-5.67
-3.84
-0.91
2.30
4.91
6.36
6.66
5.73
3.61
0.24
-4.19
-9.16
-14.25
-18.52
-21.80
-22.71
-20.53
-15.78
-10.03
-5.36
-3.06
-4.52
-9.89
-18.01
-26.78
-34.09
-37.80
-35.61
-25.38
-4.65
24.13
53.40
73.95
80.03
71.33
52.37
30.04
10.75
-1.82
-7.65
-8.75
-7.35
-4.86
-2.07
0.31
1.43
0.47
-3.01
-8.70
-14.92
-19.00
-18.61
-13.07
-3.73
6.72
15.38
20.27
20.69
17.42
12.18
6.77
2.40
-0.45
-1.78
-1.82
-0.94
0.30
1.45
2.27
2.74
2.98
3.17
3.45
3.80
4.03
3.81
2.88
1.24
-0.78
-2.65
-3.82
-3.94
-3.00
-1.34
0.49
2.00
2.96
3.44
3.76
4.29
5.25
6.67
8.42
10.31
12.21
14.08
15.93
17.71
19.16
19.79
19.12
16.92
13.48
9.63
6.54
5.09
5.55
7.29
9.03
9.40
7.86
4.42
-0.82
-8.11
-18.22
-31.20
-45.92
-60.22
-71.75
-79.05
-82.30
-83.16
-83.57
-84.74
-85.91
-84.66
-78.13
-64.68
-45.06
-22.54
-2.27
12.82
21.07
23.02
20.92
17.61
15.36
15.22
17.08
20.14
23.52
26.17
27.07
25.28
20.15
11.78
1.13
-9.87
-18.84
-23.46
-22.23
-14.68
-1.85
13.86
29.24
41.12
47.29
47.13
41.74
33.29
24.41
17.30
13.25
12.42
14.03
16.84
19.76
22.19
24.06
25.73
27.58
29.55
30.99
31.04
29.26
26.07
22.55
19.50
16.87
13.70
8.96
2.68
-3.63
-7.59
-7.27
-2.40
5.18
12.32
15.94
14.43
8.28
-0.18
-7.61
-10.72
-7.25
3.32
19.55
38.27
55.32
66.56
68.98
61.64
45.92
25.07
3.18
-15.78
-28.70
-33.93
-31.78
-24.46
-15.11
-6.90
-2.21
-2.56
-8.33
-18.76
-32.20
-46.61
-59.77
-69.49
-74.05
-72.97
-68.25
-63.29
-61.16
-62.93
-67.08
-70.11
-67.87
-57.38
-38.00
-10.63
19.69
46.58
66.69
81.04
92.07
100.53
104.86
105.48
100.28
88.88
73.50
57.79
44.75
35.41
28.87
22.87
16.14
7.95
-1.16
-9.79
-16.44
-20.40
-22.02
-22.19
-21.70
-20.99
-20.66
-21.00
-21.84
-22.66
-22.95
-22.46
-21.19
-19.29
-16.82
-14.09
-11.20
-8.25
-5.49
-3.46
-2.67
-2.99
-3.36
-1.91
2.91
11.62
23.22
35.45
45.71
52.42
55.95
58.61
63.70
73.78
89.43
108.81
128.47
144.87
155.89
161.44
163.04
162.83
162.41
162.43
162.77
163.08
163.26
163.33
163.08
161.47
156.97
148.27
135.12
118.82
101.57
85.36
70.51
55.58
38.36
17.73
-5.11
-27.15
-45.60
-60.20
-73.93
-91.52
-116.18
-146.87
-177.93
-201.61
-212.05
-208.35
-194.75
-178.15
-164.52
-156.27
-152.23
-149.55
-146.22
-142.42
-140.15
-141.81
-148.50
-159.16
-171.17
-181.54
-188.03
-189.61
-186.34
-178.46
-166.03
-148.88
-127.03
-101.60
-75.19
-51.51
-34.32
-26.19
-27.47
-35.98
-47.29
-56.00
-57.54
-50.20
-36.37
-22.44
-16.92
-26.51
-52.63
-89.83
-127.26
-152.68
-157.19
-138.65
-101.93
-56.60
-13.31
19.03
34.79
31.91
11.75
-20.89
-58.25
-90.97
-110.16
-110.06
-89.97
-54.25
-10.46
33.34
70.97
99.19
117.52
127.35
130.90
130.65
128.90
127.51
127.22
127.50
126.85
123.69
117.26
108.12
97.87
88.28
80.41
74.15
68.48
61.98
53.63
43.21
31.25
18.73
6.84
-3.31
-10.56
-13.67
-11.70
-4.75
5.46
15.72
22.42
23.15
17.96
9.40
1.32
-3.08
-2.63
1.63
7.50
13.17
17.87
21.75
24.95
26.99
26.80
23.49
17.34
10.05
4.32
2.76
6.62
15.03
25.09
33.16
36.34
33.91
27.52
20.21
14.60
11.74
10.96
10.80
10.17
8.77
6.73
3.97
-0.02
-5.57
-11.71
-15.72
-14.03
-4.06
13.56
34.79
53.56
64.48
65.17
56.99
43.84
29.73
16.62
3.44
-11.71
-29.39
-47.79
-63.51
-73.17
-75.18
-70.38
-61.53
-53.09
-48.03
-46.79
-47.87
-49.69
-51.39
-52.93
-54.49
-56.08
-59.19
-64.27
-70.25
-75.44
-79.13
-81.93
-85.09
-89.83
-96.98
-109.07
-126.96
-148.73
-170.38
-187.72
-197.19
-196.01
-182.48
-143.13
-77.11
1.91
74.31
128.10
162.09
181.23
191.13
195.49
195.91
190.73
179.70
165.44
152.41
144.03
141.65
144.18
148.70
151.22
146.24
130.75
106.07
78.15
51.81
31.03
17.54
10.67
8.13
6.27
3.03
-1.11
-4.04
-4.20
-1.39
2.98
6.85
8.63
7.51
4.26
0.90
-0.48
0.85
4.13
7.26
8.02
4.87
-2.62
-13.46
-25.63
-36.83
-45.15
-49.30
-49.05
-44.81
-37.65
-29.17
-21.32
-15.89
-13.65
-13.84
-14.38
-13.32
-9.28
-2.29
6.15
13.70
18.15
18.80
16.82
14.45
12.98
13.21
15.01
17.37
18.46
15.77
6.97
-9.36
-33.47
-65.02
-101.06
-136.58
-165.62
-182.93
-185.56
-172.66
-144.77
-98.63
-38.00
27.16
83.87
122.09
141.03
144.02
135.58
121.11
105.80
90.58
76.98
65.88
57.56
50.62
43.95
37.32
31.50
27.13
23.33
19.43
15.20
11.18
8.11
6.30
5.65
5.84
6.40
6.20
4.83
2.34
-0.81
-4.12
-7.14
-9.46
-10.64
-10.53
-9.65
-8.57
-7.96
-7.82
-8.18
-8.92
-9.75
-10.28
-10.25
-9.67
-8.58
-7.09
-5.33
-3.55
-1.98
-0.98
-0.85
-1.71
-3.37
-5.29
-6.80
-7.29
-6.42
-4.11
-0.79
2.86
6.24
9.07
11.47
13.75
16.14
18.59
20.83
22.08
21.58
19.13
15.25
10.99
7.26
4.29
1.60
-1.61
-6.45
-13.50
-22.63
-33.11
-44.04
-55.05
-66.40
-78.66
-89.16
-95.28
-95.89
-92.64
-88.84
-86.76
-85.90
-83.22
-74.36
-55.79
-27.24
7.41
41.00
65.81
77.03
74.87
64.29
52.70
46.04
45.70
48.79
50.84
49.02
43.56
36.65
30.13
25.08
21.00
17.25
13.81
11.24
10.03
9.86
9.44
7.22
3.61
1.04
3.40
13.28
30.01
49.32
64.65
70.53
62.91
41.74
10.35
-25.75
-60.53
-88.73
-106.12
-109.78
-96.70
-70.29
-36.97
-4.59
19.93
33.61
36.29
30.89
22.07
14.22
9.48
8.50
10.48
13.64
16.77
19.25
21.25
23.16
25.71
28.13
29.79
30.20
29.22
27.15
24.27
20.80
16.76
12.12
6.87
1.67
-2.60
-5.23
-6.02
-6.48
-9.77
-19.49
-37.29
-60.40
-81.56
-92.79
-89.63
-73.09
-48.76
-23.54
-2.36
13.24
24.18
31.70
35.71
35.14
29.66
20.90
12.26
7.21
7.35
11.59
17.14
21.02
21.78
19.83
16.81
14.40
13.52
14.21
16.02
18.29
20.50
22.46
24.23
26.03
27.90
29.61
30.82
31.29
31.08
30.62
30.56
31.17
32.81
35.56
38.90
41.65
42.13
38.62
30.05
16.57
-0.44
-18.77
-36.41
-52.14
-65.64
-76.89
-85.58
-90.82
-91.54
-87.23
-78.49
-67.12
-55.33
-44.80
-36.01
-28.52
-21.62
-14.96
-8.68
-3.15
1.28
4.61
7.19
9.47
11.45
12.66
12.42
10.43
7.10
3.40
0.53
-0.53
0.65
3.51
6.71
8.58
7.66
3.12
-5.26
-17.05
-31.30
-45.02
-54.63
-57.32
-52.71
-42.77
-30.33
-17.75
-6.37
3.38
11.92
19.85
27.59
35.05
41.57
46.14
47.80
46.28
42.26
37.21
32.52
28.87
26.11
23.68
21.35
19.00
16.93
15.48
14.72
14.28
13.54
11.99
9.61
6.82
4.21
2.33
1.46
1.55
2.33
3.33
4.06
4.18
3.59
2.41
0.98
-0.28
-1.08
-1.22
-0.77
0.04
0.90
1.59
1.99
2.06
1.81
1.18
0.09
-1.48
-3.44
-5.53
-7.39
-8.74
-9.49
-9.77
-9.90
-10.17
-10.72
-11.48
-12.19
-12.58
-12.51
-12.00
-11.22
-10.37
-9.56
-8.79
-7.98
-7.05
-6.00
-4.93
-3.95
-3.18
-2.63
-2.25
-1.89
-1.40
-0.66
0.42
1.91
3.88
6.33
9.12
11.89
14.15
15.40
15.37
14.14
12.17
10.08
8.39
7.35
6.88
6.64
6.29
5.57
4.42
2.94
1.31
-0.24
-1.52
-2.34
-2.63
-2.38
-1.69
-0.77
0.11
0.61
0.44
-0.54
-2.24
-4.30
-6.16
-7.28
-7.34
-6.38
-4.77
-3.10
-1.86
-1.34
-1.48
-1.95
-2.35
-2.26
-1.39
0.44
3.17
6.50
9.78
12.14
12.73
11.10
7.40
2.49
-2.39
-6.08
-7.93
-7.95
-6.75
-5.11
-3.67
-2.73
-2.30
-2.23
-2.39
-2.66
-2.99
-3.26
-3.33
-3.06
-2.42
-1.53
-0.71
-0.30
-0.60
-1.71
-3.46
-5.48
-7.30
-8.55
-9.08
-8.97
-8.50
-7.96
-7.55
-7.33
-7.24
-7.17
-7.04
-6.83
-6.49
-5.97
-5.18
-4.02
-2.53
-0.84
0.76
2.02
2.78
3.06
3.04
2.93
2.86
2.86
2.84
2.72
2.46
2.12
1.85
1.71
1.72
1.78
1.77
1.64
1.41
1.19
1.12
1.25
1.54
1.83
2.00
1.99
1.84
1.70
1.68
1.85
2.13
2.39
2.51
2.43
2.19
1.89
1.63
1.46
1.42
1.54
1.83
2.31
2.91
3.49
3.92
4.07
3.96
3.67
3.34
3.08
2.92
2.82
2.69
2.44
2.03
1.44
0.70
-0.08
-0.78
-1.29
-1.56
-1.65
-1.69
-1.84
-2.15
-2.59
-2.99
-3.19
-3.07
-2.58
-1.77
-0.75
0.32
1.25
1.88
2.11
1.93
1.40
0.66
-0.16
-0.92
-1.55
-1.95
-2.12
-2.09
-1.99
-1.95
-2.14
-2.58
-3.15
-3.60
-3.71
-3.36
-2.63
-1.75
-0.99
-0.51
-0.33
-0.35
-0.42
-0.43
-0.35
-0.21
-0.06
0.04
0.04
-0.12
-0.47
-1.04
-1.80
-2.68
-3.57
-4.35
-4.92
-5.17
-5.08
-4.66
-4.05
-3.43
-3.02
-2.93
-3.19
-3.71
-4.36
-5.06
-5.82
-6.67
-7.65
-8.75
-9.88
-10.92
-11.83
-12.62
-13.38
-14.22
-15.20
-16.33
-17.53
-18.72
-19.81
-20.77
-21.57
-22.21
-22.66
-22.81
-22.60
-21.99
-21.05
-19.99
-18.97
-18.10
-17.24
-16.13
-14.44
-11.95
-8.64
-4.63
-0.16
4.61
9.49
14.28
18.70
22.42
25.20
27.04
28.22
29.19
30.40
32.10
34.22
36.44
38.37
39.73
40.44
40.63
40.55
40.39
40.23
40.00
39.57
38.79
37.61
36.11
34.43
32.68
30.89
28.91
26.47
23.32
19.35
14.73
9.82
5.09
0.87
-2.77
-5.97
-8.97
-11.86
-14.58
-16.88
-18.56
-19.53
-19.85
-19.68
-19.20
-18.56
-17.94
-17.55
-17.62
-18.24
-19.24
-20.18
-20.48
-19.61
-17.33
-13.74
-9.22
-4.29
0.58
4.99
8.65
11.35
12.88
13.18
12.32
10.57
8.33
6.02
3.98
2.34
1.08
0.12
-0.63
-1.18
-1.49
-1.55
-1.39
-1.08
-0.75
-0.47
-0.24
-0.03
0.20
0.46
0.70
0.81
0.70
0.37
-0.07
-0.49
-0.75
-0.81
-0.73
-0.58
-0.44
-0.33
-0.23
-0.16
-0.16
-0.31
-0.64
-1.10
-1.59
-2.01
-2.31
-2.54
-2.80
-3.17
-3.69
-4.32
-5.02
-5.70
-6.33
-6.85
-7.26
-7.56
-7.77
-7.91
-7.99
-8.00
-7.91
-7.68
-7.33
-6.86
-6.28
-5.61
-4.86
-4.12
-3.52
-3.17
-3.16
-3.48
-3.99
-4.55
-4.94
-5.01
-4.60
-3.68
-2.29
-0.61
1.08
2.50
3.46
3.98
4.28
4.60
5.18
6.07
7.19
8.38
9.48
10.39
11.06
11.49
11.68
11.64
11.37
10.89
10.21
9.39
8.49
7.60
6.78
6.06
5.41
4.78
4.13
3.43
2.73
2.12
1.65
1.34
1.13
0.91
0.59
0.12
-0.51
-1.21
-1.88
-2.43
-2.83
-3.05
-3.16
-3.23
-3.34
-3.56
-3.91
-4.32
-4.67
-4.88
-4.86
-4.64
-4.32
-4.01
-3.78
-3.63
-3.53
-3.45
-3.39
-3.43
-3.61
-3.92
-4.26
-4.49
-4.52
-4.35
-4.05
-3.70
-3.35
-2.96
-2.45
-1.79
-1.06
-0.38
0.08
0.24
0.14
-0.08
-0.28
-0.34
-0.25
-0.08
0.11
0.25
0.35
0.44
0.56
0.68
0.72
0.58
0.26
-0.18
-0.60
-0.83
-0.80
-0.54
-0.21
0.03
0.07
-0.09
-0.36
-0.64
-0.85
-1.02
-1.16
-1.32
-1.45
-1.52
-1.49
-1.33
-1.10
-0.79
-0.43
-0.00
0.46
0.90
1.21
1.30
1.15
0.84
0.47
0.17
-0.00
-0.01
0.12
0.35
0.64
0.91
1.08
1.05
0.81
0.41
-0.01
-0.30
-0.36
-0.25
-0.07
0.05
-0.00
-0.23
-0.60
-1.00
-1.37
-1.64
-1.77
-1.78
-1.71
-1.63
-1.60
-1.66
-1.79
-1.95
-2.05
-2.02
-1.86
-1.60
-1.33
-1.12
-1.01
-0.94
-0.83
-0.58
-0.18
0.30
0.68
0.83
0.70
0.41
0.17
0.14
0.38
0.78
1.16
1.38
1.42
1.36
1.30
1.33
1.41
1.50
1.54
1.49
1.38
1.21
1.01
0.78
0.51
0.22
-0.11
-0.48
-0.88
-1.31
-1.73
-2.09
-2.35
-2.47
-2.46
-2.32
-2.10
-1.86
-1.64
-1.47
-1.37
-1.27
-1.07
-0.70
-0.17
0.43
0.91
1.14
1.07
0.81
0.54
0.46
0.63
1.01
1.45
1.83
2.06
2.17
2.22
2.24
2.26
2.26
2.24
2.22
2.24
2.31
2.40
2.44
2.33
2.00
1.44
0.67
-0.23
-1.11
-1.87
-2.42
-2.73
-2.84
-2.86
-2.94
-3.16
-3.53
-3.94
-4.26
-4.37
-4.22
-3.90
-3.53
-3.26
-3.17
-3.26
-3.46
-3.64
-3.63
-3.30
-2.60
-1.60
-0.51
0.43
1.00
1.13
0.94
0.66
0.53
0.67
1.06
1.53
1.91
2.14
2.22
2.24
2.27
2.33
2.37
2.30
2.11
1.83
1.56
1.41
1.39
1.47
1.56
1.58
1.54
1.49
1.49
1.57
1.71
1.86
1.95
2.00
2.02
2.05
2.08
2.08
2.01
1.86
1.69
1.56
1.52
1.56
1.60
1.55
1.37
1.08
0.77
0.50
0.31
0.16
-0.01
-0.24
-0.48
-0.69
-0.79
-0.80
-0.81
-0.91
-1.15
-1.48
-1.80
-2.01
-2.07
-2.04
-1.98
-1.99
-2.05
-2.13
-2.13
-2.02
-1.81
-1.59
-1.41
-1.31
-1.25
-1.17
-1.04
-0.87
-0.72
-0.68
-0.81
-1.11
-1.51
-1.90
-2.17
-2.24
-2.08
-1.77
-1.40
-1.11
-1.00
-1.11
-1.40
-1.79
-2.19
-2.54
-2.79
-2.95
-3.06
-3.18
-3.38
-3.73
-4.21
-4.69
-5.02
-5.04
-4.75
-4.24
-3.67
-3.19
-2.83
-2.58
-2.36
-2.15
-1.97
-1.82
-1.66
-1.38
-0.88
-0.16
0.68
1.49
2.16
2.68
3.19
3.84
4.71
5.76
6.86
7.84
8.61
9.12
9.39
9.45
9.29
8.91
8.30
7.51
6.61
5.69
4.83
4.10
3.51
3.03
2.62
2.20
1.74
1.23
0.71
0.25
-0.05
-0.18
-0.16
-0.11
-0.15
-0.36
-0.74
-1.21
-1.63
-1.93
-2.04
-1.98
-1.78
-1.48
-1.14
-0.83
-0.61
-0.56
-0.72
-1.06
-1.49
-1.86
-2.03
-1.94
-1.61
-1.21
-0.90
-0.86
-1.12
-1.60
-2.13
-2.54
-2.71
-2.64
-2.43
-2.20
-2.06
-2.06
-2.20
-2.41
-2.61
-2.74
-2.78
-2.77
-2.76
-2.79
-2.83
-2.79
-2.57
-2.13
-1.53
-0.86
-0.28
0.13
0.38
0.55
0.70
0.86
0.99
1.03
0.95
0.80
0.66
0.59
0.62
0.74
0.89
1.04
1.17
1.26
1.28
1.18
0.95
0.61
0.21
-0.17
-0.48
-0.74
-0.93
-1.06
-1.11
-1.07
-0.93
-0.79
-0.71
-0.75
-0.91
-1.15
-1.38
-1.51
-1.48
-1.29
-0.91
-0.38
0.25
0.88
1.41
1.74
1.79
1.58
1.21
0.84
0.61
0.65
0.97
1.46
1.92
2.17
2.07
1.68
1.17
0.74
0.59
0.71
0.98
1.19
1.17
0.89
0.44
0.01
-0.25
-0.30
-0.22
-0.12
-0.11
-0.22
-0.42
-0.63
-0.78
-0.84
-0.81
-0.71
-0.59
-0.45
-0.30
-0.12
0.08
0.30
0.50
0.61
0.60
0.47
0.27
0.07
-0.07
-0.17
-0.25
-0.36
-0.48
-0.54
-0.46
-0.21
0.15
0.52
0.77
0.86
0.82
0.71
0.61
0.52
0.43
0.32
0.18
0.03
-0.09
-0.19
-0.29
-0.44
-0.66
-0.91
-1.13
-1.26
-1.30
-1.28
-1.30
-1.40
-1.57
-1.73
-1.78
-1.63
-1.26
-0.72
-0.13
0.39
0.76
0.94
0.97
0.93
0.88
0.91
1.01
1.16
1.26
1.24
1.08
0.81
0.55
0.38
0.37
0.52
0.76
1.03
1.23
1.32
1.28
1.15
0.97
0.79
0.63
0.49
0.37
0.24
0.10
-0.02
-0.11
-0.15
-0.16
-0.18
-0.21
-0.27
-0.32
-0.31
-0.18
0.11
0.55
1.09
1.61
1.99
2.15
2.11
1.91
1.68
1.52
1.49
1.56
1.71
1.84
1.91
1.85
1.68
1.42
1.18
1.05
1.07
1.23
1.42
1.51
1.39
1.04
0.57
0.12
-0.20
-0.36
-0.42
-0.46
-0.53
-0.60
-0.61
-0.53
-0.38
-0.27
-0.28
-0.46
-0.78
-1.15
-1.51
-1.81
-2.04
-2.21
-2.29
-2.24
-2.05
-1.75
-1.39
-1.06
-0.85
-0.76
-0.78
-0.85
-0.92
-0.93
-0.83
-0.60
-0.22
0.28
0.78
1.17
1.36
1.33
1.17
1.01
0.99
1.17
1.50
1.87
2.15
2.24
2.12
1.84
1.50
1.23
1.09
1.11
1.26
1.48
1.70
1.85
1.86
1.70
1.35
0.89
0.38
-0.02
-0.24
-0.25
-0.09
0.19
0.50
0.80
1.05
1.20
1.20
1.05
0.79
0.53
0.38
0.36
0.42
0.44
0.30
0.00
-0.36
-0.67
-0.82
-0.85
-0.83
-0.84
-0.90
-0.95
-0.90
-0.72
-0.51
-0.38
-0.46
-0.79
-1.25
-1.65
-1.83
-1.69
-1.30
-0.78
-0.32
-0.04
-0.01
-0.18
-0.46
-0.72
-0.87
-0.84
-0.64
-0.29
0.13
0.57
0.94
1.20
1.33
1.32
1.20
1.00
0.78
0.55
0.36
0.24
0.19
0.21
0.26
0.30
0.30
0.26
0.22
0.21
0.22
0.22
0.15
-0.01
-0.23
-0.44
-0.57
-0.62
-0.63
-0.69
-0.89
-1.24
-1.70
-2.20
-2.62
-2.87
-2.90
-2.68
-2.26
-1.72
-1.16
-0.70
-0.38
-0.19
-0.09
-0.01
0.10
0.24
0.33
0.34
0.21
-0.01
-0.28
-0.52
-0.70
-0.80
-0.85
-0.87
-0.84
-0.75
-0.58
-0.34
-0.10
0.06
0.09
-0.03
-0.28
-0.58
-0.90
-1.21
-1.51
-1.75
-1.90
-1.91
-1.76
-1.49
-1.18
-0.92
-0.74
-0.60
-0.42
-0.17
0.13
0.41
0.58
0.59
0.48
0.35
0.30
0.35
0.50
0.69
0.87
1.05
1.22
1.40
1.59
1.75
1.84
1.83
1.73
1.57
1.39
1.20
1.00
0.80
0.57
0.35
0.16
0.01
-0.10
-0.21
-0.33
-0.49
-0.66
-0.81
-0.90
-0.89
-0.81
-0.68
-0.57
-0.50
-0.45
-0.39
-0.30
-0.16
0.01
0.15
0.23
0.24
0.19
0.10
0.01
-0.05
-0.10
-0.12
-0.12
-0.14
-0.20
-0.30
-0.40
-0.44
-0.35
-0.12
0.15
0.37
0.41
0.27
-0.00
-0.31
-0.56
-0.74
-0.87
-1.00
-1.11
-1.20
-1.23
-1.18
-1.09
-0.98
-0.86
-0.69
-0.41
0.02
0.56
1.10
1.50
1.63
1.46
1.07
0.62
0.29
0.19
0.30
0.51
0.66
0.65
0.49
0.27
0.12
0.11
0.21
0.34
0.40
0.35
0.20
0.03
-0.10
-0.14
-0.13
-0.09
-0.09
-0.14
-0.26
-0.43
-0.63
-0.79
-0.89
-0.88
-0.76
-0.58
-0.42
-0.34
-0.33
-0.34
-0.29
-0.12
0.15
0.44
0.69
0.90
1.13
1.45
1.86
2.24
2.43
2.30
1.88
1.33
0.91
0.79
0.95
1.22
1.37
1.28
0.96
0.58
0.30
0.20
0.24
0.29
0.25
0.08
-0.19
-0.49
-0.79
-1.08
-1.40
-1.75
-2.07
-2.28
-2.31
-2.15
-1.87
-1.54
-1.25
-1.03
-0.85
-0.66
-0.42
-0.15
0.12
0.33
0.43
0.41
0.31
0.19
0.15
0.26
0.58
1.06
1.63
2.16
2.51
2.62
2.45
2.07
1.60
1.15
0.82
0.63
0.59
0.64
0.73
0.80
0.84
0.81
0.70
0.51
0.26
-0.03
-0.31
-0.53
-0.68
-0.75
-0.75
-0.69
-0.59
-0.42
-0.20
0.07
0.33
0.56
0.76
0.93
1.11
1.32
1.52
1.66
1.73
1.71
1.68
1.69
1.77
1.89
1.95
1.86
1.58
1.15
0.68
0.28
-0.01
-0.18
-0.30
-0.38
-0.45
-0.48
-0.48
-0.49
-0.59
-0.81
-1.15
-1.51
-1.78
-1.88
-1.84
-1.74
-1.70
-1.74
-1.83
-1.83
-1.64
-1.20
-0.58
0.08
0.60
0.88
0.90
0.71
0.42
0.14
-0.04
-0.07
0.03
0.22
0.39
0.49
0.48
0.38
0.28
0.22
0.26
0.37
0.48
0.54
0.52
0.46
0.43
0.50
0.65
0.81
0.88
0.77
0.52
0.24
0.04
0.05
0.23
0.52
0.76
0.87
0.82
0.62
0.37
0.14
-0.04
-0.12
-0.14
-0.13
-0.12
-0.12
-0.11
-0.03
0.16
0.43
0.71
0.84
0.75
0.46
0.10
-0.12
-0.03
0.37
0.96
1.49
1.71
1.54
1.00
0.32
-0.30
-0.67
-0.76
-0.65
-0.52
-0.47
-0.56
-0.70
-0.76
-0.65
-0.39
-0.09
0.11
0.09
-0.15
-0.54
-0.97
-1.31
-1.50
-1.52
-1.39
-1.15
-0.87
-0.59
-0.33
-0.06
0.28
0.72
1.29
1.91
2.46
2.83
2.99
2.97
2.88
2.81
2.79
2.79
2.76
2.66
2.55
2.49
2.51
2.61
2.70
2.64
2.37
1.85
1.16
0.39
-0.38
-1.06
-1.60
-1.92
-1.96
-1.71
-1.20
-0.58
-0.03
0.30
0.32
0.11
-0.17
-0.32
-0.21
0.16
0.68
1.17
1.51
1.65
1.65
1.58
1.51
1.44
1.34
1.13
0.78
0.31
-0.24
-0.83
-1.43
-2.02
-2.59
-3.10
-3.47
-3.59
-3.39
-2.86
-2.07
-1.21
-0.49
-0.09
-0.08
-0.39
-0.84
-1.23
-1.46
-1.54
-1.55
-1.63
-1.84
-2.17
-2.57
-2.91
-3.09
-3.08
-2.88
-2.54
-2.15
-1.76
-1.38
-1.03
-0.66
-0.28
0.07
0.31
0.38
0.25
0.00
-0.24
-0.40
-0.45
-0.48
-0.60
-0.89
-1.29
-1.68
-1.89
-1.85
-1.59
-1.22
-0.90
-0.73
-0.73
-0.84
-0.94
-0.97
-0.89
-0.69
-0.36
0.08
0.60
1.13
1.57
1.86
2.00
2.08
2.24
2.60
3.18
3.91
4.64
5.23
5.59
5.75
5.73
5.57
5.28
4.82
4.15
3.24
2.14
0.90
-0.40
-1.72
-3.01
-4.23
-5.32
-6.22
-6.88
-7.30
-7.55
-7.74
-7.99
-8.39
-8.99
-9.76
-10.64
-11.58
-12.45
-13.11
-13.38
-13.04
-11.96
-10.16
-7.79
-5.11
-2.43
0.01
2.07
3.66
4.78
5.46
5.76
5.76
5.60
5.44
5.41
5.60
5.98
6.42
6.76
6.84
6.58
6.00
5.21
4.40
3.73
3.34
3.27
3.50
3.95
4.48
4.94
5.20
5.15
4.78
4.18
3.47
2.82
2.31
1.96
1.74
1.59
1.43
1.26
1.07
0.89
0.73
0.57
0.41
0.25
0.07
-0.12
-0.32
-0.53
-0.72
-0.87
-0.95
-0.97
-0.97
-1.01
-1.13
-1.33
-1.54
-1.68
-1.69
-1.61
-1.53
-1.55
-1.74
-2.09
-2.50
-2.82
-2.99
-3.00
-2.91
-2.78
-2.64
-2.52
-2.38
-2.23
-2.10
-2.03
-2.01
-2.00
-1.93
-1.73
-1.43
-1.09
-0.83
-0.70
-0.71
-0.82
-0.94
-1.01
-1.00
-0.86
-0.57
-0.16
0.28
0.65
0.84
0.84
0.70
0.55
0.47
0.48
0.53
0.61
0.75
1.05
1.60
2.38
3.24
3.95
4.32
4.29
3.98
3.61
3.38
3.41
3.67
4.04
4.31
4.32
4.00
3.35
2.49
1.54
0.63
-0.15
-0.80
-1.37
-1.97
-2.73
-3.81
-5.27
-7.06
-9.01
-10.80
-12.09
-12.64
-12.40
-11.50
-10.18
-8.72
-7.30
-6.02
-4.88
-3.92
-3.16
-2.66
-2.39
-2.22
-1.96
-1.37
-0.36
1.00
2.44
3.64
4.36
4.56
4.37
4.05
3.85
3.90
4.21
4.63
4.96
5.02
4.71
4.10
3.42
3.00
3.12
3.87
5.10
6.45
7.53
8.09
8.11
7.75
7.28
6.90
6.69
6.65
6.75
6.95
7.19
7.36
7.30
6.83
5.86
4.45
2.75
1.00
-0.61
-1.94
-2.92
-3.53
-3.82
-3.87
-3.83
-3.85
-4.07
-4.54
-5.26
-6.11
-7.00
-7.87
-8.72
-9.54
-10.36
-11.13
-11.79
-12.22
-12.38
-12.26
-11.88
-11.26
-10.39
-9.25
-7.88
-6.50
-5.46
-5.13
-5.71
-7.02
-8.49
-9.35
-8.95
-7.07
-4.03
-0.57
2.54
4.74
5.94
6.37
6.42
6.39
6.42
6.55
6.74
7.09
7.65
8.48
9.47
10.40
10.99
11.04
10.55
9.69
8.78
8.15
8.04
8.58
9.72
11.25
12.83
14.05
14.52
14.06
12.75
10.99
9.38
8.55
8.87
10.36
12.62
14.99
16.72
17.18
16.02
13.26
9.30
4.89
0.90
-1.84
-2.89
-2.31
-0.70
1.08
2.19
2.11
0.79
-1.48
-4.25
-7.15
-9.95
-12.54
-14.80
-16.57
-17.62
-17.81
-17.16
-15.88
-14.27
-12.61
-11.10
-9.80
-8.70
-7.78
-7.01
-6.36
-5.74
-4.98
-3.94
-2.57
-0.93
0.82
2.53
4.15
5.65
7.02
8.11
8.63
8.20
6.48
3.40
-0.73
-5.27
-9.38
-12.31
-13.70
-13.58
-12.42
-10.82
-9.24
-7.86
-6.58
-5.15
-3.43
-1.46
0.52
2.27
3.63
4.60
5.32
5.94
6.50
6.95
7.17
7.09
6.75
6.29
5.92
5.82
6.03
6.48
6.95
7.16
6.85
5.82
4.06
1.71
-0.94
-3.50
-5.60
-6.98
-7.57
-7.39
-6.61
-5.38
-3.82
-2.10
-0.39
1.03
1.88
1.87
0.91
-0.83
-2.96
-4.96
-6.39
-7.07
-7.13
-6.97
-6.97
-7.32
-7.95
-8.56
-8.83
-8.65
-8.14
-7.56
-7.15
-7.00
-7.05
-7.10
-6.96
-6.44
-5.41
-3.77
-1.49
1.34
4.47
7.53
10.10
11.92
12.89
13.18
13.02
12.66
12.28
11.89
11.49
11.06
10.64
10.25
9.91
9.58
9.13
8.40
7.28
5.67
3.56
1.01
-1.89
-4.93
-7.88
-10.42
-12.23
-13.10
-12.96
-11.95
-10.39
-8.66
-7.13
-6.02
-5.38
-5.12
-5.04
-4.98
-4.83
-4.60
-4.34
-4.12
-3.94
-3.71
-3.30
-2.64
-1.75
-0.78
0.11
0.76
1.17
1.44
1.78
2.37
3.31
4.55
5.93
7.18
8.05
8.37
8.11
7.44
6.63
6.01
5.86
6.33
7.37
8.79
10.25
11.37
11.81
11.34
9.92
7.73
5.13
2.54
0.36
-1.14
-1.92
-2.10
-1.90
-1.61
-1.44
-1.55
-2.00
-2.74
-3.72
-4.83
-6.02
-7.21
-8.32
-9.22
-9.78
-9.84
-9.34
-8.33
-6.99
-5.56
-4.26
-3.23
-2.47
-1.93
-1.49
-1.00
-0.32
0.68
2.09
3.85
5.71
7.32
8.32
8.50
7.90
6.83
5.66
4.71
4.13
3.89
3.81
3.68
3.29
2.50
1.28
-0.26
-1.86
-3.18
-3.93
-4.01
-3.64
-3.24
-3.25
-3.90
-5.13
-6.57
-7.73
-8.19
-7.76
-6.46
-4.51
-2.22
0.11
2.19
3.83
4.89
5.35
5.25
4.74
4.02
3.28
2.63
2.14
1.79
1.51
1.25
0.98
0.72
0.50
0.39
0.41
0.53
0.69
0.77
0.69
0.36
-0.23
-1.06
-2.03
-3.00
-3.84
-4.43
-4.68
-4.53
-3.97
-3.04
-1.90
-0.76
0.14
0.58
0.49
-0.00
-0.62
-0.97
-0.69
0.39
2.18
4.29
6.23
7.53
7.96
7.56
6.61
5.51
4.57
3.99
3.77
3.84
4.07
4.38
4.66
4.82
4.71
4.17
3.11
1.59
-0.21
-1.98
-3.43
-4.42
-4.95
-5.24
-5.53
-6.04
-6.80
-7.72
-8.60
-9.27
-9.66
-9.82
-9.82
-9.71
-9.43
-8.90
-8.01
-6.79
-5.35
-3.92
-2.69
-1.80
-1.25
-0.95
-0.75
-0.52
-0.17
0.34
1.01
1.76
2.46
2.99
3.23
3.18
2.88
2.45
1.98
1.51
1.04
0.54
0.04
-0.34
-0.46
-0.22
0.35
1.03
1.53
1.59
1.11
0.20
-0.86
-1.75
-2.17
-1.97
-1.16
0.17
1.86
3.77
5.71
7.55
9.15
10.43
11.31
11.74
11.71
11.25
10.42
9.31
8.03
6.68
5.30
3.89
2.43
0.93
-0.61
-2.13
-3.57
-4.90
-6.09
-7.16
-8.09
-8.85
-9.41
-9.73
-9.78
-9.54
-8.90
-7.73
-5.88
-3.34
-0.29
2.83
5.49
7.20
7.73
7.16
5.87
4.41
3.31
2.92
3.31
4.28
5.45
6.43
6.95
6.97
6.61
6.09
5.56
5.09
4.64
4.18
3.72
3.36
3.20
3.29
3.60
3.96
4.13
3.86
2.96
1.38
-0.74
-3.10
-5.40
-7.43
-9.09
-10.43
-11.46
-12.15
-12.37
-12.01
-11.05
-9.70
-8.26
-7.10
-6.54
-6.85
-8.16
-10.54
-13.92
-17.98
-22.22
-25.92
-28.39
-29.12
-27.93
-25.08
-21.11
-16.75
-12.63
-9.20
-6.55
-4.51
-2.71
-0.71
1.83
5.04
8.84
12.95
16.95
20.42
23.02
24.59
25.15
24.87
24.04
22.98
21.98
21.25
20.85
20.64
20.39
19.78
18.60
16.81
14.63
12.43
10.64
9.52
9.04
8.85
8.43
7.29
5.29
2.61
-0.23
-2.64
-4.23
-4.91
-4.87
-4.40
-3.74
-2.93
-1.92
-0.65
0.83
2.35
3.71
4.75
5.41
5.70
5.60
4.96
3.54
1.13
-2.32
-6.54
-11.00
-15.09
-18.41
-20.94
-23.01
-25.09
-27.39
-29.80
-31.83
-32.97
-32.97
-31.87
-29.92
-27.25
-23.72
-19.04
-13.10
-6.21
0.77
6.67
10.47
11.66
10.46
7.68
4.50
2.16
1.64
3.41
7.31
12.55
17.85
21.81
23.25
21.60
17.06
10.56
3.56
-2.39
-6.03
-6.77
-4.89
-1.41
2.21
4.68
5.27
4.02
1.60
-1.03
-3.10
-4.27
-4.60
-4.40
-3.94
-3.34
-2.62
-1.75
-0.78
0.13
0.82
1.25
1.52
1.90
2.63
3.88
5.63
7.67
9.66
11.23
12.15
12.42
12.27
12.07
12.12
12.48
12.92
13.06
12.53
11.13
8.82
5.63
1.52
-3.55
-9.44
-15.64
-21.19
-24.99
-26.20
-24.63
-20.87
-15.96
-11.02
-6.79
-3.45
-0.76
1.69
4.13
6.52
8.50
9.66
9.72
8.68
6.87
4.81
3.05
2.04
1.93
2.65
3.91
5.33
6.57
7.41
7.81
7.88
7.79
7.73
7.79
7.89
7.81
7.22
5.81
3.46
0.30
-3.19
-6.38
-8.63
-9.58
-9.25
-8.03
-6.48
-5.01
-3.77
-2.57
-1.08
0.94
3.45
6.20
8.78
10.86
12.23
12.87
12.84
12.23
11.09
9.50
7.55
5.38
3.20
1.21
-0.38
-1.46
-2.00
-2.07
-1.85
-1.49
-1.08
-0.60
0.03
0.81
1.51
1.65
0.59
-2.13
-6.55
-12.12
-17.84
-22.61
-25.57
-26.35
-25.10
-22.28
-18.45
-14.14
-9.80
-5.82
-2.56
-0.35
0.62
0.35
-0.92
-2.78
-4.71
-6.27
-7.16
-7.29
-6.75
-5.72
-4.39
-2.84
-1.03
1.18
3.85
6.97
10.33
13.53
16.11
17.63
17.81
16.65
14.36
11.28
7.75
4.18
1.12
-0.72
-0.70
1.29
4.46
7.19
7.60
4.48
-2.04
-10.39
-18.22
-23.52
-25.39
-24.25
-21.31
-17.74
-14.19
-10.67
-6.93
-2.91
1.10
4.55
6.83
7.51
6.39
3.67
-0.11
-4.07
-7.05
-7.90
-5.90
-1.08
5.69
12.90
18.92
22.59
23.53
22.09
19.08
15.32
11.36
7.49
3.93
1.03
-0.80
-1.22
-0.25
1.62
3.51
4.63
4.65
3.97
3.60
4.65
7.80
12.90
18.97
24.58
28.41
29.62
27.97
23.71
17.39
9.68
1.37
-6.68
-13.60
-18.60
-21.23
-21.43
-19.62
-16.54
-13.17
-10.47
-9.11
-9.27
-10.60
-12.37
-13.91
-14.97
-15.72
-16.37
-16.60
-15.45
-11.70
-4.78
4.38
13.36
19.10
19.38
13.91
4.56
-5.57
-13.49
-17.58
-17.85
-15.41
-11.57
-7.19
-2.57
2.24
6.92
10.88
13.44
14.22
13.46
11.97
10.91
11.23
13.18
16.03
18.20
17.86
13.75
5.88
-4.30
-14.38
-21.98
-25.66
-25.40
-22.33
-18.02
-13.69
-9.94
-6.89
-4.58
-3.22
-3.11
-4.37
-6.73
-9.61
-12.21
-13.58
-12.69
-8.70
-1.29
8.73
19.28
27.44
30.56
27.51
19.34
8.84
-0.67
-6.81
-8.98
-8.19
-6.14
-4.12
-2.53
-1.05
0.82
3.17
5.63
7.64
8.78
9.11
9.01
8.94
9.22
9.93
11.03
12.43
13.82
14.63
13.98
10.94
5.09
-3.01
-11.72
-18.81
-22.40
-21.78
-17.77
-12.23
-7.20
-3.95
-2.66
-2.63
-3.00
-3.30
-3.61
-4.38
-5.93
-8.23
-11.02
-14.12
-17.65
-21.79
-26.10
-28.99
-27.90
-20.42
-5.90
13.50
33.12
47.49
52.73
48.13
36.28
21.54
7.93
-2.41
-9.46
-14.35
-18.02
-20.52
-21.07
-18.91
-14.05
-7.45
-0.67
4.86
8.45
10.21
10.88
11.26
11.79
12.43
12.87
12.82
12.20
11.07
9.38
6.81
2.88
-2.69
-9.64
-17.01
-23.35
-27.27
-27.98
-25.66
-21.38
-16.67
-12.84
-10.51
-9.42
-8.61
-7.03
-4.02
0.38
5.46
10.23
13.90
16.16
17.10
16.98
15.97
14.18
12.04
10.50
10.96
14.49
21.04
28.90
35.11
36.68
32.02
21.71
8.16
-5.60
-17.30
-26.21
-32.88
-38.21
-42.63
-45.83
-47.12
-46.06
-42.78
-37.77
-31.47
-23.95
-15.04
-4.71
6.58
17.78
27.50
34.51
38.17
38.53
36.32
32.58
28.37
24.49
21.27
18.67
16.27
13.58
10.23
6.09
1.35
-3.61
-8.33
-12.41
-15.58
-17.74
-18.89
-19.12
-18.60
-17.50
-16.02
-14.34
-12.56
-10.68
-8.64
-6.37
-3.91
-1.41
0.88
2.71
3.95
4.60
4.81
4.81
4.75
4.73
4.79
4.98
5.44
6.28
7.60
9.27
11.06
12.62
13.69
14.18
14.20
13.96
13.65
13.29
12.72
11.68
9.92
7.32
3.88
-0.27
-4.98
-10.06
-15.26
-20.22
-24.46
-27.46
-28.84
-28.47
-26.55
-23.61
-20.27
-17.13
-14.56
-12.64
-11.19
-9.93
-8.56
-6.90
-4.93
-2.74
-0.54
1.51
3.35
5.09
7.02
9.53
12.97
17.42
22.56
27.69
31.84
34.13
34.01
31.44
26.80
20.82
14.50
9.02
5.49
4.61
6.27
9.35
12.04
12.44
9.41
3.07
-5.30
-13.84
-20.96
-25.70
-27.72
-27.06
-23.93
-18.72
-12.16
-5.38
0.24
3.38
3.52
1.20
-2.18
-4.89
-5.66
-4.18
-1.18
1.86
3.38
2.65
0.05
-3.24
-5.96
-7.53
-8.21
-8.83
-9.68
-10.68
-11.21
-10.22
-6.95
-0.82
7.53
16.57
24.45
29.24
29.79
26.23
19.82
12.53
6.52
3.56
4.38
8.08
11.76
11.83
6.02
-5.48
-20.13
-34.14
-44.01
-47.78
-43.29
-31.65
-17.72
-6.91
-1.55
-0.52
-1.12
-1.36
-0.42
1.81
4.66
7.52
10.31
13.06
15.47
16.82
16.26
13.30
8.27
2.26
-2.72
-4.21
-0.54
7.90
18.50
27.39
31.16
28.29
19.49
7.36
-4.72
-14.05
-19.44
-21.22
-20.46
-18.15
-14.86
-10.92
-6.61
-2.23
1.91
5.47
8.33
10.56
12.30
13.64
14.36
14.08
12.62
10.20
7.55
5.53
4.69
4.75
4.55
2.55
-2.35
-10.07
-19.09
-26.98
-31.39
-31.06
-26.34
-18.92
-10.93
-4.04
1.05
4.49
6.74
8.08
8.38
7.33
4.79
1.05
-3.10
-6.69
-8.83
-9.00
-7.22
-4.01
-0.27
2.97
4.90
5.22
4.26
2.82
1.81
1.78
2.73
4.24
5.74
6.92
7.79
8.44
8.76
8.41
7.11
5.11
3.32
2.97
4.80
8.39
12.08
13.63
11.42
5.32
-3.17
-11.64
-17.99
-21.12
-21.14
-18.74
-14.60
-9.09
-2.66
3.76
8.56
9.95
6.90
-0.09
-8.76
-15.78
-18.05
-14.17
-5.17
5.84
14.80
18.44
15.53
7.30
-3.23
-12.56
-18.04
-18.58
-14.68
-7.89
-0.26
6.16
9.83
10.15
7.89
5.02
3.98
6.36
11.89
18.29
22.36
21.65
15.75
6.44
-3.27
-10.68
-14.47
-14.88
-13.04
-10.21
-7.23
-4.47
-2.08
0.00
2.05
4.52
7.73
11.46
14.79
16.31
14.82
9.98
2.60
-5.73
-13.37
-19.27
-23.21
-25.56
-26.83
-27.28
-26.93
-25.72
-23.71
-21.01
-17.51
-12.77
-6.18
2.50
12.55
22.29
29.57
32.75
31.48
26.89
20.96
15.51
11.37
8.26
5.22
1.50
-2.90
-7.20
-10.31
-11.56
-11.01
-9.43
-7.84
-6.95
-6.86
-7.15
-7.27
-6.92
-6.28
-5.84
-6.07
-7.05
-8.30
-8.98
-8.16
-5.28
-0.34
6.08
12.98
19.27
24.03
26.85
27.79
27.39
26.36
25.29
24.46
23.80
23.03
21.87
20.24
18.28
16.26
14.38
12.57
10.49
7.64
3.59
-1.78
-8.11
-14.66
-20.48
-24.81
-27.24
-27.83
-26.99
-25.21
-22.90
-20.23
-17.18
-13.75
-10.01
-6.23
-2.74
0.12
2.18
3.43
4.03
4.20
4.14
4.02
3.98
4.14
4.60
5.36
6.31
7.22
7.81
7.80
7.10
5.77
4.06
2.25
0.64
-0.55
-1.15
-1.10
-0.38
0.90
2.51
4.10
5.27
5.74
5.43
4.48
3.21
1.93
0.89
0.13
-0.39
-0.79
-1.11
-1.35
-1.49
-1.53
-1.56
-1.64
-1.82
-2.07
-2.35
-2.61
-2.81
-2.97
-3.12
-3.32
-3.63
-4.06
-4.58
-5.18
-5.73
-6.08
-6.12
-5.85
-5.45
-5.16
-5.16
-5.45
-6.01
-6.66
-7.23
-7.62
-7.92
-8.30
-8.96
-9.89
-10.97
-12.20
-13.48
-14.69
-15.70
-16.49
-17.16
-17.84
-18.58
-19.28
-20.03
-20.65
-20.76
-19.98
-18.18
-15.74
-13.56
-12.55
-11.69
-10.33
-8.12
-4.90
-0.35
5.90
13.88
23.02
32.42
40.89
46.93
49.46
48.17
43.66
37.24
30.90
25.29
20.75
17.16
14.01
10.97
8.16
6.03
5.02
5.15
5.86
6.43
5.99
3.67
-1.23
-8.93
-19.28
-31.45
-43.88
-54.66
-62.04
-65.27
-64.90
-62.24
-58.46
-53.89
-47.91
-39.62
-28.71
-15.99
-3.26
7.38
14.56
18.08
18.83
18.21
17.40
17.01
17.08
17.34
17.57
17.74
18.05
18.73
19.87
21.22
22.28
22.48
21.47
19.36
16.65
14.05
12.13
11.15
10.92
11.01
10.96
10.49
9.58
8.47
7.48
6.92
6.90
7.34
7.98
8.55
8.79
8.66
8.29
7.90
7.72
7.83
8.15
8.49
8.67
8.61
8.37
8.07
7.85
7.80
7.99
8.45
9.15
10.03
10.90
11.42
11.11
9.52
6.47
2.11
-3.10
-8.49
-13.38
-17.36
-20.33
-22.48
-24.16
-25.34
-25.78
-25.13
-23.08
-19.52
-14.67
-9.02
-3.25
1.88
6.07
9.23
11.32
12.38
12.56
11.96
10.90
9.79
9.04
9.47
11.61
15.27
19.56
23.41
25.86
26.87
27.19
25.33
21.12
15.58
9.97
4.72
0.89
-2.35
-5.21
-7.44
-8.79
-9.39
-9.26
-8.74
-8.20
-7.78
-7.58
-7.37
-7.09
-6.81
-6.41
-5.76
-4.91
-3.95
-2.94
-2.01
-1.12
-0.29
0.39
1.01
1.70
2.47
3.30
4.20
5.19
6.39
7.86
9.53
11.34
13.20
14.97
16.55
17.95
19.25
20.64
22.27
24.13
26.13
28.01
29.46
30.20
30.16
29.47
28.47
27.51
26.79
26.23
25.52
24.16
21.71
17.95
13.02
7.45
2.04
-2.33
-4.96
-5.56
-4.40
-2.40
-0.83
-0.99
-3.72
-9.14
-16.62
-25.06
-33.30
-40.44
-46.03
-49.94
-52.17
-52.70
-51.49
-48.64
-44.54
-39.88
-35.52
-32.23
-30.47
-30.25
-31.15
-32.48
-33.49
-33.58
-32.45
-30.15
-26.99
-23.39
-19.73
-16.27
-13.13
-10.38
-8.10
-6.38
-5.23
-4.55
-4.12
-3.63
-2.81
-1.59
-0.10
1.37
2.53
3.20
3.38
3.24
3.02
2.96
3.22
3.85
4.78
5.88
7.01
8.05
8.91
9.56
9.93
9.98
9.68
9.04
8.15
7.12
6.12
5.25
4.54
3.92
3.32
2.66
1.91
1.14
0.38
-0.34
-1.03
-1.73
-2.45
-3.10
-3.58
-3.78
-3.67
-3.31
-2.85
-2.41
-2.05
-1.70
-1.26
-0.69
-0.06
0.47
0.75
0.74
0.54
0.29
0.14
0.12
0.17
0.17
0.09
0.01
0.06
0.33
0.80
1.33
1.70
1.79
1.57
1.16
0.68
0.24
-0.12
-0.44
-0.76
-1.10
-1.47
-1.89
-2.38
-2.96
-3.59
-4.21
-4.74
-5.12
-5.44
-5.83
-6.45
-7.35
-8.45
-9.54
-10.37
-10.78
-10.76
-10.44
-10.03
-9.71
-9.54
-9.44
-9.27
-8.84
-8.05
-6.84
-5.27
-3.45
-1.47
0.53
2.50
4.41
6.28
8.20
10.24
12.38
14.51
16.41
17.86
18.74
19.11
19.23
19.42
19.88
20.62
21.40
21.89
21.76
20.88
19.27
17.19
14.97
13.04
11.86
11.83
13.14
15.62
18.76
21.72
23.69
24.08
22.79
20.14
16.64
12.75
8.70
4.55
0.30
-3.84
-7.49
-10.24
-11.88
-12.55
-12.69
-12.85
-13.38
-14.30
-15.30
-15.94
-15.91
-15.08
-13.62
-11.86
-10.13
-8.74
-7.82
-7.36
-7.22
-7.21
-7.13
-6.92
-6.61
-6.30
-6.12
-6.09
-6.14
-6.16
-6.06
-5.84
-5.58
-5.38
-5.27
-5.21
-5.03
-4.56
-3.68
-2.40
-0.85
0.75
2.18
3.26
3.96
4.37
4.58
4.70
4.74
4.71
4.62
4.53
4.54
4.74
5.16
5.68
6.18
6.49
6.56
6.39
6.04
5.58
5.04
4.43
3.79
3.15
2.56
2.03
1.53
0.99
0.34
-0.46
-1.37
-2.28
-3.09
-3.73
-4.20
-4.59
-4.98
-5.44
-5.94
-6.40
-6.73
-6.87
-6.83
-6.65
-6.36
-5.96
-5.39
-4.60
-3.61
-2.50
-1.40
-0.39
0.45
1.12
1.61
1.92
2.06
2.02
1.86
1.62
1.40
1.26
1.25
1.37
1.57
1.79
1.93
1.92
1.77
1.53
1.29
1.11
0.98
0.84
0.63
0.36
0.09
-0.08
-0.10
-0.03
0.03
-0.03
-0.27
-0.62
-0.98
-1.25
-1.41
-1.46
-1.44
-1.34
-1.15
-0.85
-0.48
-0.15
0.06
0.12
0.10
0.11
0.23
0.41
0.49
0.33
-0.11
-0.70
-1.19
-1.37
-1.20
-0.85
-0.58
-0.57
-0.85
-1.26
-1.57
-1.68
-1.59
-1.47
-1.48
-1.75
-2.27
-2.96
-3.70
-4.41
-5.06
-5.62
-6.09
-6.46
-6.68
-6.72
-6.56
-6.21
-5.73
-5.18
-4.63
-4.15
-3.77
-3.50
-3.37
-3.36
-3.41
-3.38
-3.13
-2.50
-1.45
-0.05
1.52
3.03
4.30
5.30
6.15
7.08
8.31
9.92
11.82
13.76
15.39
16.46
16.89
16.87
16.73
16.86
17.47
18.54
19.82
20.93
21.53
21.47
20.86
20.06
19.56
19.81
20.97
22.80
24.55
25.16
23.51
18.79
10.81
0.16
-11.85
-23.49
-32.97
-38.95
-40.98
-39.67
-36.58
-33.65
-32.53
-34.01
-37.74
-42.52
-46.75
-49.09
-48.84
-45.91
-40.43
-32.60
-22.62
-10.92
1.65
13.80
23.89
30.29
31.89
28.65
21.60
12.45
3.01
-5.24
-11.37
-14.94
-15.95
-14.57
-10.76
-4.47
4.09
14.26
25.12
35.84
45.92
55.11
61.51
63.19
59.30
50.78
39.71
28.05
17.17
7.78
0.10
-6.03
-10.65
-13.77
-15.47
-15.95
-15.62
-14.85
-13.95
-13.19
-12.72
-12.35
-11.74
-10.81
-9.36
-7.49
-5.45
-3.50
-1.87
-0.68
0.17
0.93
1.81
2.88
4.01
5.04
5.80
6.20
6.24
6.08
5.93
5.91
6.04
6.11
6.04
5.69
5.03
4.09
3.00
1.90
0.87
-0.04
-0.82
-1.45
-1.96
-2.34
-2.64
-2.91
-3.26
-3.74
-4.38
-5.14
-5.92
-6.61
-7.13
-7.43
-7.51
-7.47
-7.36
-7.20
-6.96
-6.56
-5.94
-5.12
-4.17
-3.20
-2.27
-1.38
-0.48
0.49
1.54
2.60
3.58
4.42
5.10
5.65
6.15
6.66
7.22
7.80
8.35
8.79
9.03
9.02
8.68
7.99
6.97
5.70
4.36
3.08
1.96
1.02
0.18
-0.65
-1.51
-2.36
-3.10
-3.62
-3.92
-4.10
-4.30
-4.64
-5.16
-5.74
-6.25
-6.55
-6.62
-6.50
-6.26
-5.93
-5.49
-4.92
-4.26
-3.59
-3.08
-2.84
-2.94
-3.31
-3.85
-4.42
-4.96
-5.40
-5.76
-6.08
-6.45
-7.00
-7.89
-9.22
-11.00
-13.15
-15.50
-17.77
-19.71
-21.13
-21.93
-22.15
-21.93
-21.40
-20.67
-19.80
-18.74
-17.49
-16.09
-14.67
-13.37
-12.31
-11.47
-10.73
-9.94
-8.98
-7.80
-6.41
-4.84
-3.08
-1.06
1.26
3.86
6.59
9.25
11.61
13.48
14.82
15.68
16.20
16.54
16.81
17.07
17.28
17.42
17.43
17.27
16.93
16.44
15.86
15.22
14.56
13.87
13.16
12.40
11.60
10.78
9.97
9.21
8.50
7.80
7.07
6.28
5.44
4.64
3.94
3.41
3.01
2.66
2.25
1.73
1.11
0.49
-0.02
-0.33
-0.44
-0.40
-0.34
-0.35
-0.50
-0.77
-1.07
-1.33
-1.46
-1.43
-1.23
-0.95
-0.69
-0.55
-0.59
-0.79
-1.03
-1.19
-1.14
-0.89
-0.49
-0.10
0.18
0.30
0.28
0.19
0.06
-0.09
-0.27
-0.43
-0.55
-0.57
-0.48
-0.31
-0.14
-0.05
-0.11
-0.32
-0.67
-1.08
-1.46
-1.71
-1.74
-1.54
-1.17
-0.73
-0.34
-0.06
0.14
0.30
0.51
0.74
0.96
1.09
1.11
1.01
0.85
0.70
0.61
0.58
0.56
0.48
0.27
-0.07
-0.49
-0.91
-1.24
-1.43
-1.50
-1.49
-1.46
-1.42
-1.35
-1.18
-0.92
-0.65
-0.47
-0.49
-0.73
-1.06
-1.28
-1.22
-0.79
-0.06
0.78
1.50
1.95
2.06
1.87
1.46
0.95
0.46
0.09
-0.10
-0.06
0.15
0.47
0.80
1.05
1.19
1.21
1.16
1.08
1.00
0.93
0.84
0.67
0.42
0.09
-0.26
-0.53
-0.64
-0.59
-0.40
-0.15
0.09
0.26
0.33
0.27
0.06
-0.33
-0.86
-1.46
-2.01
-2.36
-2.46
-2.34
-2.11
-1.89
-1.75
-1.64
-1.44
-1.08
-0.58
-0.07
0.27
0.36
0.26
0.14
0.18
0.43
0.79
1.08
1.17
1.05
0.86
0.74
0.79
0.95
1.10
1.12
0.99
0.83
0.77
0.91
1.19
1.45
1.55
1.43
1.14
0.83
0.60
0.50
0.46
0.41
0.29
0.13
0.00
-0.07
-0.07
-0.06
-0.12
-0.25
-0.43
-0.61
-0.72
-0.75
-0.72
-0.64
-0.52
-0.34
-0.12
0.13
0.30
0.33
0.15
-0.18
-0.54
-0.76
-0.73
-0.41
0.09
0.62
1.02
1.21
1.18
1.04
0.87
0.75
0.73
0.76
0.82
0.86
0.87
0.85
0.83
0.83
0.82
0.82
0.79
0.74
0.67
0.58
0.50
0.43
0.40
0.46
0.61
0.83
1.05
1.16
1.08
0.80
0.39
-0.00
-0.27
-0.34
-0.23
-0.01
0.22
0.39
0.46
0.44
0.33
0.13
-0.18
-0.58
-1.03
-1.48
-1.85
-2.07
-2.13
-2.05
-1.88
-1.68
-1.51
-1.40
-1.35
-1.34
-1.31
-1.25
-1.11
-0.91
-0.65
-0.40
-0.22
-0.11
-0.05
0.02
0.14
0.32
0.51
0.65
0.69
0.67
0.63
0.64
0.74
0.86
0.93
0.88
0.69
0.44
0.21
0.08
0.06
0.15
0.32
0.53
0.72
0.84
0.84
0.71
0.51
0.30
0.16
0.12
0.17
0.28
0.39
0.46
0.48
0.43
0.31
0.11
-0.14
-0.43
-0.71
-0.98
-1.27
-1.55
-1.75
-1.78
-1.57
-1.14
-0.60
-0.13
0.15
0.22
0.17
0.17
0.34
0.67
1.06
1.37
1.47
1.35
1.08
0.76
0.53
0.41
0.42
0.48
0.55
0.60
0.61
0.57
0.47
0.31
0.10
-0.10
-0.22
-0.20
-0.04
0.22
0.47
0.61
0.60
0.47
0.27
0.10
0.01
-0.01
0.01
0.02
0.00
-0.05
-0.12
-0.23
-0.39
-0.66
-1.07
-1.58
-2.08
-2.42
-2.46
-2.15
-1.57
-0.89
-0.32
0.00
0.07
-0.02
-0.13
-0.16
-0.11
-0.04
-0.06
-0.16
-0.33
-0.44
-0.44
-0.31
-0.14
0.00
0.10
0.17
0.30
0.50
0.74
0.92
0.97
0.86
0.62
0.32
0.04
-0.16
-0.27
-0.27
-0.18
-0.04
0.13
0.25
0.29
0.21
0.00
-0.30
-0.64
-0.93
-1.12
-1.14
-1.05
-0.96
-1.00
-1.29
-1.81
-2.41
-2.89
-3.08
-2.91
-2.46
-1.89
-1.36
-0.96
-0.69
-0.48
-0.26
0.03
0.42
0.88
1.36
1.77
2.01
2.01
1.78
1.38
0.94
0.56
0.30
0.18
0.18
0.30
0.53
0.84
1.14
1.35
1.38
1.23
0.95
0.66
0.45
0.34
0.32
0.32
0.32
0.31
0.30
0.31
0.31
0.28
0.19
0.04
-0.15
-0.31
-0.42
-0.46
-0.48
-0.54
-0.71
-0.99
-1.33
-1.63
-1.75
-1.63
-1.28
-0.80
-0.33
0.00
0.16
0.20
0.23
0.33
0.54
0.80
1.04
1.24
1.40
1.54
1.69
1.77
1.71
1.47
1.05
0.56
0.13
-0.15
-0.29
-0.34
-0.40
-0.50
-0.64
-0.78
-0.88
-0.95
-1.01
-1.06
-1.10
-1.10
-1.01
-0.86
-0.71
-0.65
-0.75
-1.04
-1.48
-1.92
-2.20
-2.20
-1.88
-1.36
-0.79
-0.37
-0.20
-0.27
-0.50
-0.78
-1.01
-1.15
-1.22
-1.18
-1.01
-0.66
-0.17
0.36
0.78
0.98
0.98
0.87
0.80
0.84
0.96
1.05
1.05
0.96
0.87
0.90
1.10
1.40
1.68
1.81
1.77
1.63
1.50
1.45
1.48
1.49
1.40
1.13
0.76
0.40
0.18
0.17
0.35
0.64
0.92
1.14
1.28
1.35
1.33
1.19
0.90
0.45
-0.07
-0.57
-0.93
-1.10
-1.12
-1.07
-1.00
-0.96
-0.97
-1.01
-1.09
-1.23
-1.43
-1.68
-1.93
-2.12
-2.22
-2.21
-2.09
-1.89
-1.62
-1.30
-0.89
-0.42
0.09
0.60
1.02
1.28
1.36
1.28
1.14
1.01
0.96
0.98
1.06
1.14
1.20
1.23
1.24
1.21
1.12
0.96
0.74
0.50
0.34
0.31
0.42
0.61
0.79
0.86
0.79
0.61
0.34
0.04
-0.28
-0.65
-1.04
-1.44
-1.77
-1.96
-1.94
-1.75
-1.46
-1.21
-1.10
-1.19
-1.45
-1.76
-2.01
-2.12
-2.08
-1.95
-1.82
-1.74
-1.67
-1.58
-1.41
-1.17
-0.91
-0.70
-0.58
-0.51
-0.41
-0.25
-0.05
0.12
0.17
0.08
-0.09
-0.23
-0.25
-0.09
0.19
0.52
0.84
1.11
1.34
1.52
1.64
1.64
1.51
1.23
0.88
0.54
0.30
0.21
0.28
0.49
0.76
0.99
1.09
0.99
0.65
0.15
-0.39
-0.85
-1.13
-1.20
-1.10
-0.94
-0.81
-0.77
-0.85
-1.07
-1.37
-1.70
-2.00
-2.20
-2.20
-1.98
-1.55
-0.99
-0.44
-0.03
0.19
0.28
0.33
0.46
0.70
1.00
1.27
1.48
1.63
1.77
1.89
1.94
1.84
1.54
1.12
0.76
0.61
0.71
0.97
1.19
1.20
0.98
0.62
0.30
0.17
0.25
0.47
0.68
0.79
0.77
0.66
0.52
0.39
0.26
0.12
-0.01
-0.10
-0.12
-0.03
0.11
0.25
0.30
0.22
0.04
-0.21
-0.45
-0.67
-0.85
-1.00
-1.13
-1.25
-1.38
-1.49
-1.55
-1.52
-1.34
-1.02
-0.63
-0.29
-0.07
0.00
0.00
0.04
0.19
0.45
0.75
0.99
1.12
1.14
1.09
0.98
0.85
0.70
0.56
0.49
0.54
0.73
0.98
1.19
1.25
1.13
0.89
0.62
0.40
0.28
0.20
0.10
-0.03
-0.16
-0.22
-0.14
0.06
0.29
0.46
0.46
0.26
-0.12
-0.62
-1.17
-1.69
-2.09
-2.31
-2.32
-2.13
-1.78
-1.38
-1.04
-0.84
-0.83
-0.98
-1.21
-1.40
-1.43
-1.22
-0.80
-0.25
0.27
0.67
0.87
0.89
0.77
0.56
0.33
0.11
-0.02
-0.01
0.16
0.45
0.79
1.05
1.14
1.04
0.79
0.48
0.20
0.02
-0.02
0.07
0.25
0.45
0.61
0.66
0.61
0.49
0.37
0.27
0.20
0.12
-0.00
-0.18
-0.41
-0.61
-0.77
-0.86
-0.92
-0.97
-1.01
-1.01
-0.92
-0.73
-0.48
-0.23
-0.07
0.01
0.01
0.01
0.05
0.14
0.27
0.41
0.52
0.60
0.62
0.56
0.45
0.30
0.14
-0.01
-0.12
-0.21
-0.26
-0.29
-0.30
-0.27
-0.22
-0.17
-0.19
-0.32
-0.56
-0.88
-1.26
-1.62
-1.93
-2.10
-2.10
-1.89
-1.47
-0.91
-0.34
0.01
-0.03
-0.54
-1.41
-2.37
-3.16
-3.51
-3.24
-2.31
-0.78
1.28
3.73
6.43
9.13
11.14
11.80
10.81
8.51
5.71
3.26
1.73
1.21
1.31
1.36
0.71
-0.88
-3.10
-5.17
-6.11
-5.23
-2.42
1.71
6.05
9.52
11.21
10.45
6.75
-0.02
-9.29
-19.35
-27.63
-31.45
-29.19
-21.17
-9.69
1.95
10.92
15.96
17.68
17.72
17.53
17.55
17.14
15.29
11.51
6.51
1.65
-1.44
-1.76
0.67
4.71
8.70
11.24
11.68
10.32
8.07
5.93
4.49
3.90
3.96
4.48
5.19
5.56
4.56
0.85
-6.66
-18.01
-31.60
-44.58
-53.91
-57.76
-56.13
-50.61
-43.39
-36.17
-29.48
-22.66
-14.99
-6.48
1.69
7.84
10.76
10.32
7.49
3.82
1.23
0.40
1.22
2.69
3.62
3.41
2.33
1.38
1.82
5.22
12.38
22.90
35.27
47.69
58.81
68.01
75.09
76.28
69.21
54.56
36.14
18.27
3.77
-6.44
-12.81
-16.75
-19.91
-22.90
-25.60
-27.42
-27.86
-26.78
-24.61
-21.88
-19.20
-17.05
-15.05
-12.63
-9.47
-5.85
-2.56
-0.44
-0.05
-1.42
-3.99
-6.48
-7.51
-6.65
-4.00
-0.32
3.29
5.83
6.62
5.47
2.86
-0.42
-3.56
-5.98
-7.44
-8.04
-8.09
-8.07
-8.38
-9.15
-10.17
-11.01
-11.01
-9.48
-5.73
0.70
9.68
20.22
30.40
37.79
40.30
37.11
29.09
18.50
8.11
0.04
-4.84
-6.93
-7.30
-6.98
-6.45
-5.82
-5.00
-4.08
-3.24
-2.65
-2.24
-1.73
-0.75
0.93
3.23
5.80
8.08
9.55
9.79
8.72
6.60
4.02
1.67
0.16
-0.25
0.31
1.37
2.36
2.84
2.64
1.91
0.98
0.28
0.16
0.82
2.28
4.42
6.87
9.16
10.72
11.04
9.86
7.29
3.76
-0.08
-3.62
-6.53
-8.77
-10.54
-12.09
-13.57
-14.88
-15.85
-16.29
-16.13
-15.44
-14.41
-13.22
-12.04
-10.96
-10.04
-9.34
-8.87
-8.65
-8.62
-8.69
-8.70
-8.48
-7.85
-6.75
-5.20
-3.36
-1.49
0.14
1.32
1.99
2.23
2.23
2.19
2.27
2.55
2.98
3.48
3.92
4.24
4.36
4.26
3.96
3.49
2.92
2.34
1.82
1.37
0.98
0.58
0.11
-0.43
-0.99
-1.53
-2.03
-2.54
-3.11
-3.77
-4.45
-4.99
-5.23
-5.10
-4.61
-3.92
-3.19
-2.51
-1.94
-1.46
-1.06
-0.78
-0.68
-0.81
-1.10
-1.45
-1.69
-1.70
-1.48
-1.10
-0.67
-0.31
-0.06
0.11
0.22
0.30
0.32
0.30
0.23
0.16
0.11
0.07
0.02
-0.10
-0.32
-0.60
-0.86
-0.97
-0.82
-0.38
0.33
1.22
2.16
3.08
3.90
4.64
5.33
5.99
6.61
7.11
7.41
7.44
7.23
6.88
6.55
6.32
6.21
6.10
5.85
5.37
4.62
3.69
2.65
1.56
0.41
-0.81
-2.12
-3.46
-4.73
-5.85
-6.77
-7.54
-8.30
-9.13
-10.10
-11.12
-12.00
-12.53
-12.55
-12.01
-10.96
-9.50
-7.71
-5.68
-3.56
-1.55
0.06
1.04
1.35
1.17
0.90
0.96
1.61
2.88
4.62
6.61
8.65
10.63
12.44
13.90
14.71
14.57
13.30
10.97
7.92
4.66
1.73
-0.51
-1.92
-2.63
-2.89
-2.95
-2.97
-2.94
-2.75
-2.27
-1.42
-0.23
1.25
2.90
4.65
6.47
8.34
10.24
12.12
13.92
15.51
16.78
17.57
17.70
17.01
15.42
13.00
9.99
6.76
3.73
1.21
-0.73
-2.24
-3.60
-5.09
-6.80
-8.62
-10.31
-11.58
-12.30
-12.46
-12.23
-11.81
-11.41
-11.16
-11.11
-11.23
-11.36
-11.22
-10.52
-9.12
-7.04
-4.62
-2.30
-0.51
0.59
1.09
1.32
1.65
2.36
3.55
5.14
6.93
8.56
9.58
9.52
7.99
4.94
0.75
-3.81
-7.73
-10.15
-10.60
-9.14
-6.27
-2.72
0.78
3.68
5.59
6.30
5.76
4.12
1.74
-0.79
-2.83
-3.89
-3.83
-2.93
-1.75
-0.92
-0.85
-1.60
-2.93
-4.41
-5.63
-6.35
-6.52
-6.24
-5.70
-5.08
-4.48
-3.87
-3.12
-2.05
-0.53
1.45
3.70
5.92
7.76
9.01
9.64
9.84
9.94
10.34
11.35
13.02
15.05
16.73
17.13
15.45
11.32
5.08
-2.28
-9.43
-15.16
-18.73
-20.02
-19.37
-17.35
-14.57
-11.48
-8.47
-5.80
-3.67
-2.13
-1.07
-0.24
0.62
1.68
2.90
4.11
5.07
5.57
5.54
5.04
4.23
3.31
2.46
1.83
1.47
1.31
1.19
0.95
0.44
-0.34
-1.28
-2.16
-2.76
-2.95
-2.72
-2.21
-1.67
-1.35
-1.44
-1.98
-2.89
-3.86
-4.52
-4.53
-3.68
-2.04
0.12
2.36
4.16
5.18
5.32
4.84
4.22
3.97
4.37
5.41
6.74
7.83
8.22
7.78
6.70
5.43
4.42
4.01
4.38
5.38
6.52
7.23
7.15
6.33
5.17
4.30
4.22
5.36
7.53
9.94
11.52
11.41
9.20
4.91
-1.07
-8.09
-15.00
-20.77
-24.85
-27.12
-27.58
-26.31
-23.39
-18.82
-12.63
-4.36
5.97
17.52
28.77
38.15
44.49
47.17
46.18
38.80
24.95
7.72
-8.66
-21.62
-30.55
-35.76
-38.16
-38.17
-36.15
-32.22
-27.03
-21.73
-17.43
-14.56
-12.98
-12.13
-11.29
-10.07
-8.01
-5.12
-1.89
1.11
3.60
5.63
7.42
9.20
10.97
12.84
14.77
16.51
17.77
18.40
18.40
17.86
16.89
15.60
14.23
13.03
12.15
11.57
11.19
10.88
10.45
9.83
9.02
8.14
7.32
6.63
6.06
5.55
5.05
4.54
3.98
3.30
2.38
1.12
-0.56
-2.64
-5.01
-7.51
-10.01
-12.41
-14.67
-16.78
-18.71
-20.34
-21.51
-21.98
-21.61
-20.34
-18.30
-15.68
-12.78
-9.82
-6.97
-4.29
-1.86
0.28
2.01
3.25
3.94
4.17
4.08
3.84
3.57
3.29
2.98
2.59
2.06
1.37
0.48
-0.66
-2.02
-3.50
-4.84
-5.67
-5.64
-4.56
-2.53
0.11
2.87
5.23
6.79
7.35
6.87
5.49
3.39
0.80
-2.06
-4.93
-7.61
-9.96
-11.93
-13.42
-14.34
-14.59
-14.06
-12.73
-10.57
-7.73
-4.56
-1.51
1.10
3.23
4.98
6.70
8.80
11.63
15.15
18.86
21.86
23.38
23.13
21.15
18.18
15.29
13.70
14.02
16.06
18.86
21.53
23.61
24.72
25.02
23.73
20.76
16.98
13.72
11.28
8.66
4.31
-4.09
-17.38
-34.35
-51.99
-67.16
-76.20
-77.70
-72.24
-58.83
-39.44
-17.44
3.85
22.19
35.81
42.87
42.12
34.53
23.66
13.25
6.26
3.63
4.33
6.32
7.22
5.43
1.06
-3.96
-8.31
-11.04
-11.49
-9.14
-3.78
4.22
13.37
21.92
28.74
31.54
28.62
20.20
8.85
-1.76
-9.54
-14.96
-20.42
-28.15
-40.96
-59.66
-81.90
-102.65
-112.06
-102.87
-75.51
-42.56
-9.24
21.93
49.20
69.53
80.98
83.55
78.62
68.80
57.34
47.57
39.36
30.66
19.87
7.72
-3.43
-11.78
-16.79
-18.69
-16.92
-11.82
-3.79
7.02
20.44
34.73
46.20
51.00
47.59
38.08
25.36
11.68
-2.19
-16.64
-33.16
-53.08
-75.80
-98.07
-110.50
-104.60
-79.45
-43.08
-5.83
24.84
45.44
55.33
55.94
50.32
41.62
33.02
25.02
18.23
12.38
6.53
-0.47
-8.41
-15.49
-19.77
-21.29
-21.40
-19.83
-16.09
-9.23
1.06
14.45
29.66
44.10
53.14
53.32
44.96
31.43
16.99
3.13
-11.23
-28.16
-48.32
-71.52
-95.12
-114.60
-126.13
-122.02
-100.50
-67.62
-36.41
-7.52
20.70
48.10
71.51
87.11
92.41
86.50
71.26
50.91
30.81
13.70
0.57
-8.43
-13.59
-15.70
-16.71
-18.25
-20.23
-20.32
-16.44
-7.08
8.13
27.89
49.37
68.59
82.18
88.57
88.39
82.84
73.69
63.12
53.15
44.83
37.20
27.26
11.33
-12.71
-43.88
-77.20
-105.22
-121.23
-122.26
-109.97
-89.41
-65.96
-43.03
-21.74
-2.15
14.99
27.53
33.02
30.58
21.59
9.33
-2.74
-12.44
-19.11
-22.77
-24.33
-25.86
-27.59
-29.06
-28.68
-25.89
-20.86
-14.35
-7.40
-0.99
4.50
9.36
14.02
18.83
23.73
28.34
31.91
33.62
32.83
29.86
26.05
23.05
22.16
23.57
26.25
28.36
28.21
25.14
20.04
14.74
10.75
8.53
7.44
6.31
4.24
1.09
-3.33
-8.10
-11.76
-13.62
-14.17
-14.40
-14.95
-15.81
-16.51
-16.62
-15.82
-14.18
-12.19
-10.42
-9.18
-8.48
-8.05
-7.26
-5.59
-2.69
1.27
5.48
8.78
10.05
8.06
2.91
-4.23
-11.54
-17.04
-19.42
-18.39
-14.90
-9.86
-4.29
0.96
5.22
7.96
8.92
8.05
5.62
2.16
-1.51
-4.68
-6.81
-7.77
-7.76
-7.09
-6.13
-5.19
-4.48
-3.94
-3.30
-1.94
0.82
5.40
11.68
18.85
25.59
30.56
32.95
32.74
30.64
27.60
24.32
21.02
17.60
13.86
9.72
5.31
0.83
-3.52
-7.68
-11.67
-15.47
-18.95
-21.25
-21.56
-19.65
-16.15
-12.14
-8.74
-6.75
-6.39
-7.16
-8.01
-7.89
-6.28
-3.48
-0.49
1.32
0.78
-2.64
-8.51
-15.65
-22.10
-25.43
-23.98
-17.75
-8.38
1.50
9.27
13.57
14.24
11.70
6.92
1.04
-4.85
-9.86
-13.37
-14.98
-14.57
-12.00
-7.70
-2.40
2.94
7.39
10.34
11.73
12.15
12.77
14.85
19.20
25.78
33.53
40.67
45.36
46.29
42.93
35.63
25.37
13.40
1.06
-10.41
-19.93
-26.65
-30.13
-30.42
-28.09
-23.97
-19.01
-14.03
-9.68
-6.33
-3.99
-2.47
-1.41
-0.48
0.75
2.56
4.90
7.16
8.39
7.99
6.22
4.13
2.05
0.04
-2.03
-4.21
-6.40
-8.27
-9.32
-9.16
-7.80
-5.74
-3.67
-2.33
-2.26
-3.72
-6.62
-10.54
-14.90
-19.11
-22.65
-25.02
-25.93
-25.29
-23.19
-19.74
-15.01
-9.08
-2.18
5.13
12.09
17.91
22.09
24.66
26.19
27.56
29.52
32.29
35.39
37.91
38.83
37.38
33.29
26.83
18.68
9.79
1.15
-6.35
-12.07
-15.77
-17.59
-18.02
-17.71
-17.24
-17.02
-17.14
-17.41
-17.45
-16.77
-14.96
-11.81
-7.46
-2.35
2.79
7.27
10.64
12.85
14.23
15.24
16.16
16.85
16.64
14.65
10.17
3.08
-5.90
-15.32
-23.51
-29.06
-31.27
-30.35
-27.19
-23.10
-19.35
-16.89
-16.14
-17.03
-19.03
-21.33
-23.05
-23.41
-21.92
-18.45
-13.33
-7.22
-0.99
4.46
8.52
11.05
12.53
13.87
16.09
19.74
24.57
29.46
32.84
33.32
30.32
24.38
16.91
9.62
3.81
-0.03
-2.25
-3.60
-4.79
-6.12
-7.44
-8.34
-8.51
-7.92
-6.83
-5.67
-4.79
-4.30
-4.10
-3.92
-3.45
-2.44
-0.76
1.59
4.51
7.76
11.02
13.94
16.22
17.70
18.42
18.52
18.23
17.69
16.96
15.99
14.58
12.47
9.37
5.02
-0.63
-7.29
-14.28
-20.62
-25.36
-27.86
-28.09
-26.59
-24.24
-21.90
-20.13
-19.03
-18.38
-17.79
-16.89
-15.48
-13.47
-10.88
-7.77
-4.33
-0.83
2.38
5.05
7.15
8.98
11.02
13.64
16.81
19.92
22.00
22.18
20.16
16.42
12.04
8.20
5.69
4.59
4.43
4.49
4.22
3.42
2.15
0.55
-1.32
-3.50
-6.02
-8.74
-11.28
-13.11
-13.73
-12.84
-10.51
-7.11
-3.20
0.61
3.87
6.36
8.07
9.22
10.11
11.03
12.24
13.83
15.67
17.38
18.39
18.10
16.09
12.35
7.24
1.49
-4.12
-8.95
-12.63
-15.04
-16.14
-15.92
-14.34
-11.46
-7.56
-3.20
0.86
3.89
5.41
5.29
3.83
1.57
-0.90
-3.12
-4.90
-6.24
-7.24
-7.94
-8.28
-8.10
-7.26
-5.79
-3.91
-2.04
-0.56
0.29
0.49
0.23
-0.16
-0.26
0.22
1.47
3.43
5.95
8.75
11.46
13.72
15.34
16.34
16.85
17.02
16.86
16.34
15.46
14.24
12.67
10.94
9.27
7.76
6.38
4.90
3.13
1.13
-1.09
-3.64
-6.61
-10.03
-13.96
-18.26
-22.86
-27.59
-30.90
-31.56
-29.73
-26.83
-24.33
-23.92
-24.99
-26.65
-28.16
-29.10
-28.84
-27.51
-25.37
-22.65
-19.46
-15.78
-11.70
-7.23
-2.17
3.58
9.95
16.66
23.14
28.36
31.27
30.97
27.42
21.55
14.88
8.82
4.36
1.77
0.72
0.74
1.33
2.29
3.54
4.96
6.19
6.90
6.86
6.12
4.97
3.76
2.85
2.52
2.86
3.82
5.27
7.04
8.97
10.92
12.78
14.43
15.75
16.59
16.76
16.09
14.51
12.07
9.02
5.73
2.64
0.13
-1.63
-2.69
-3.35
-4.04
-5.10
-6.68
-8.66
-10.68
-12.30
-13.14
-12.96
-11.77
-9.79
-7.40
-4.99
-2.91
-1.27
-0.01
1.07
2.14
3.25
4.32
5.19
5.75
6.08
6.42
7.06
8.17
9.81
11.86
14.18
16.60
18.95
20.90
21.91
21.20
17.91
11.46
1.91
-9.80
-22.04
-32.81
-40.37
-43.72
-42.82
-38.43
-31.76
-24.06
-16.37
-9.41
-3.69
0.53
3.16
4.34
4.49
4.11
3.70
3.51
3.50
3.35
2.64
1.08
-1.29
-4.08
-6.63
-8.24
-8.44
-7.23
-5.04
-2.60
-0.53
0.91
2.02
3.44
5.74
9.00
12.58
15.24
15.67
13.10
7.71
0.63
-6.49
-12.05
-15.11
-15.56
-14.01
-11.35
-8.35
-5.43
-2.63
0.23
3.26
6.45
9.54
12.19
14.07
15.06
15.25
14.92
14.47
14.33
14.94
16.65
19.68
23.95
28.90
33.43
36.01
35.11
29.70
19.75
6.32
-8.66
-22.99
-34.82
-43.03
-47.28
-47.76
-44.95
-39.43
-31.85
-23.04
-14.07
-6.09
-0.06
3.49
4.69
4.21
2.97
1.82
1.14
0.82
0.38
-0.69
-2.63
-5.23
-7.93
-10.05
-11.05
-10.70
-9.10
-6.56
-3.58
-0.73
1.43
2.45
2.21
1.06
-0.25
-0.79
0.12
2.62
6.14
9.68
12.20
13.00
12.00
9.63
6.63
3.69
1.34
-0.19
-0.85
-0.72
0.03
1.14
2.30
3.14
3.41
3.10
2.43
1.79
1.52
1.77
2.46
3.38
4.35
5.40
6.75
8.80
11.98
16.53
22.37
28.95
35.15
39.44
40.18
36.11
26.91
13.40
-2.55
-18.55
-32.38
-42.55
-48.46
-50.33
-48.75
-44.36
-37.75
-29.46
-20.19
-10.83
-2.42
4.15
8.30
9.92
9.39
7.34
4.48
1.40
-1.57
-4.29
-6.73
-8.87
-10.65
-11.88
-12.41
-12.12
-11.00
-9.06
-6.28
-2.53
2.25
7.93
13.98
19.47
23.32
24.77
23.69
20.72
16.99
13.64
11.34
10.14
9.58
9.01
8.02
6.50
4.66
2.78
1.06
-0.44
-1.76
-2.94
-3.93
-4.62
-4.92
-4.84
-4.55
-4.28
-4.23
-4.39
-4.52
-4.20
-3.05
-0.88
2.16
5.60
8.88
11.53
13.33
14.38
15.00
15.66
16.77
18.54
20.83
22.99
23.95
22.53
17.87
9.96
-0.17
-10.70
-19.68
-25.69
-28.36
-28.26
-26.52
-24.18
-21.82
-19.48
-16.92
-13.94
-10.59
-7.11
-3.85
-0.99
1.43
3.45
5.08
6.16
6.42
5.59
3.61
0.77
-2.34
-5.00
-6.63
-7.05
-6.45
-5.37
-4.37
-3.86
-3.92
-4.31
-4.63
-4.44
-3.43
-1.47
1.34
4.64
7.90
10.49
11.90
11.89
10.64
8.69
6.74
5.41
4.91
5.09
5.46
5.49
4.89
3.71
2.32
1.15
0.56
0.61
1.16
1.89
2.55
3.02
3.31
3.51
3.69
3.80
3.70
3.24
2.33
1.02
-0.45
-1.73
-2.48
-2.48
-1.71
-0.37
1.26
2.87
4.29
5.48
6.49
7.41
8.30
9.19
10.06
10.80
11.27
11.15
10.06
7.64
3.70
-1.60
-7.78
-14.14
-19.95
-24.66
-28.04
-30.08
-30.87
-30.54
-29.16
-26.85
-23.86
-20.59
-17.57
-15.27
-13.95
-13.57
-13.78
-14.01
-13.67
-12.30
-9.67
-5.77
-0.81
4.94
11.15
17.43
23.40
28.70
33.04
36.29
38.48
39.75
40.34
40.47
40.25
39.70
38.75
37.31
35.28
32.69
29.62
26.30
23.06
20.30
18.38
17.52
17.66
18.39
19.02
18.74
16.90
13.25
8.02
1.87
-4.45
-10.33
-15.46
-19.83
-23.52
-26.54
-28.70
-29.69
-29.25
-27.38
-24.46
-21.21
-17.72
-14.22
-11.04
-8.59
-7.49
-8.30
-11.14
-15.11
-18.32
-19.23
-16.42
-9.82
-0.84
8.24
15.20
18.72
18.64
15.57
10.25
3.71
-3.08
-9.28
-14.31
-17.91
-20.13
-21.24
-21.53
-21.19
-20.22
-18.68
-16.75
-14.72
-13.02
-12.02
-12.07
-13.39
-16.04
-19.72
-23.83
-27.56
-30.13
-31.04
-30.26
-28.08
-24.86
-20.88
-16.27
-11.24
-6.17
-1.58
2.05
4.51
5.96
6.80
7.52
8.54
10.02
11.79
13.43
14.25
13.55
10.90
6.59
1.76
-1.71
-1.83
2.64
11.44
22.75
33.79
41.93
45.79
45.74
43.52
41.26
40.35
40.76
41.05
39.07
32.85
21.33
4.81
-14.90
-34.55
-49.53
-54.44
-44.31
-16.67
26.53
77.96
126.15
158.83
167.38
150.15
112.94
66.21
20.50
-17.60
-46.69
-68.90
-86.65
-100.14
-107.28
-105.66
-95.06
-78.59
-61.64
-49.24
-43.70
-43.81
-46.02
-46.78
-44.37
-39.60
-34.80
-32.27
-32.96
-35.97
-39.15
-40.09
-37.21
-30.37
-20.76
-10.43
-1.46
4.80
8.08
9.16
9.38
9.97
11.52
13.74
15.79
16.74
16.13
14.19
11.70
9.54
8.27
7.96
8.22
8.58
8.74
8.76
8.93
9.51
10.55
11.79
12.79
13.24
13.06
12.54
12.13
12.31
13.32
15.08
17.15
18.87
19.54
18.67
16.16
12.38
8.08
4.17
1.43
0.27
0.65
2.13
4.06
5.83
6.99
7.35
6.93
5.90
4.42
2.59
0.42
-2.11
-5.04
-8.34
-11.93
-15.58
-18.96
-21.57
-22.85
-22.33
-19.88
-15.84
-11.12
-6.86
-4.13
-3.44
-4.65
-7.01
-9.56
-11.52
-12.51
-12.55
-11.83
-10.52
-8.59
-5.90
-2.30
2.21
7.43
13.03
18.66
24.02
28.96
33.40
37.31
40.54
42.78
43.55
42.30
38.55
32.13
23.35
13.06
2.46
-7.28
-15.28
-21.27
-25.60
-29.03
-32.37
-36.21
-40.62
-45.19
-49.22
-51.91
-52.63
-51.13
-47.57
-42.47
-36.50
-30.17
-23.85
-17.79
-12.18
-7.22
-3.16
-0.33
1.08
1.09
0.23
-0.81
-1.57
-1.92
-2.05
-2.32
-2.96
-3.88
-4.59
-4.14
-1.90
2.01
6.94
12.13
17.20
22.25
27.58
33.30
39.38
45.14
49.55
51.90
52.32
51.61
50.55
49.36
45.08
36.32
24.19
11.52
0.90
-6.49
-10.82
-13.33
-15.43
-18.18
-21.39
-24.43
-27.27
-29.79
-32.07
-34.17
-36.20
-38.21
-40.37
-42.88
-46.46
-52.15
-60.52
-71.05
-80.75
-86.10
-83.87
-72.81
-54.30
-32.30
-11.63
4.28
14.75
21.57
27.48
34.65
43.59
53.39
62.52
69.97
75.84
81.10
86.27
91.05
94.63
96.07
95.05
91.98
87.83
83.59
79.88
75.93
70.03
60.67
47.36
31.27
14.84
0.89
-10.42
-17.83
-21.04
-21.40
-20.41
-19.24
-17.87
-15.89
-13.44
-10.90
-8.43
-6.46
-5.53
-6.10
-8.85
-14.39
-22.84
-33.23
-43.33
-50.17
-51.78
-48.00
-40.39
-31.44
-23.28
-16.78
-11.53
-6.58
-1.38
3.40
6.35
6.44
3.85
0.09
-2.71
-2.93
-0.20
4.42
8.89
11.19
10.25
6.24
0.37
-5.83
-11.13
-14.99
-17.57
-19.39
-20.89
-22.13
-22.80
-22.45
-20.88
-18.32
-15.37
-12.76
-10.98
-10.12
-9.87
-9.73
-9.26
-8.33
-7.11
-5.89
-4.93
-4.27
-3.76
-3.16
-2.34
-1.36
-0.38
0.35
0.67
0.56
0.13
-0.42
-0.88
-1.08
-0.94
-0.56
-0.07
0.34
0.60
0.74
0.87
1.09
1.42
1.76
1.98
1.97
1.71
1.32
0.95
0.75
0.78
0.98
1.27
1.53
1.72
1.85
1.95
2.04
2.12
2.10
1.93
1.56
1.06
0.56
0.19
0.07
0.18
0.45
0.76
0.99
1.09
1.01
0.78
0.45
0.11
-0.10
-0.09
0.15
0.51
0.84
1.01
0.98
0.81
0.64
0.56
0.56
0.56
0.47
0.27
0.02
-0.17
-0.26
-0.27
-0.29
-0.40
-0.60
-0.82
-0.98
-1.06
-1.10
-1.19
-1.41
-1.76
-2.19
-2.59
-2.85
-2.89
-2.67
-2.20
-1.56
-0.88
-0.32
-0.04
-0.12
-0.55
-1.22
-2.01
-2.78
-3.47
-4.04
-4.44
-4.62
-4.54
-4.26
-3.94
-3.81
-4.13
-4.96
-6.20
-7.55
-8.69
-9.39
-9.65
-9.62
-9.52
-9.48
-9.46
-9.33
-8.97
-8.39
-7.75
-7.37
-7.53
-8.40
-9.94
-11.85
-13.73
-15.18
-15.99
-16.18
-15.99
-15.78
-15.86
-16.44
-17.49
-18.79
-19.88
-20.16
-18.94
-15.62
-9.90
-1.93
7.57
17.44
26.36
33.15
37.15
38.31
37.13
34.42
31.07
27.80
25.15
23.40
22.68
22.92
23.85
25.02
25.94
26.18
25.51
23.93
21.67
19.00
16.17
13.37
10.66
8.09
5.66
3.32
0.96
-1.56
-4.42
-7.73
-11.48
-15.47
-19.35
-22.69
-25.07
-26.19
-25.91
-24.27
-21.48
-17.88
-13.91
-10.07
-6.78
-4.26
-2.52
-1.33
-0.40
0.48
1.35
2.14
2.79
3.40
4.10
5.02
6.14
7.25
8.11
8.58
8.71
8.73
8.91
9.34
9.95
10.49
10.75
10.64
10.24
9.71
9.25
9.00
8.98
9.10
9.18
8.93
8.08
6.47
4.14
1.31
-1.65
-4.44
-6.90
-9.09
-11.17
-13.23
-15.12
-16.42
-16.64
-15.43
-12.77
-8.97
-4.58
-0.18
3.85
7.29
10.16
12.54
14.54
16.31
17.94
19.44
20.71
21.51
21.56
20.65
18.76
16.13
13.17
10.33
7.96
6.29
5.36
5.09
5.24
5.47
5.38
4.64
3.14
1.04
-1.23
-3.09
-4.10
-4.07
-3.22
-2.04
-1.10
-0.81
-1.30
-2.48
-4.18
-6.26
-8.72
-11.56
-14.60
-17.44
-19.52
-20.29
-19.52
-17.32
-14.14
-10.57
-7.14
-4.33
-2.53
-1.98
-2.75
-4.50
-6.49
-7.78
-7.57
-5.50
-1.83
2.69
7.11
10.66
12.96
14.00
14.05
13.54
12.95
12.73
13.26
14.76
17.24
20.42
23.88
27.08
29.54
30.89
30.87
29.41
26.54
22.45
17.44
11.89
6.20
0.77
-4.06
-8.04
-11.01
-12.96
-14.14
-15.01
-16.20
-18.30
-21.61
-25.99
-30.80
-35.08
-37.89
-38.57
-36.93
-33.20
-27.87
-21.50
-14.58
-7.53
-0.72
5.47
10.75
14.97
18.19
20.67
22.79
24.80
26.74
28.42
29.47
29.55
28.50
26.39
23.47
20.04
16.40
12.80
9.47
6.66
4.50
2.97
1.83
0.67
-0.94
-3.15
-5.80
-8.39
-10.30
-11.09
-10.67
-9.30
-7.48
-5.67
-4.20
-3.15
-2.42
-1.88
-1.48
-1.34
-1.76
-3.10
-5.60
-9.20
-13.46
-17.70
-21.19
-23.48
-24.51
-24.52
-23.88
-22.81
-21.32
-19.36
-16.92
-14.21
-11.56
-9.19
-7.13
-5.09
-2.76
-0.00
3.05
6.03
8.64
10.86
12.95
15.31
18.14
21.33
24.39
26.74
27.99
28.17
27.68
27.14
27.10
27.75
28.82
29.64
29.45
27.58
23.80
18.44
12.30
6.45
1.89
-0.84
-1.85
-2.09
-3.18
-7.06
-15.43
-29.00
-46.88
-66.34
-83.35
-93.69
-94.45
-85.12
-67.86
-46.70
-26.09
-9.51
1.40
6.77
7.74
5.72
1.84
-3.04
-8.13
-12.48
-15.04
-15.10
-12.56
-8.07
-2.84
1.90
5.27
7.08
7.70
7.80
7.94
8.34
8.80
8.94
8.41
7.19
5.53
3.91
2.79
2.40
2.70
3.40
4.13
4.56
4.57
4.26
3.84
3.52
3.38
3.40
3.43
3.38
3.25
3.13
3.09
3.16
3.24
3.22
3.03
2.74
2.44
2.25
2.18
2.16
2.11
1.97
1.78
1.63
1.60
1.69
1.86
2.03
2.16
2.27
2.43
2.67
2.98
3.28
3.49
3.57
3.53
3.43
3.34
3.29
3.26
3.20
3.09
2.92
2.74
2.56
2.41
2.24
1.97
1.50
0.83
0.04
-0.71
-1.18
-1.22
-0.80
-0.03
0.88
1.72
2.36
2.77
2.97
3.02
2.95
2.81
2.64
2.55
2.61
2.83
3.11
3.32
3.31
3.04
2.58
2.07
1.65
1.39
1.27
1.22
1.20
1.19
1.21
1.27
1.35
1.36
1.30
1.21
1.23
1.53
2.19
3.17
4.28
5.30
6.07
6.55
6.80
6.93
6.99
6.97
6.85
6.64
6.38
6.14
5.88
5.54
4.96
4.02
2.69
1.08
-0.57
-2.01
-3.05
-3.63
-3.84
-3.89
-4.03
-4.43
-5.14
-6.12
-7.25
-8.38
-9.38
-10.03
-10.12
-9.48
-8.15
-6.40
-4.75
-3.76
-3.81
-4.89
-6.58
-8.26
-9.33
-9.44
-8.55
-6.86
-4.69
-2.35
-0.18
1.56
2.57
2.65
1.70
-0.15
-2.55
-5.01
-7.03
-8.22
-8.44
-7.79
-6.55
-5.07
-3.67
-2.53
-1.75
-1.32
-1.18
-1.28
-1.52
-1.81
-2.00
-1.94
-1.48
-0.61
0.63
2.07
3.55
4.95
6.18
7.22
8.03
8.55
8.74
8.58
8.13
7.50
6.82
6.17
5.61
5.15
4.79
4.52
4.33
4.12
3.76
3.11
2.09
0.72
-0.83
-2.27
-3.33
-3.82
-3.76
-3.32
-2.83
-2.52
-2.47
-2.56
-2.54
-2.20
-1.54
-0.78
-0.33
-0.54
-1.51
-3.03
-4.58
-5.58
-5.66
-4.79
-3.32
-1.80
-0.80
-0.62
-1.23
-2.29
-3.23
-3.48
-2.67
-0.79
1.72
3.99
4.97
3.76
-0.03
-6.02
-13.14
-19.85
-24.65
-26.49
-25.16
-21.26
-16.01
-10.71
-6.34
-3.19
-0.96
0.93
2.96
5.17
7.14
8.25
8.00
6.43
4.15
2.13
1.40
2.60
5.73
10.19
14.94
18.77
20.67
20.06
17.02
12.29
7.19
3.26
1.76
3.24
7.21
12.26
16.46
18.15
16.50
11.84
5.47
-0.93
-5.92
-8.78
-9.53
-8.76
-7.16
-5.27
-3.34
-1.45
0.36
1.90
2.90
3.11
2.50
1.28
-0.07
-1.07
-1.38
-0.87
0.25
1.64
2.87
3.58
3.63
3.12
2.36
1.73
1.51
1.80
2.52
3.44
4.33
5.01
5.32
5.04
3.86
1.49
-2.06
-6.38
-10.61
-13.70
-14.82
-13.69
-10.68
-6.69
-2.79
0.09
1.41
1.12
-0.45
-2.63
-4.68
-5.99
-6.23
-5.47
-4.14
-2.90
-2.31
-2.64
-3.69
-4.88
-5.51
-5.05
-3.43
-1.02
1.41
3.08
3.44
2.34
0.09
-2.66
-5.02
-6.03
-4.93
-1.39
4.22
10.82
16.95
21.24
22.93
22.09
19.43
15.90
12.25
8.85
5.78
3.07
0.82
-0.78
-1.70
-2.08
-2.30
-2.72
-3.58
-4.81
-6.14
-7.17
-7.65
-7.53
-7.01
-6.58
-6.75
-7.94
-10.19
-13.12
-15.90
-17.65
-17.69
-15.92
-12.81
-9.20
-5.97
-3.67
-2.49
-2.32
-3.11
-4.99
-8.33
-13.54
-20.76
-29.60
-39.12
-47.87
-54.17
-56.43
-53.44
-44.83
-31.34
-14.95
1.52
15.11
23.78
26.98
25.83
22.56
19.45
17.89
17.98
18.80
19.13
18.20
15.85
12.47
8.67
5.00
1.88
-0.29
-1.20
-0.73
0.93
3.13
4.95
5.78
5.66
5.28
5.64
7.52
11.00
15.56
20.07
23.31
24.76
24.69
23.84
23.03
22.84
23.43
24.96
27.22
29.55
31.90
34.47
37.48
40.92
44.58
48.08
51.44
54.45
56.42
57.61
58.74
60.29
62.27
64.18
65.24
65.33
64.21
61.18
56.66
51.48
46.08
40.58
35.06
25.88
13.79
5.05
-0.79
-6.66
-14.38
-24.74
-36.94
-48.84
-57.86
-61.72
-60.46
-56.92
-53.88
-53.12
-55.03
-58.51
-61.73
-63.25
-62.16
-59.07
-55.75
-53.08
-50.82
-48.24
-44.57
-39.60
-33.88
-28.16
-23.45
-20.69
-19.65
-19.40
-19.02
-17.99
-16.35
-14.53
-12.87
-11.58
-10.80
-10.25
-9.56
-8.56
-7.29
-5.89
-4.56
-3.31
-2.19
-1.22
-0.39
0.38
1.14
1.97
2.88
3.87
4.89
5.87
6.82
7.76
8.75
9.77
10.63
11.02
10.65
9.31
7.10
4.41
1.75
-0.37
-1.67
-2.16
-2.08
-1.80
-1.62
-1.68
-1.96
-2.34
-2.70
-2.98
-3.17
-3.24
-3.10
-2.63
-1.74
-0.49
0.93
2.20
3.02
3.21
2.75
1.74
0.36
-1.19
-2.71
-4.02
-4.95
-5.42
-5.43
-5.15
-4.79
-4.58
-4.60
-4.76
-4.89
-4.78
-4.39
-3.85
-3.40
-3.29
-3.63
-4.35
-5.23
-6.02
-6.59
-6.97
-7.29
-7.67
-8.13
-8.51
-8.54
-8.04
-6.97
-5.50
-3.93
-2.56
-1.53
-0.83
-0.30
0.24
0.90
1.69
2.56
3.43
4.27
5.04
5.72
6.28
6.66
6.84
6.80
6.58
6.21
5.75
5.21
4.61
3.99
3.37
2.80
2.26
1.76
1.29
0.83
0.43
0.10
-0.19
-0.49
-0.93
-1.60
-2.54
-3.69
-4.85
-5.84
-6.53
-6.93
-7.18
-7.48
-8.02
-8.84
-9.84
-10.85
-11.72
-12.37
-12.83
-13.21
-13.64
-14.19
-14.86
-15.66
-16.60
-17.70
-18.88
-19.87
-20.26
-19.59
-17.63
-14.54
-10.80
-6.98
-3.39
0.11
4.02
8.90
14.91
21.64
28.22
33.67
37.26
38.83
38.64
37.18
34.95
32.23
29.17
25.84
22.32
18.83
15.60
12.89
10.92
9.80
9.45
9.67
10.09
10.37
10.26
9.68
8.83
8.13
8.02
8.69
9.99
11.46
12.62
13.17
13.12
12.80
12.60
12.79
13.28
13.72
13.76
13.17
11.92
9.95
7.40
4.76
2.67
1.62
1.83
3.13
4.99
6.68
7.18
6.16
4.31
2.92
2.93
4.51
7.04
9.38
10.26
8.34
3.44
-2.94
-8.66
-12.12
-12.81
-11.14
-8.15
-5.31
-5.16
-9.92
-20.23
-35.02
-51.51
-65.36
-71.54
-66.33
-45.63
-13.45
17.59
34.79
33.69
18.20
-4.21
-26.41
-43.52
-53.04
-54.95
-50.15
-39.71
-25.40
-9.87
4.15
15.08
22.63
27.10
28.26
26.15
22.26
18.50
16.61
17.31
19.94
22.66
23.30
20.21
13.20
4.89
-1.48
-3.70
-1.61
3.19
8.21
11.30
11.56
9.45
6.63
4.71
4.44
5.35
6.31
6.15
4.37
1.30
-2.16
-4.93
-6.47
-6.91
-6.82
-6.73
-6.87
-7.06
-6.97
-6.41
-5.40
-4.08
-2.77
-1.65
-0.76
0.02
0.86
1.84
2.91
3.94
4.74
5.14
5.06
4.51
3.65
2.71
1.96
1.59
1.64
1.98
2.35
2.49
2.29
1.79
1.20
0.74
0.54
0.57
0.70
0.76
0.64
0.34
-0.10
-0.61
-1.14
-1.67
-2.16
-2.57
-2.84
-2.92
-2.81
-2.58
-2.32
-2.14
-2.09
-2.18
-2.39
-2.67
-2.99
-3.33
-3.68
-4.00
-4.23
-4.31
-4.19
-3.89
-3.47
-3.01
-2.59
-2.26
-2.03
-1.89
-1.79
-1.72
-1.63
-1.56
-1.53
-1.60
-1.80
-2.10
-2.38
-2.50
-2.32
-1.82
-1.11
-0.37
0.20
0.51
0.60
0.58
0.58
0.63
0.68
0.65
0.49
0.24
0.02
-0.10
-0.08
0.02
0.10
0.11
0.03
-0.06
-0.10
-0.05
0.04
0.08
0.01
-0.20
-0.51
-0.85
-1.13
-1.32
-1.38
-1.31
-1.10
-0.76
-0.30
0.22
0.74
1.14
1.36
1.39
1.26
1.08
0.97
0.98
1.11
1.29
1.39
1.32
1.09
0.78
0.49
0.32
0.27
0.28
0.29
0.26
0.17
0.00
-0.28
-0.71
-1.29
-1.93
-2.47
-2.72
-2.58
-2.05
-1.28
-0.46
0.23
0.66
0.81
0.72
0.49
0.27
0.14
0.17
0.31
0.48
0.58
0.60
0.58
0.58
0.66
0.82
0.98
1.08
1.13
1.14
1.15
1.15
1.05
0.76
0.23
-0.50
-1.29
-1.98
-2.47
-2.68
-2.64
-2.37
-1.93
-1.37
-0.76
-0.18
0.26
0.52
0.56
0.45
0.29
0.23
0.36
0.67
1.06
1.36
1.44
1.26
0.92
0.57
0.39
0.44
0.67
0.96
1.18
1.25
1.18
1.00
0.75
0.44
0.07
-0.34
-0.74
-1.06
-1.26
-1.30
-1.18
-0.92
-0.57
-0.17
0.20
0.52
0.76
0.97
1.16
1.35
1.51
1.56
1.47
1.23
0.91
0.60
0.36
0.19
0.06
-0.05
-0.13
-0.15
-0.08
0.03
0.09
-0.00
-0.32
-0.84
-1.47
-2.04
-2.40
-2.42
-2.09
-1.49
-0.79
-0.18
0.20
0.33
0.28
0.18
0.14
0.16
0.21
0.22
0.18
0.13
0.15
0.26
0.46
0.68
0.85
0.94
0.97
0.98
0.96
0.87
0.64
0.24
-0.30
-0.89
-1.43
-1.86
-2.19
-2.45
-2.67
-2.82
-2.81
-2.59
-2.13
-1.50
-0.80
-0.14
0.43
0.91
1.35
1.77
2.11
2.33
2.37
2.25
2.06
1.89
1.80
1.79
1.77
1.69
1.52
1.32
1.15
1.07
1.06
1.05
0.96
0.72
0.33
-0.15
-0.66
-1.17
-1.65
-2.05
-2.34
-2.43
-2.27
-1.86
-1.27
-0.67
-0.22
-0.04
-0.13
-0.37
-0.61
-0.74
-0.73
-0.67
-0.64
-0.73
-0.94
-1.22
-1.55
-1.96
-2.49
-3.15
-3.91
-4.61
-5.14
-5.41
-5.45
-5.42
-5.47
-5.70
-6.11
-6.61
-7.06
-7.37
-7.56
-7.70
-7.88
-8.11
-8.32
-8.41
-8.30
-7.98
-7.52
-6.97
-6.28
-5.27
-3.68
-1.37
1.54
4.64
7.40
9.40
10.53
11.03
11.32
11.82
12.70
13.84
15.02
16.04
16.80
17.28
17.47
17.31
16.72
15.67
14.14
12.28
10.35
8.51
6.75
5.02
3.32
1.98
1.42
1.95
3.79
6.80
10.51
14.23
17.40
19.80
21.75
23.61
25.35
26.94
28.27
29.15
29.48
29.28
28.66
27.87
26.90
25.21
22.58
19.04
14.78
10.12
5.41
-0.47
-7.44
-13.35
-17.99
-21.86
-25.02
-27.43
-29.06
-29.95
-30.23
-29.86
-28.93
-27.86
-26.77
-25.55
-24.17
-22.60
-20.86
-18.99
-16.89
-14.62
-12.55
-10.87
-9.63
-8.85
-8.50
-8.47
-8.62
-8.70
-8.57
-8.36
-8.10
-7.79
-7.42
-6.89
-6.14
-5.10
-3.76
-2.24
-0.82
0.37
1.28
1.99
2.59
3.13
3.62
4.02
4.28
4.43
4.62
5.05
5.85
7.01
8.42
9.85
10.97
11.49
11.32
10.58
9.57
8.59
7.87
7.49
7.44
7.45
7.29
6.84
6.15
5.32
4.39
3.29
1.94
0.33
-1.68
-4.21
-7.32
-10.95
-15.02
-19.50
-24.34
-29.50
-33.55
-35.21
-33.96
-30.29
-25.11
-19.12
-12.68
-6.08
0.22
5.60
9.34
11.01
10.78
9.49
8.16
7.56
8.01
9.34
11.01
12.23
12.28
10.91
8.43
5.52
2.98
1.42
1.07
1.71
2.59
2.85
1.95
-0.07
-2.71
-5.36
-7.56
-9.12
-10.14
-10.85
-11.54
-12.37
-13.56
-15.54
-18.74
-23.10
-26.96
-27.56
-22.38
-11.27
2.89
15.65
23.43
25.13
22.40
18.36
15.72
15.48
16.76
17.94
17.91
16.66
15.12
14.31
14.73
15.91
16.95
16.56
14.24
10.43
6.27
2.97
1.24
1.07
1.80
2.47
2.34
1.19
-0.59
-2.34
-3.43
-3.56
-2.81
-1.56
-0.33
0.36
0.32
-0.39
-1.49
-2.59
-3.36
-3.60
-3.34
-2.76
-2.17
-1.80
-1.73
-1.91
-2.17
-2.34
-2.31
-2.08
-1.74
-1.46
-1.36
-1.46
-1.72
-2.01
-2.20
-2.23
-2.08
-1.81
-1.48
-1.13
-0.79
-0.49
-0.24
-0.06
0.05
0.11
0.14
0.15
0.13
0.02
-0.20
-0.51
-0.82
-1.05
-1.10
-0.97
-0.71
-0.42
-0.21
-0.14
-0.24
-0.46
-0.72
-0.92
-0.97
-0.85
-0.56
-0.19
0.23
0.65
1.09
1.54
1.99
2.37
2.60
2.65
2.51
2.21
1.84
1.47
1.15
0.89
0.68
0.45
0.15
-0.24
-0.72
-1.25
-1.79
-2.34
-2.91
-3.53
-4.16
-4.74
-5.17
-5.42
-5.49
-5.46
-5.40
-5.35
-5.26
-5.08
-4.73
-4.21
-3.55
-2.80
-1.99
-1.16
-0.33
0.45
1.14
1.68
2.08
2.40
2.66
2.89
3.02
3.00
2.81
2.52
2.25
2.10
2.09
2.11
2.03
1.75
1.32
0.90
0.66
0.68
0.91
1.12
1.13
0.83
0.30
-0.29
-0.75
-1.00
-1.05
-1.00
-0.96
-0.95
-0.96
-0.98
-1.00
-1.06
-1.20
-1.42
-1.65
-1.80
-1.78
-1.59
-1.25
-0.88
-0.52
-0.21
0.06
0.30
0.51
0.63
0.65
0.57
0.45
0.38
0.39
0.46
0.55
0.59
0.53
0.37
0.15
-0.07
-0.23
-0.31
-0.30
-0.25
-0.22
-0.27
-0.46
-0.76
-1.15
-1.56
-1.91
-2.17
-2.29
-2.27
-2.10
-1.84
-1.54
-1.29
-1.14
-1.05
-0.98
-0.85
-0.59
-0.21
0.24
0.67
1.00
1.14
1.04
0.72
0.26
-0.21
-0.55
-0.63
-0.45
-0.10
0.30
0.63
0.85
0.96
0.98
0.94
0.82
0.63
0.38
0.13
-0.08
-0.23
-0.33
-0.43
-0.56
-0.75
-0.99
-1.23
-1.41
-1.47
-1.35
-1.09
-0.75
-0.45
-0.30
-0.30
-0.40
-0.44
-0.35
-0.12
0.18
0.43
0.57
0.62
0.67
0.77
0.91
1.00
0.98
0.82
0.60
0.43
0.39
0.50
0.68
0.84
0.90
0.85
0.71
0.53
0.38
0.28
0.23
0.19
0.13
0.02
-0.14
-0.33
-0.52
-0.69
-0.87
-1.09
-1.37
-1.66
-1.88
-1.91
-1.69
-1.22
-0.62
-0.03
0.38
0.55
0.50
0.38
0.32
0.43
0.73
1.15
1.60
1.97
2.23
2.36
2.37
2.29
2.16
2.01
1.87
1.72
1.55
1.37
1.24
1.24
1.47
1.97
2.63
3.25
3.62
3.63
3.34
2.91
2.51
2.20
1.93
1.62
1.21
0.73
0.34
0.14
0.17
0.36
0.55
0.64
0.59
0.44
0.24
0.04
-0.19
-0.43
-0.67
-0.83
-0.88
-0.79
-0.60
-0.39
-0.21
-0.08
0.01
0.06
0.03
-0.13
-0.46
-0.95
-1.53
-2.05
-2.39
-2.48
-2.34
-2.09
-1.86
-1.73
-1.73
-1.80
-1.90
-1.96
-1.98
-1.98
-1.99
-2.01
-2.06
-2.15
-2.28
-2.46
-2.69
-2.97
-3.30
-3.71
-4.20
-4.80
-5.45
-6.10
-6.69
-7.25
-7.81
-8.46
-9.25
-10.16
-11.12
-12.02
-12.82
-13.51
-14.19
-14.96
-15.88
-16.95
-18.06
-19.08
-19.86
-20.33
-20.49
-20.39
-20.08
-19.55
-18.75
-17.61
-16.03
-13.98
-11.49
-8.63
-5.52
-2.27
1.07
4.49
8.02
11.64
15.23
18.52
21.19
23.02
23.98
24.30
24.44
24.88
25.93
27.59
29.56
31.28
32.16
31.79
30.07
27.23
23.76
20.18
16.93
14.34
12.66
12.05
12.54
13.81
15.13
15.58
14.34
11.19
6.65
1.80
-2.26
-4.86
-6.00
-6.17
-5.92
-5.56
-5.08
-4.34
-3.37
-2.42
-1.87
-1.96
-2.62
-3.52
-4.25
-4.56
-4.45
-4.12
-3.83
-3.71
-3.74
-3.84
-3.87
-3.79
-3.60
-3.36
-3.07
-2.75
-2.41
-2.03
-1.61
-1.11
-0.52
0.18
0.94
1.67
2.22
2.48
2.42
2.06
1.52
0.96
0.54
0.40
0.58
0.98
1.40
1.64
1.57
1.22
0.74
0.28
-0.03
-0.19
-0.23
-0.19
-0.10
0.02
0.12
0.12
-0.02
-0.27
-0.48
-0.49
-0.22
0.27
0.75
0.96
0.77
0.27
-0.30
-0.62
-0.49
0.09
0.93
1.77
2.35
2.52
2.29
1.76
1.07
0.34
-0.36
-1.01
-1.58
-2.06
-2.45
-2.76
-3.03
-3.31
-3.63
-3.96
-4.25
-4.44
-4.55
-4.69
-4.96
-5.43
-6.03
-6.56
-6.84
-6.77
-6.42
-5.95
-5.51
-5.18
-4.91
-4.57
-4.08
-3.43
-2.68
-1.95
-1.31
-0.85
-0.57
-0.45
-0.40
-0.35
-0.20
0.06
0.40
0.74
1.03
1.26
1.44
1.59
1.71
1.76
1.72
1.58
1.42
1.32
1.29
1.27
1.16
0.82
0.25
-0.46
-1.14
-1.61
-1.81
-1.80
-1.72
-1.69
-1.73
-1.75
-1.60
-1.18
-0.49
0.32
1.07
1.57
1.76
1.65
1.35
0.97
0.62
0.40
0.40
0.63
1.05
1.50
1.80
1.79
1.43
0.84
0.23
-0.21
-0.41
-0.41
-0.29
-0.15
0.01
0.23
0.54
0.88
1.17
1.32
1.30
1.18
1.03
0.96
1.02
1.19
1.39
1.51
1.40
0.99
0.27
-0.59
-1.37
-1.82
-1.83
-1.49
-1.02
-0.66
-0.50
-0.51
-0.49
-0.30
0.13
0.70
1.27
1.68
1.85
1.79
1.59
1.33
1.15
1.12
1.30
1.63
1.98
2.18
2.13
1.85
1.49
1.22
1.13
1.14
1.07
0.77
0.21
-0.43
-0.91
-1.06
-0.88
-0.57
-0.37
-0.46
-0.81
-1.24
-1.50
-1.48
-1.18
-0.78
-0.47
-0.36
-0.44
-0.54
-0.50
-0.24
0.18
0.62
0.91
0.98
0.86
0.72
0.68
0.83
1.06
1.22
1.16
0.87
0.44
0.05
-0.14
-0.10
0.13
0.38
0.52
0.50
0.34
0.18
0.08
0.05
0.01
-0.17
-0.59
-1.21
-1.87
-2.35
-2.47
-2.18
-1.59
-0.89
-0.28
0.14
0.38
0.52
0.64
0.79
0.97
1.14
1.25
1.30
1.28
1.22
1.14
1.07
1.06
1.13
1.29
1.50
1.71
1.86
1.88
1.79
1.59
1.33
1.06
0.81
0.60
0.43
0.27
0.10
-0.07
-0.21
-0.27
-0.20
-0.04
0.14
0.22
0.12
-0.16
-0.56
-0.96
-1.26
-1.45
-1.57
-1.72
-1.93
-2.15
-2.30
-2.28
-2.07
-1.72
-1.32
-0.96
-0.67
-0.43
-0.17
0.12
0.42
0.68
0.88
1.01
1.14
1.32
1.53
1.75
1.89
1.93
1.91
1.87
1.86
1.85
1.80
1.64
1.38
1.05
0.74
0.52
0.42
0.41
0.45
0.48
0.44
0.28
-0.03
-0.49
-1.02
-1.52
-1.88
-1.99
-1.84
-1.48
-1.05
-0.71
-0.57
-0.61
-0.75
-0.84
-0.77
-0.51
-0.14
0.19
0.38
0.41
0.35
0.31
0.37
0.52
0.73
0.95
1.16
1.36
1.57
1.76
1.86
1.83
1.67
1.42
1.15
0.92
0.74
0.59
0.42
0.20
-0.06
-0.36
-0.65
-0.93
-1.20
-1.48
-1.77
-2.09
-2.41
-2.70
-2.90
-2.96
-2.87
-2.67
-2.42
-2.19
-1.97
-1.72
-1.42
-1.06
-0.69
-0.38
-0.17
-0.03
0.10
0.26
0.48
0.73
0.99
1.24
1.48
1.68
1.81
1.80
1.66
1.47
1.31
1.28
1.39
1.56
1.67
1.64
1.42
1.05
0.60
0.16
-0.21
-0.42
-0.44
-0.28
-0.00
0.28
0.44
0.41
0.19
-0.19
-0.60
-0.98
-1.25
-1.39
-1.41
-1.39
-1.38
-1.46
-1.66
-1.96
-2.31
-2.65
-2.91
-3.02
-2.93
-2.61
-2.09
-1.46
-0.84
-0.36
-0.09
0.02
0.06
0.16
0.42
0.86
1.43
2.03
2.52
2.81
2.86
2.68
2.36
2.00
1.71
1.51
1.42
1.38
1.35
1.26
1.10
0.84
0.48
0.05
-0.43
-0.89
