1513817053.00
64.000000
-0.00
-0.00
-0.00
-0.00
-0.00
-0.00
-0.00
-0.00
-0.00
-0.00
0.00
0.01
0.01
-0.00
-0.03
-0.05
-0.05
0.00
0.13
0.36
0.66
1.01
1.37
1.72
2.06
2.40
2.79
3.24
3.80
4.42
5.06
5.66
6.20
6.68
7.15
7.68
8.31
9.14
10.09
11.04
11.88
12.56
13.14
13.76
14.65
15.96
17.91
20.32
22.90
25.38
27.58
29.57
31.68
34.32
37.81
42.54
48.15
54.10
59.83
64.97
69.58
74.14
79.34
85.71
93.76
103.00
112.62
121.73
129.77
136.75
143.30
150.75
157.77
166.64
177.95
191.79
206.97
220.57
228.25
225.36
208.53
176.87
132.76
80.05
23.07
-34.94
-92.44
-149.16
-205.23
-260.37
-313.74
-363.87
-409.83
-450.91
-486.50
-515.74
-537.23
-549.22
-549.96
-538.37
-514.21
-478.67
-433.88
-382.45
-327.02
-269.84
-212.63
-156.66
-102.95
-52.37
-5.90
35.58
71.43
101.35
125.50
144.38
158.69
169.15
176.37
180.75
182.57
182.07
179.51
175.23
169.65
163.18
156.15
148.81
141.30
133.69
126.02
118.33
110.69
103.16
95.80
88.68
81.83
75.25
68.95
62.95
57.25
51.86
46.78
42.03
37.59
33.45
29.61
26.07
22.81
19.83
17.11
14.67
12.48
10.54
8.83
7.35
6.07
4.97
4.05
3.27
2.62
2.09
1.65
1.30
1.02
0.80
0.62
0.49
0.40
0.33
0.28
0.26
0.25
0.25
0.26
0.28
0.30
0.33
0.37
0.40
0.45
0.49
0.54
0.60
0.67
0.74
0.82
0.90
1.00
1.11
1.22
1.35
1.48
1.62
1.77
1.93
2.11
2.30
2.50
2.73
2.98
3.26
3.58
3.93
4.32
4.76
5.24
5.76
6.34
6.96
7.64
8.37
9.16
10.00
10.90
11.84
12.83
13.87
14.98
16.16
17.40
18.70
20.06
21.46
22.86
24.19
25.40
26.37
27.05
27.30
27.06
26.27
24.91
23.01
20.62
17.84
14.82
11.70
8.62
5.71
3.07
0.72
-1.34
-3.21
-4.99
-6.82
-8.85
-11.21
-13.95
-17.04
-20.34
-23.61
-26.59
-28.89
-30.17
-30.13
-28.56
-25.36
-20.57
-14.44
-7.30
0.44
8.38
16.15
23.29
29.40
34.10
37.12
38.27
37.56
35.19
31.60
27.42
22.99
18.72
14.89
11.72
9.27
7.67
7.13
8.00
10.73
15.16
21.05
27.89
34.84
40.97
45.51
48.20
49.40
50.04
50.52
51.11
51.36
50.09
45.62
36.25
20.90
-1.06
-24.95
-48.18
-69.28
-88.73
-109.00
-133.46
-164.53
-201.97
-242.41
-279.98
-309.21
-325.86
-327.97
-315.74
-290.53
-254.57
-210.66
-162.58
-114.70
-71.50
-35.34
-5.52
20.88
47.13
73.98
98.37
114.31
116.10
101.85
75.74
46.99
25.17
15.72
17.09
22.48
24.16
17.78
4.26
-11.72
-25.19
-34.90
-43.89
-57.52
-79.79
-109.93
-142.42
-169.08
-183.24
-182.37
-169.13
-150.04
-132.80
-123.29
-123.19
-129.89
-138.00
-142.59
-141.64
-136.96
-132.76
-132.80
-138.11
-145.86
-150.66
-146.99
-132.04
-106.90
-75.86
-44.34
-16.37
6.68
26.15
44.52
64.25
86.84
112.38
140.48
170.58
202.09
233.75
262.98
285.69
297.04
293.41
274.45
244.12
209.06
175.28
144.67
114.24
78.57
34.22
-16.33
-64.52
-98.73
-109.90
-95.32
-59.47
-11.56
38.17
81.56
113.96
133.72
140.99
137.00
124.37
107.29
90.59
78.07
70.30
63.32
49.49
20.59
-27.76
-92.99
-165.15
-230.35
-275.84
-294.74
-287.61
-260.52
-221.39
-177.08
-133.20
-95.25
-69.46
-61.00
-71.19
-95.07
-122.57
-142.56
-147.76
-137.51
-116.59
-91.81
-68.53
-49.17
-33.51
-21.13
-12.60
-8.76
-9.34
-11.47
-10.77
-3.54
11.60
34.39
62.83
94.14
125.54
154.09
176.18
187.27
182.80
160.16
124.02
82.96
46.31
20.58
7.66
5.30
8.80
13.10
14.80
19.82
35.07
63.88
103.62
147.60
189.59
226.57
258.74
288.09
327.11
385.16
463.38
553.24
641.94
719.79
783.61
835.60
880.43
936.63
1018.56
1130.06
1262.38
1400.48
1531.91
1650.87
1757.08
1763.81
1616.31
1311.47
907.18
485.32
105.49
-210.43
-466.56
-675.64
-848.00
-974.25
-1044.04
-1056.11
-1023.55
-968.32
-910.75
-863.05
-828.86
-806.53
-781.97
-744.06
-689.96
-626.37
-564.24
-511.80
-471.88
-443.05
-422.60
-401.58
-373.64
-337.37
-296.85
-258.86
-227.92
-205.19
-189.36
-178.34
-167.11
-152.36
-133.22
-111.52
-90.15
-71.05
-54.60
-39.97
-26.16
-11.12
5.88
24.70
44.30
63.30
80.84
96.65
111.00
124.30
137.00
148.70
159.12
167.98
175.05
180.05
182.50
181.53
175.50
167.40
158.04
147.97
137.67
127.56
118.05
109.49
102.16
96.34
92.25
89.37
87.31
85.74
84.34
82.87
81.16
79.14
76.85
74.48
71.71
68.44
64.65
60.40
55.74
50.76
45.50
40.05
34.55
28.83
22.84
16.66
10.42
4.26
-1.63
-7.10
-12.03
-16.33
-20.10
-23.44
-26.40
-28.99
-31.82
-35.21
-38.97
-42.57
-45.64
-48.22
-50.57
-52.88
-55.09
-57.63
-60.58
-63.60
-66.21
-68.21
-69.92
-71.84
-74.35
-77.47
-82.45
-89.82
-98.91
-108.42
-117.56
-126.55
-136.10
-146.76
-158.40
-174.63
-197.08
-223.79
-250.56
-274.27
-294.44
-312.40
-329.87
-348.15
-376.41
-419.23
-472.18
-524.29
-565.60
-592.19
-606.41
-614.66
-623.55
-650.14
-699.88
-761.15
-812.00
-835.32
-827.39
-795.76
-752.79
-710.28
-695.34
-724.51
-795.82
-892.32
-994.61
-1087.54
-1160.04
-1204.39
-1103.13
-814.06
-394.18
39.34
396.82
651.02
816.01
917.41
977.32
1010.22
1007.04
963.72
891.46
812.38
745.00
696.44
664.64
643.66
627.70
599.37
549.49
483.08
415.13
358.87
319.73
296.44
284.77
279.47
269.22
247.74
217.62
187.48
164.79
152.62
149.76
152.74
156.43
153.61
140.30
117.95
91.41
65.34
43.69
28.19
18.57
10.67
1.10
-11.74
-26.55
-41.04
-53.02
-58.55
-54.51
-39.33
-21.36
-4.51
9.63
21.99
33.27
43.95
57.82
78.50
108.28
143.26
183.68
230.62
284.36
340.09
369.46
349.87
274.49
184.57
96.54
17.55
-60.12
-135.76
-205.89
-264.76
-303.27
-315.35
-301.95
-276.03
-249.10
-228.83
-216.12
-208.70
-202.76
-192.92
-176.02
-152.33
-128.38
-107.90
-92.05
-79.51
-69.56
-62.00
-55.68
-49.76
-44.35
-42.71
-46.08
-54.13
-64.86
-76.51
-87.62
-96.40
-101.63
-102.96
-101.86
-98.95
-93.97
-85.55
-72.23
-52.80
-26.47
6.53
44.68
85.51
126.64
166.45
204.54
241.36
278.13
316.63
359.14
407.91
464.63
528.00
592.76
650.33
691.30
708.69
700.71
671.35
628.79
583.08
541.33
506.12
476.51
450.36
426.23
403.97
383.88
365.89
350.69
337.09
322.59
304.71
281.84
253.62
220.47
182.89
141.41
98.64
55.53
11.21
-35.80
-87.04
-143.35
-205.20
-273.49
-361.26
-467.29
-578.31
-675.45
-742.07
-769.24
-755.87
-708.09
-638.50
-562.67
-492.50
-434.84
-391.75
-356.92
-323.77
-288.28
-250.31
-213.23
-180.78
-153.10
-127.29
-99.79
-65.52
-20.38
34.79
97.75
164.15
228.62
285.84
331.34
348.28
325.19
262.03
172.91
78.90
-4.08
-66.30
-115.72
-161.37
-209.74
-261.80
-315.87
-367.84
-409.75
-433.84
-436.24
-420.72
-396.05
-372.75
-356.30
-346.83
-341.11
-334.25
-325.22
-315.64
-307.78
-300.67
-290.71
-271.62
-240.41
-196.86
-144.21
-88.72
-37.20
5.05
36.33
57.57
71.41
80.36
86.15
89.17
88.48
83.10
72.78
58.90
43.90
30.68
21.68
18.68
22.39
32.18
46.64
63.88
82.31
100.77
118.72
136.24
154.05
172.86
192.67
212.38
229.90
242.66
248.57
246.84
238.27
225.08
210.05
195.51
183.14
174.55
171.67
176.86
191.45
213.86
239.33
261.55
275.95
282.80
287.54
298.10
320.14
353.37
391.56
426.21
451.93
469.30
483.25
498.23
513.75
523.84
520.95
501.55
469.28
433.40
402.73
380.52
362.74
341.27
309.42
266.10
216.17
167.56
126.71
94.71
68.03
41.26
10.61
-24.54
-62.46
-100.66
-137.13
-170.48
-201.47
-231.76
-262.50
-293.36
-322.35
-346.79
-364.62
-378.95
-389.73
-396.00
-396.69
-392.05
-383.34
-371.43
-356.79
-340.69
-323.50
-305.60
-289.52
-278.46
-274.94
-279.74
-291.43
-305.79
-319.24
-328.90
-328.11
-313.80
-286.86
-251.93
-215.16
-181.09
-153.19
-132.69
-117.75
-103.64
-85.28
-58.56
-22.91
18.45
61.07
98.31
124.89
139.00
141.80
135.71
123.82
108.08
83.47
52.67
19.43
-11.79
-37.34
-56.24
-69.86
-79.86
-88.84
-98.60
-107.91
-116.23
-121.44
-121.68
-117.24
-109.87
-100.74
-92.23
-86.29
-82.69
-80.62
-76.78
-67.48
-49.99
-25.82
5.15
41.51
81.37
124.09
159.28
178.89
198.67
229.86
268.09
310.58
353.01
390.82
421.15
442.46
455.97
442.37
390.94
305.61
203.92
104.23
17.89
-51.00
-103.30
-140.80
-165.99
-181.01
-187.71
-187.02
-180.09
-169.61
-157.19
-143.39
-127.34
-108.09
-84.89
-57.43
-29.64
-5.26
12.60
23.00
26.93
27.03
29.91
37.59
51.37
71.38
95.07
116.62
128.67
124.65
101.34
59.86
4.83
-58.38
-119.98
-169.62
-199.18
-203.80
-182.46
-138.17
-77.86
-11.44
51.67
100.57
128.81
138.77
139.41
139.44
142.09
147.05
146.11
132.50
103.89
62.92
15.48
-32.18
-73.52
-100.74
-109.53
-101.87
-83.05
-58.29
-30.63
-1.02
29.83
59.85
86.32
106.71
119.72
125.53
127.74
130.00
134.65
142.15
150.84
158.57
163.43
164.37
161.98
157.90
153.28
147.79
144.19
142.24
140.95
139.09
135.79
131.11
125.85
120.81
116.51
113.13
109.82
105.89
100.79
94.38
87.01
79.45
72.45
66.60
62.35
59.40
57.40
55.96
54.67
52.61
49.18
44.34
38.54
32.42
26.31
20.04
13.54
6.86
-0.44
-8.56
-17.17
-25.53
-32.97
-39.11
-44.28
-48.84
-53.15
-58.92
-67.29
-78.05
-89.70
-100.62
-109.28
-115.76
-120.35
-123.21
-128.60
-139.36
-154.87
-171.34
-184.87
-191.97
-193.66
-191.63
-187.31
-190.27
-207.23
-237.51
-273.83
-308.57
-334.71
-354.15
-369.86
-383.83
-410.68
-460.25
-530.46
-608.63
-681.91
-738.57
-781.18
-814.47
-841.86
-882.94
-951.08
-1043.77
-1144.52
-1236.46
-1303.86
-1348.96
-1376.78
-1278.78
-1002.66
-581.78
-117.05
296.88
575.50
754.29
866.89
934.01
966.92
961.76
911.43
821.79
722.26
639.04
591.85
576.57
581.58
596.71
602.67
587.27
552.30
510.73
474.89
450.04
436.09
428.61
423.18
409.13
379.92
337.63
291.01
247.63
213.62
186.08
164.18
144.29
120.39
89.59
54.09
19.36
-10.20
-31.10
-44.05
-55.53
-72.69
-101.14
-142.71
-195.35
-255.14
-318.50
-382.62
-421.98
-421.38
-381.35
-317.13
-248.08
-187.45
-140.67
-107.72
-85.27
-67.18
-49.76
-29.36
-2.28
33.04
74.33
115.49
149.71
172.91
185.60
188.64
183.99
174.01
160.92
146.57
132.45
120.19
111.55
107.68
106.63
105.29
101.17
93.26
82.40
70.37
59.27
50.81
45.85
43.24
41.03
37.48
31.76
24.12
15.51
7.18
0.19
-4.93
-8.57
-11.72
-15.35
-20.06
-25.85
-32.35
-38.96
-45.11
-50.45
-54.83
-58.36
-61.21
-63.42
-64.82
-65.00
-63.55
-60.11
-54.88
-47.67
-38.69
-28.40
-17.36
-6.17
4.61
14.44
22.93
29.79
34.96
38.47
40.44
41.12
40.79
39.72
38.17
36.30
34.28
32.28
30.39
28.68
27.20
25.93
24.80
23.76
22.73
21.70
20.80
20.17
19.90
19.99
20.30
20.53
20.30
19.22
17.05
13.86
9.92
5.51
0.88
-3.87
-8.84
-14.23
-20.21
-26.68
-33.05
-38.59
-42.60
-44.78
-45.29
-44.79
-44.12
-43.90
-44.20
-44.16
-42.64
-38.61
-31.63
-21.90
-9.88
4.25
20.98
39.06
58.18
77.70
96.54
113.37
127.05
136.85
142.44
143.96
142.23
139.45
138.75
143.79
157.55
181.25
213.48
250.20
285.65
313.75
330.27
334.05
327.97
318.49
313.59
319.46
337.45
362.91
386.53
398.49
392.37
367.64
329.13
283.98
238.31
195.11
154.48
115.20
76.80
40.12
6.81
-21.99
-46.86
-69.98
-94.55
-123.21
-157.03
-195.03
-235.19
-275.68
-316.09
-357.21
-399.44
-440.82
-476.04
-497.75
-499.26
-477.64
-435.16
-378.03
-313.78
-248.41
-185.39
-126.30
-72.80
-27.79
5.35
24.86
32.79
35.24
40.36
54.88
81.28
117.03
155.88
190.69
215.75
227.99
226.69
212.76
187.82
154.26
115.25
74.45
35.08
-0.97
-33.94
-65.87
-99.24
-135.77
-176.19
-220.01
-265.95
-311.82
-354.83
-392.31
-423.20
-449.64
-476.94
-511.48
-556.93
-611.09
-665.48
-708.40
-730.25
-727.84
-705.55
-672.41
-636.94
-603.10
-569.35
-531.03
-483.93
-426.89
-361.68
-291.01
-216.71
-138.28
-54.26
36.12
131.36
227.79
320.58
405.66
479.87
540.11
582.29
601.49
594.07
560.33
506.06
441.27
377.45
323.91
286.09
266.19
265.15
284.00
323.03
379.24
443.77
502.77
541.17
548.20
521.30
466.41
394.56
317.11
241.68
170.47
101.88
33.59
-34.75
-100.78
-160.63
-210.80
-249.53
-273.65
-280.90
-270.39
-243.47
-203.82
-156.58
-107.00
-59.52
-17.49
16.74
41.43
56.08
61.68
60.61
56.01
50.87
47.21
45.79
46.36
47.81
49.23
50.35
51.66
54.10
58.39
64.50
71.65
78.51
83.56
86.01
85.95
84.28
82.20
80.53
79.06
77.01
72.45
63.53
49.59
31.23
10.05
-12.08
-33.64
-54.06
-73.64
-91.75
-109.20
-126.72
-144.84
-163.62
-181.90
-196.67
-203.39
-197.44
-176.48
-142.50
-101.52
-61.80
-30.75
-12.09
-5.03
-5.64
-9.53
-13.95
-18.55
-23.90
-30.26
-36.84
-42.03
-44.38
-43.50
-40.26
-36.00
-32.18
-29.41
-26.74
-22.80
-16.42
-7.28
3.87
15.38
25.39
32.30
35.55
35.51
33.14
29.58
25.64
21.65
17.52
13.08
8.28
3.52
-0.44
-2.79
-2.85
-0.40
4.27
10.48
17.33
23.96
29.65
34.09
36.98
38.16
37.34
34.29
28.92
21.32
11.87
1.18
-9.90
-20.62
-30.59
-39.87
-48.86
-57.83
-66.98
-76.11
-84.64
-91.66
-96.23
-97.76
-96.33
-92.51
-86.43
-78.01
-66.36
-51.59
-33.30
-10.85
15.77
45.55
76.76
108.23
138.86
168.19
196.39
223.72
251.76
282.81
319.19
362.02
410.70
460.48
503.30
530.21
534.21
514.74
477.60
432.45
381.77
329.12
276.14
223.35
177.92
140.69
111.79
91.07
75.87
63.27
50.98
36.26
17.06
-7.44
-37.65
-71.95
-108.39
-145.36
-182.61
-219.87
-257.56
-296.32
-336.84
-381.09
-430.38
-485.11
-543.40
-600.71
-649.14
-680.11
-687.83
-671.61
-637.26
-593.61
-549.44
-510.08
-476.94
-447.41
-417.25
-382.86
-341.98
-293.72
-237.02
-170.41
-87.96
10.69
120.11
230.52
331.17
414.56
477.35
518.99
539.03
535.79
506.78
452.29
377.79
293.65
212.56
145.09
96.81
67.47
52.73
46.44
43.56
40.57
35.02
25.16
10.76
-5.46
-17.50
-17.76
-0.70
34.58
82.64
132.77
172.31
190.67
182.90
151.05
103.26
50.64
3.70
-30.71
-50.97
-59.95
-62.76
-63.83
-64.98
-65.26
-62.72
-56.41
-47.51
-39.03
-34.16
-34.66
-40.29
-49.06
-57.74
-62.89
-61.13
-49.96
-28.63
0.77
32.80
59.71
73.77
70.78
52.93
28.17
7.77
1.85
14.84
43.63
79.07
109.73
126.28
124.68
107.05
80.02
51.69
28.59
13.59
6.20
4.02
4.28
5.05
5.32
4.46
2.01
-2.24
-7.91
-13.49
-16.86
-16.09
-10.76
-2.33
6.42
12.73
14.81
12.54
7.01
-0.17
-7.00
-11.61
-12.21
-7.46
2.97
17.83
34.54
49.47
59.71
64.25
64.26
62.76
63.16
68.01
78.10
92.71
109.43
126.09
141.54
155.46
168.00
179.06
188.17
194.53
197.51
195.89
189.25
178.06
163.25
145.71
125.95
103.71
77.54
53.56
34.90
24.00
22.65
31.61
50.36
77.26
109.73
144.84
179.74
210.73
234.92
250.17
255.12
248.91
231.40
202.98
164.72
118.33
65.36
8.05
-50.79
-107.80
-159.54
-202.61
-234.23
-252.45
-256.50
-247.23
-226.56
-197.20
-162.15
-124.54
-87.07
-51.97
-20.89
5.21
25.67
40.45
49.90
54.75
55.79
53.92
50.00
44.72
38.78
32.61
26.61
21.03
16.10
11.84
8.18
5.00
1.24
-3.76
-10.03
-16.78
-23.13
-28.34
-32.03
-34.04
-34.29
-33.68
-32.80
-31.75
-30.00
-27.09
-22.95
-17.91
-12.59
-7.69
-5.90
-9.02
-17.10
-28.45
-41.00
-53.30
-64.63
-74.87
-84.19
-98.24
-120.79
-151.11
-184.34
-214.95
-239.61
-257.31
-268.79
-275.62
-290.56
-322.35
-370.34
-425.20
-476.13
-516.63
-544.97
-562.67
-572.81
-596.06
-646.54
-723.02
-810.28
-890.73
-953.81
-996.73
-1022.09
-1034.99
-1063.66
-1128.03
-1228.71
-1349.36
-1471.23
-1583.60
-1682.66
-1766.38
-1690.98
-1386.12
-890.41
-329.01
177.90
571.20
845.28
1021.44
1128.41
1192.00
1208.42
1173.83
1097.56
1002.10
910.93
838.47
789.33
761.72
751.01
734.75
695.87
635.89
570.02
515.35
482.01
472.00
482.02
506.41
528.27
532.22
515.56
485.77
452.72
423.15
399.43
381.07
366.51
348.63
322.58
289.10
252.85
218.74
189.91
167.01
149.05
134.55
120.03
102.91
83.19
64.43
46.71
30.56
15.89
2.16
-10.94
-23.80
-36.73
-49.52
-62.10
-74.69
-87.03
-98.96
-110.54
-121.32
-131.10
-139.84
-147.43
-153.92
-159.76
-165.04
-170.00
-175.02
-179.79
-184.10
-187.83
-190.73
-192.47
-192.70
-190.45
-184.16
-176.81
-169.13
-161.56
-154.32
-147.49
-141.08
-135.12
-129.54
-124.33
-119.64
-114.95
-110.07
-104.89
-99.47
-93.98
-88.65
-83.80
-79.80
-77.13
-75.71
-75.59
-76.73
-78.98
-82.01
-85.36
-88.47
-90.75
-91.70
-90.61
-87.08
-80.92
-72.25
-61.44
-49.08
-35.43
-21.13
-7.34
4.64
13.68
19.24
21.37
20.59
17.70
14.04
10.66
7.88
5.51
3.19
0.86
-1.19
-2.37
-1.93
2.03
10.64
23.47
38.91
55.19
71.36
87.48
104.22
122.50
146.60
178.64
216.90
256.56
292.70
322.66
346.39
365.57
382.60
407.15
444.83
493.83
546.37
594.31
633.50
664.07
688.55
710.31
744.75
801.85
880.89
971.06
1058.61
1132.14
1183.30
1206.31
1198.77
1178.43
1160.99
1151.94
1145.80
1134.23
1112.65
1080.79
1040.87
897.67
614.29
227.43
-173.55
-511.79
-758.02
-919.15
-1015.42
-1066.79
-1088.15
-1073.94
-1021.99
-941.45
-851.39
-770.18
-707.91
-666.48
-643.04
-633.26
-621.10
-596.65
-561.11
-523.19
-492.02
-471.61
-460.86
-456.17
-453.72
-443.11
-418.36
-380.87
-338.06
-298.06
-265.40
-240.90
-223.23
-210.44
-197.06
-179.59
-158.00
-135.28
-114.90
-98.71
-86.88
-78.67
-73.10
-67.98
-61.84
-54.39
-46.67
-39.95
-34.93
-31.67
-29.91
-29.31
-29.52
-30.28
-31.27
-32.59
-34.57
-37.43
-41.27
-45.96
-51.00
-55.66
-60.09
-62.08
-60.24
-53.81
-42.47
-26.58
-7.13
14.42
35.96
55.52
71.34
81.71
85.46
82.33
73.11
59.68
45.03
32.19
24.43
24.36
32.82
48.74
69.61
91.96
112.25
127.99
136.88
138.39
132.96
121.04
102.79
78.53
48.98
15.83
-17.62
-48.56
-73.80
-91.29
-101.37
-106.74
-111.46
-119.95
-136.00
-154.55
-175.63
-197.89
-217.50
-228.74
-226.00
-206.32
-171.73
-129.33
-87.76
-55.82
-37.06
-29.38
-26.72
-23.51
-14.38
3.46
25.30
46.67
62.10
68.78
67.35
61.49
56.83
58.74
68.91
85.20
103.69
119.83
131.82
140.54
147.96
155.41
162.63
167.69
168.94
166.57
161.68
156.44
152.98
151.94
152.44
153.19
150.66
142.05
126.09
102.65
72.95
39.17
3.73
-30.47
-61.43
-88.44
-111.37
-130.43
-145.92
-158.03
-167.28
-174.60
-180.95
-186.54
-189.91
-187.49
-175.21
-150.85
-115.91
-75.87
-38.32
-9.78
6.70
12.17
10.65
6.38
1.87
-2.42
-7.11
-12.51
-17.94
-22.06
-23.94
-23.61
-22.39
-22.01
-23.92
-28.42
-34.75
-41.59
-47.66
-52.74
-56.99
-61.44
-67.41
-75.64
-86.10
-98.06
-110.33
-121.61
-131.10
-138.23
-142.77
-144.41
-142.63
-135.93
-122.86
-102.49
-74.75
-40.80
-2.75
36.67
74.18
107.51
135.50
157.81
174.59
186.16
192.67
194.20
191.63
185.17
176.06
166.13
157.19
150.45
146.14
143.43
140.89
137.25
131.67
124.60
117.22
110.81
106.36
104.58
105.86
110.07
115.90
120.20
118.65
107.08
83.60
50.29
13.07
-20.52
-44.24
-55.64
-56.56
-51.28
-43.91
-36.74
-29.80
-22.11
-13.25
-3.95
4.16
9.46
11.14
9.55
4.95
-2.38
-12.77
-26.87
-45.13
-67.32
-92.20
-117.64
-140.81
-158.88
-169.62
-171.63
-164.48
-148.56
-124.95
-94.73
-61.05
-26.99
4.52
31.07
51.04
63.89
70.08
70.84
66.99
59.09
47.76
33.61
17.36
-0.28
-18.79
-37.54
-55.04
-68.63
-74.72
-69.89
-53.04
-26.81
2.63
27.79
41.91
42.70
32.38
15.93
-1.71
-17.65
-31.38
-43.76
-55.37
-65.96
-74.50
-80.35
-83.85
-86.50
-90.13
-96.03
-104.27
-113.61
-122.05
-127.35
-128.37
-124.00
-114.32
-100.02
-81.98
-60.82
-36.94
-10.84
16.73
44.06
69.52
91.36
108.20
119.27
124.79
125.68
123.22
118.68
113.15
107.44
101.84
96.85
91.98
87.15
82.45
77.98
73.81
70.09
66.97
64.52
62.58
60.93
59.49
58.17
56.87
55.59
54.49
53.79
53.83
54.74
56.22
58.05
60.03
61.89
63.71
66.00
69.21
73.39
77.50
80.02
79.70
75.82
68.52
57.35
42.05
22.04
-1.00
-24.50
-44.45
-56.91
-59.38
-52.11
-38.35
-22.89
-10.38
-3.76
-4.04
-10.38
-21.29
-35.23
-50.63
-65.59
-79.02
-90.39
-99.75
-108.39
-117.55
-127.89
-138.18
-144.97
-144.01
-131.48
-106.36
-71.11
-31.51
6.04
35.42
52.64
56.69
49.74
36.16
21.59
11.39
8.84
14.37
25.33
37.28
45.59
47.09
40.20
25.18
3.66
-22.36
-50.24
-76.99
-99.65
-116.79
-126.90
-130.33
-128.37
-122.34
-113.07
-100.36
-83.57
-62.32
-37.12
-8.87
18.74
41.95
58.12
64.91
61.19
48.05
29.19
10.29
-2.62
-6.07
-0.04
10.89
20.11
22.45
16.52
4.90
-7.70
-17.11
-22.02
-23.52
-24.28
-25.87
-27.99
-28.84
-26.36
-19.33
-8.12
5.50
19.35
31.75
42.03
50.61
58.58
66.80
75.58
83.92
89.67
90.58
85.27
73.62
57.12
38.52
20.88
7.22
-0.30
-0.39
7.47
22.37
41.15
58.47
68.34
64.49
46.94
20.87
-5.69
-25.35
-34.30
-33.63
-27.84
-21.55
-17.47
-15.82
-15.63
-16.54
-18.15
-19.24
-18.01
-12.50
-1.67
13.61
31.00
47.08
58.59
61.96
57.28
45.89
29.45
9.97
-10.01
-27.69
-41.01
-49.57
-54.78
-58.79
-63.63
-70.03
-77.14
-83.26
-86.92
-87.57
-86.35
-84.83
-84.47
-84.77
-83.95
-79.38
-68.33
-48.77
-19.92
16.78
57.01
94.28
121.02
130.72
120.85
94.48
59.41
25.57
0.62
-12.62
-15.84
-13.68
-11.09
-11.00
-13.72
-17.44
-19.02
-15.40
-5.25
11.35
32.02
52.11
66.06
69.58
59.72
38.87
11.18
-19.16
-48.98
-76.35
-99.85
-117.79
-128.04
-128.78
-119.43
-101.76
-78.98
-54.46
-30.88
-9.91
8.37
24.69
39.62
53.29
64.84
73.03
76.96
76.53
72.55
66.63
60.54
55.55
52.27
50.41
49.17
47.69
45.45
42.36
38.86
35.54
32.82
30.93
29.83
29.24
28.79
28.37
28.06
28.20
29.10
31.14
33.91
37.02
40.28
42.85
44.29
44.37
43.18
41.04
38.14
34.70
30.85
26.64
21.97
16.84
11.36
5.17
-0.87
-6.49
-11.64
-16.39
-20.95
-25.47
-29.87
-33.77
-36.50
-37.29
-35.88
-32.44
-27.76
-23.00
-19.25
-17.00
-16.01
-15.32
-13.61
-10.14
-4.86
1.36
6.97
10.67
11.65
10.06
6.77
2.94
-0.50
-2.71
-2.95
-0.89
2.88
6.23
5.80
-1.76
-17.77
-40.22
-63.72
-81.25
-87.77
-82.10
-67.26
-48.47
-30.55
-15.93
-4.78
4.29
12.20
18.69
23.00
24.70
24.47
23.97
25.11
29.25
36.63
46.20
56.10
64.54
70.19
72.57
71.92
68.79
63.64
56.58
47.41
35.86
22.25
7.18
-8.27
-22.77
-35.12
-44.59
-51.00
-54.74
-56.80
-57.60
-57.81
-57.92
-58.26
-58.99
-60.10
-61.50
-63.00
-64.40
-65.53
-66.60
-68.14
-70.88
-75.46
-82.08
-90.39
-99.35
-107.99
-114.75
-118.57
-119.11
-116.57
-111.36
-103.69
-93.43
-80.10
-62.82
-42.75
-21.32
-0.53
17.52
31.23
39.66
42.54
40.36
34.46
27.61
24.17
28.79
44.56
71.33
104.96
138.59
165.56
181.11
184.22
177.31
163.94
146.99
127.73
106.26
82.15
57.16
33.33
12.60
-3.96
-16.61
-26.67
-35.70
-44.80
-53.98
-62.28
-68.68
-72.26
-72.67
-70.20
-65.68
-59.99
-53.81
-47.48
-40.97
-34.55
-28.55
-23.54
-20.04
-18.37
-18.26
-18.74
-18.33
-15.30
-8.33
3.14
18.66
36.98
56.12
73.80
87.92
96.81
99.46
95.71
86.00
71.33
53.22
33.51
14.12
-3.11
-16.67
-25.59
-29.38
-28.32
-23.30
-15.53
-6.34
2.87
10.89
16.79
18.89
17.41
12.71
5.36
-3.97
-14.58
-25.81
-37.08
-47.91
-57.86
-66.37
-73.20
-78.18
-81.15
-82.04
-81.00
-78.34
-74.37
-69.52
-64.11
-58.60
-53.35
-48.51
-44.13
-40.24
-36.95
-34.17
-31.88
-29.95
-28.28
-26.62
-24.66
-22.21
-19.37
-16.58
-14.20
-12.74
-12.42
-13.18
-14.46
-15.26
-14.64
-12.09
-7.92
-2.56
3.14
8.83
14.48
20.98
30.10
44.03
65.02
90.69
119.59
150.12
181.34
212.34
242.50
271.75
300.46
329.36
358.82
388.57
415.88
435.45
439.06
418.36
368.42
290.23
190.98
81.94
-24.61
-121.32
-199.83
-255.09
-286.65
-297.52
-292.09
-274.91
-250.57
-223.49
-197.62
-175.33
-157.84
-144.94
-134.96
-125.84
-116.04
-105.17
-93.78
-82.93
-73.31
-65.48
-59.44
-54.47
-49.60
-43.99
-37.46
-30.48
-23.76
-17.68
-12.62
-8.58
-5.11
-1.62
2.62
8.04
14.59
21.95
29.72
37.26
43.89
48.84
51.45
51.26
47.85
40.89
30.24
16.21
-0.56
-19.01
-37.83
-55.80
-71.33
-83.09
-90.16
-92.15
-89.13
-81.57
-70.15
-53.99
-35.39
-15.99
3.06
21.08
37.28
51.10
62.10
69.99
74.41
75.17
72.61
67.20
59.94
51.45
42.73
34.90
29.11
26.20
26.45
30.01
36.42
45.20
54.66
63.18
69.41
72.32
71.24
65.80
56.24
42.99
29.79
17.49
6.57
-2.66
-10.02
-15.42
-18.86
-20.05
-22.20
-23.38
-22.49
-18.39
-10.03
3.35
22.11
46.14
74.84
106.77
140.71
173.91
203.93
228.84
247.28
258.14
260.22
254.46
241.06
221.17
195.45
165.30
132.80
100.40
70.40
44.70
24.72
10.99
3.92
2.33
5.14
11.89
22.57
36.90
53.94
72.15
89.41
103.91
111.72
110.56
100.90
85.33
66.54
45.75
22.66
-4.06
-35.67
-77.62
-132.20
-196.19
-262.08
-322.31
-372.46
-411.62
-441.31
-463.91
-489.25
-522.95
-562.81
-600.61
-628.62
-644.06
-648.99
-648.00
-645.96
-656.72
-688.70
-740.29
-801.13
-859.25
-905.28
-932.56
-936.49
-852.80
-658.92
-385.74
-99.88
142.39
318.69
433.63
502.62
540.78
558.59
552.62
522.10
473.57
423.14
385.89
369.87
375.78
399.12
432.08
458.06
462.88
440.41
396.35
343.20
294.12
258.45
239.36
233.97
230.79
220.44
200.94
177.75
157.99
145.80
140.92
140.23
140.09
135.73
125.40
111.27
98.13
89.62
86.59
87.30
89.00
89.48
85.79
76.57
62.70
46.62
30.54
15.82
2.73
-8.52
-17.90
-25.46
-31.54
-36.42
-40.93
-46.49
-54.21
-63.66
-72.43
-77.70
-74.76
-65.13
-52.96
-42.91
-38.11
-39.40
-46.20
-57.75
-73.74
-92.94
-111.91
-124.36
-123.47
-105.65
-73.10
-35.25
-0.27
24.65
36.81
37.93
31.88
22.08
10.42
-1.24
-10.11
-12.01
-3.44
16.64
45.24
76.46
103.80
122.71
133.61
139.66
145.14
152.16
159.67
163.95
160.81
147.63
122.52
90.41
58.69
35.52
25.99
29.87
41.25
50.72
48.99
29.52
-4.98
-47.82
-89.60
-122.04
-140.47
-144.79
-138.58
-127.53
-119.20
-115.91
-120.17
-132.65
-152.29
-176.49
-201.48
-223.00
-226.15
-223.57
-213.96
-200.70
-188.03
-178.46
-171.20
-161.93
-144.67
-114.03
-69.60
-11.55
53.76
117.07
168.69
200.39
206.92
186.80
142.70
79.90
8.96
-60.36
-119.62
-162.88
-187.53
-193.58
-182.86
-158.25
-124.46
-85.61
-47.37
-14.75
10.40
29.29
45.83
64.15
86.32
110.90
134.62
153.73
166.99
178.41
194.33
219.87
255.47
295.23
328.58
344.74
336.77
304.79
257.10
205.23
158.97
123.33
98.97
84.15
76.79
75.49
70.46
55.30
27.40
-10.80
-53.97
-95.62
-130.18
-154.47
-167.92
-173.84
-174.01
-170.10
-163.66
-156.25
-147.88
-138.15
-127.59
-117.85
-110.31
-103.75
-95.91
-84.30
-67.24
-41.95
-6.14
40.83
97.22
159.62
224.04
284.72
334.67
354.99
333.64
273.67
193.67
116.44
57.72
22.36
6.64
3.55
6.59
13.29
22.74
34.30
43.43
45.52
38.29
22.25
0.15
-24.70
-48.33
-68.87
-87.87
-110.49
-142.80
-185.28
-234.63
-282.95
-319.62
-333.88
-319.61
-278.18
-218.31
-151.69
-87.92
-31.95
16.14
58.60
97.81
134.07
165.53
189.18
202.55
204.42
193.81
170.09
133.35
85.76
31.31
-25.09
-79.01
-126.88
-165.14
-190.21
-198.60
-188.28
-160.13
-118.44
-70.60
-25.26
10.21
31.59
37.63
29.12
8.13
-22.72
-55.77
-79.48
-83.63
-65.84
-31.84
9.65
51.50
89.30
119.68
140.27
150.56
150.16
140.11
123.57
104.88
87.97
74.88
64.10
52.08
34.36
7.91
-28.69
-74.66
-126.61
-178.52
-214.79
-221.48
-193.96
-141.29
-81.09
-29.98
3.06
17.95
20.76
19.24
17.53
15.98
12.84
6.93
-0.95
-8.48
-13.21
-13.85
-10.60
-6.03
-3.33
-4.42
-9.31
-16.40
-23.58
-29.23
-32.67
-34.01
-34.82
-37.01
-41.78
-49.28
-58.61
-68.36
-76.91
-83.16
-84.91
-80.73
-69.99
-52.77
-29.93
-2.93
26.57
56.86
85.87
112.49
135.88
155.55
171.51
184.36
194.82
202.77
206.26
201.80
185.91
157.13
117.83
74.33
34.70
5.41
-10.87
-16.05
-14.56
-10.65
-6.61
-2.47
2.82
9.87
17.81
25.08
30.30
33.11
34.06
34.07
33.10
30.25
23.91
12.38
-5.03
-27.64
-53.20
-78.27
-99.41
-113.94
-120.33
-118.56
-109.81
-95.91
-79.08
-61.50
-45.14
-31.88
-23.02
-18.81
-18.51
-20.25
-21.46
-20.07
-15.24
-7.86
-0.01
6.81
12.47
18.18
25.82
36.61
49.60
62.09
70.21
71.01
63.79
49.40
29.51
6.25
-17.19
-36.42
-45.46
-40.06
-20.15
9.13
37.52
53.70
49.87
25.49
-13.03
-54.65
-91.03
-119.92
-139.05
-142.68
-127.99
-97.66
-57.22
-16.76
23.66
62.38
94.24
113.54
115.04
97.87
63.48
16.34
-36.73
-86.29
-119.89
-127.39
-108.40
-83.55
-64.64
-56.09
-53.79
-52.86
-47.38
-32.01
-8.21
16.37
31.97
34.39
24.99
9.69
-5.15
-15.06
-20.44
-25.97
-36.94
-55.73
-79.10
-101.84
-118.64
-125.99
-124.20
-115.06
-102.42
-90.19
-80.16
-69.94
-55.51
-32.98
-0.25
41.23
86.92
131.87
170.75
198.01
208.72
198.61
166.43
116.25
62.20
14.49
-17.07
-27.37
-18.40
2.21
24.32
39.67
44.45
40.04
28.95
13.25
-7.16
-33.07
-63.54
-94.70
-120.50
-136.62
-139.01
-128.87
-111.51
-94.64
-84.03
-80.64
-80.62
-77.19
-63.46
-32.24
18.86
86.80
163.38
238.20
300.96
343.19
360.40
353.91
333.98
313.48
302.63
304.61
315.43
326.16
327.04
312.23
265.54
188.01
97.79
19.08
-34.59
-63.99
-77.22
-81.32
-78.37
-67.68
-46.85
-17.12
15.98
44.62
63.68
73.35
75.88
74.95
73.16
71.77
69.93
65.35
55.34
40.46
23.32
7.95
-1.32
-2.39
2.35
8.80
17.13
24.37
27.65
22.05
4.63
-23.21
-56.62
-92.67
-127.58
-159.01
-188.82
-220.08
-259.55
-310.31
-369.98
-433.48
-500.71
-569.82
-635.42
-689.57
-721.13
-725.61
-702.55
-656.48
-561.48
-420.96
-262.72
-121.09
-30.98
22.19
54.92
77.68
100.17
125.03
147.42
165.50
182.10
202.52
233.39
274.03
321.99
374.29
426.17
467.49
489.86
489.64
468.39
433.77
392.41
351.69
317.67
292.04
269.91
245.33
214.49
176.30
132.66
83.41
28.15
-33.08
-99.47
-169.18
-237.54
-298.16
-345.73
-377.76
-396.30
-405.32
-407.89
-404.51
-393.84
-373.42
-342.12
-301.44
-254.08
-203.44
-153.16
-107.99
-74.15
-58.64
-64.90
-90.31
-124.51
-150.09
-148.66
-109.29
-34.24
62.02
158.09
235.25
281.93
295.41
281.88
252.18
217.13
184.66
160.72
148.83
152.79
172.62
191.28
188.49
152.16
88.24
17.03
-31.73
-48.56
-30.97
17.19
87.10
163.25
230.43
276.14
293.00
280.95
244.63
193.08
134.68
75.55
21.71
-20.12
-44.75
-57.80
-65.19
-74.18
-91.41
-121.41
-164.36
-214.32
-261.72
-299.16
-324.43
-337.12
-336.27
-321.28
-292.79
-252.63
-201.68
-139.58
-68.11
9.23
88.72
169.44
249.79
326.18
393.62
448.61
489.75
517.25
532.34
510.94
443.67
339.74
220.98
107.26
9.45
-70.51
-135.20
-188.02
-231.25
-262.43
-279.46
-283.09
-276.15
-260.77
-238.76
-212.00
-182.76
-153.67
-124.74
-95.56
-66.92
-49.51
-51.01
-73.91
-114.63
-165.68
-215.21
-258.33
-292.26
-316.30
-331.39
-337.79
-335.64
-325.67
-309.69
-290.54
-271.05
-253.13
-238.80
-230.09
-227.27
-229.63
-235.65
-243.30
-250.27
-253.97
-250.99
-238.40
-214.28
-177.30
-127.67
-67.19
0.75
71.54
139.76
200.63
250.03
284.89
303.79
306.61
294.54
269.76
235.24
194.22
150.27
106.71
66.34
31.36
3.08
-17.98
-32.02
-39.77
-42.34
-40.84
-36.43
-30.14
-22.84
-15.19
-7.65
-0.41
6.46
13.04
19.50
26.04
32.82
39.94
47.34
54.79
61.97
68.41
73.62
77.01
78.04
76.10
70.66
61.22
47.32
28.69
5.20
-22.97
-55.28
-90.76
-128.06
-165.48
-201.14
-233.12
-259.55
-278.95
-290.38
-293.47
-288.51
-276.34
-258.24
-235.74
-210.46
-183.91
-157.44
-132.14
-108.76
-87.79
-68.78
-51.26
-34.83
-19.39
-4.96
8.49
20.85
32.50
43.68
55.18
67.51
80.77
94.64
108.50
121.79
133.86
144.62
153.98
163.52
174.54
187.59
202.25
217.46
232.29
245.51
257.02
266.84
279.20
297.46
322.73
353.54
387.00
420.64
451.47
479.77
506.04
538.71
583.46
640.68
705.16
769.14
826.90
873.21
910.20
940.10
976.03
1024.95
1084.69
1144.99
1193.33
1222.41
1227.54
1217.34
1202.43
1208.62
1253.58
1340.80
1458.62
1586.39
1704.85
1795.61
1858.32
1787.96
1528.86
1088.03
538.49
-22.12
-521.40
-887.11
-1149.31
-1341.66
-1488.40
-1587.21
-1633.37
-1631.79
-1591.87
-1528.60
-1455.99
-1390.41
-1334.02
-1286.46
-1234.26
-1167.10
-1081.48
-981.73
-877.52
-777.94
-693.79
-624.72
-568.56
-515.69
-459.32
-397.50
-332.88
-270.71
-214.58
-167.88
-127.16
-90.46
-57.00
-31.68
-23.06
-39.24
-84.11
-154.72
-243.63
-334.54
-407.09
-443.99
-439.68
-401.37
-342.72
-276.62
-211.63
-152.79
-101.95
-60.58
-30.26
-11.61
-3.12
-1.15
-1.15
0.42
5.10
12.68
21.39
28.66
32.59
32.96
31.31
30.56
33.20
40.37
51.79
65.91
80.19
92.15
100.05
103.08
101.63
96.23
87.09
74.21
57.64
37.55
14.66
-9.81
-34.53
-57.18
-75.80
-89.18
-96.97
-99.55
-97.74
-92.50
-81.70
-67.80
-52.33
-36.04
-19.12
-1.53
16.93
36.25
56.39
76.19
94.25
110.23
123.81
134.87
142.93
147.52
147.92
143.73
133.55
117.00
95.32
70.36
44.09
18.26
-5.39
-25.91
-42.66
-57.03
-69.46
-79.36
-85.96
-88.68
-87.44
-82.21
-74.13
-52.28
-16.77
28.43
78.16
127.96
174.87
214.69
249.38
279.89
306.31
326.34
338.76
343.02
338.69
325.65
304.01
274.29
237.03
193.83
145.82
95.65
46.59
1.90
-35.64
-64.10
-82.70
-91.94
-92.77
-87.21
-76.94
-63.52
-48.41
-32.87
-17.98
-5.43
3.43
8.41
9.95
8.99
6.34
2.62
-1.74
-6.40
-13.98
-26.05
-41.90
-58.95
-74.68
-87.83
-98.24
-106.20
-112.13
-122.68
-141.61
-167.86
-196.17
-221.43
-241.35
-256.11
-266.93
-275.16
-291.83
-322.98
-367.01
-415.40
-459.58
-495.14
-521.34
-539.19
-550.00
-568.17
-601.65
-649.28
-701.08
-747.43
-784.39
-813.10
-836.86
-778.77
-608.61
-354.74
-86.68
140.80
309.09
423.98
499.37
548.93
583.43
587.41
560.75
510.80
453.48
403.53
368.32
348.33
340.19
338.86
324.30
293.18
246.77
195.07
148.19
110.47
80.89
56.00
32.38
-3.97
-60.21
-135.09
-217.52
-294.86
-358.99
-406.96
-438.97
-425.93
-359.02
-249.98
-126.27
-10.56
87.70
168.42
234.42
288.09
331.48
359.77
368.10
355.24
325.52
285.57
241.58
198.92
160.31
134.07
121.76
119.18
118.87
114.93
105.15
91.00
76.14
64.22
57.11
50.64
39.84
22.86
2.25
-17.05
-30.70
-36.09
-33.66
-23.47
-9.15
4.74
14.48
18.26
16.32
10.91
5.56
3.50
6.17
11.51
16.15
18.07
18.15
19.50
25.35
36.43
50.15
61.16
64.48
58.78
47.49
36.90
32.03
34.11
40.23
45.59
46.86
43.91
38.67
32.72
25.34
13.50
-5.68
-32.18
-61.77
-87.56
-103.57
-107.90
-103.39
-95.18
-87.24
-79.49
-67.98
-47.94
-17.54
19.60
55.20
79.55
86.22
74.66
49.98
19.99
-8.48
-31.91
-50.41
-65.12
-76.09
-80.77
-75.67
-58.66
-30.99
2.65
35.82
62.27
78.01
81.66
74.77
60.18
40.81
18.97
-3.79
-26.46
-48.94
-71.10
-92.58
-110.84
-123.04
-127.97
-127.87
-128.10
-134.31
-149.56
-171.02
-191.20
-198.74
-184.96
-148.46
-96.06
-39.20
11.75
50.43
77.05
95.26
112.58
135.48
167.05
206.30
250.28
296.35
341.50
383.95
403.17
382.94
320.73
230.31
130.43
35.22
-42.29
-103.63
-149.22
-179.05
-191.18
-185.13
-161.91
-126.49
-85.06
-42.20
-0.70
39.83
80.21
122.93
168.65
214.61
252.45
271.83
265.36
231.54
176.61
111.45
49.40
-2.97
-38.10
-54.02
-55.12
-49.93
-43.76
-37.54
-30.98
-23.68
-16.37
-10.08
-7.37
-10.27
-19.24
-33.26
-51.64
-75.17
-105.05
-141.24
-179.99
-215.30
-240.04
-248.97
-240.50
-217.80
-187.05
-154.38
-123.44
-94.41
-67.61
-45.43
-33.27
-36.05
-55.91
-90.50
-133.37
-175.84
-208.49
-225.08
-223.14
-204.87
-172.81
-129.10
-75.77
-16.19
44.48
100.59
145.79
175.14
185.69
181.15
170.06
161.76
161.76
162.83
155.19
131.12
100.01
64.86
27.74
-12.06
-51.93
-88.11
-115.05
-125.70
-114.90
-82.06
-34.32
17.78
62.83
91.39
99.08
89.51
72.69
60.40
61.71
79.19
111.51
154.33
201.00
232.83
233.17
195.24
125.94
40.63
-46.43
-124.98
-186.94
-233.94
-267.66
-287.89
-293.85
-285.71
-265.18
-234.66
-197.14
-154.99
-110.15
-63.04
-12.76
40.72
94.56
142.25
175.31
187.61
179.15
156.89
133.23
121.33
129.00
155.73
193.83
233.18
266.62
292.77
314.04
333.17
349.51
358.40
353.93
332.89
297.27
253.36
208.39
166.56
127.85
89.05
47.01
1.39
-44.66
-85.80
-117.13
-136.08
-143.10
-140.74
-132.70
-122.49
-113.04
-106.53
-104.35
-107.29
-115.88
-130.23
-149.65
-172.12
-193.79
-209.76
-215.89
-210.74
-196.58
-178.29
-160.97
-147.16
-135.65
-122.47
-103.75
-78.66
-50.48
-25.10
-8.16
-2.09
-5.17
-12.75
-19.85
-23.80
-25.05
-25.83
-28.25
-32.43
-36.22
-36.70
-32.11
-23.08
-12.67
-4.63
-1.38
-3.01
-7.17
-10.23
-9.04
-2.25
9.19
22.43
33.80
40.41
41.05
36.76
30.42
25.10
22.52
22.72
24.25
25.53
25.85
25.36
24.72
24.17
23.23
21.02
16.93
10.89
4.00
-1.74
-4.10
-1.27
7.21
19.92
33.55
44.09
48.12
44.63
35.33
23.80
13.70
6.95
2.88
-0.80
-6.39
-14.75
-24.58
-33.18
-38.07
-37.96
-33.45
-26.51
-19.16
-12.60
-6.86
-1.62
2.95
5.55
4.58
-0.93
-10.09
-20.11
-27.57
-30.02
-27.30
-21.28
-14.80
-10.08
-7.96
-7.89
-8.98
-10.73
-13.26
-16.81
-21.03
-24.97
-27.04
-25.53
-19.23
-8.05
6.80
23.09
38.13
49.45
55.73
57.05
54.63
50.05
44.63
38.96
33.29
27.81
22.89
18.73
15.09
11.45
7.11
2.10
-2.74
-6.26
-7.99
-8.56
-9.52
-12.16
-16.51
-21.18
-24.01
-23.58
-20.23
-15.91
-12.88
-12.53
-14.94
-18.96
-23.15
-26.64
-29.03
-30.26
-30.49
-29.99
-29.21
-28.84
-29.41
-31.03
-32.92
-33.77
-32.36
-27.84
-20.04
-9.22
3.97
18.46
32.64
44.97
54.39
60.93
66.08
71.93
80.02
90.24
100.96
109.88
115.25
116.61
114.65
110.95
107.47
106.02
108.01
113.91
122.54
130.95
135.30
132.08
119.69
98.86
72.00
41.93
10.42
-22.33
-57.19
-94.93
-134.57
-172.45
-202.61
-217.97
-212.79
-185.91
-142.00
-90.54
-42.70
-6.95
13.79
22.15
23.76
23.82
25.09
27.84
31.44
35.75
41.57
49.98
61.22
74.66
89.29
104.37
118.83
130.26
134.44
126.58
103.66
66.73
21.44
-24.34
-63.86
-94.27
-117.09
-136.18
-153.96
-169.33
-178.46
-177.47
-166.04
-148.03
-129.36
-114.50
-104.04
-94.69
-81.83
-63.06
-39.82
-17.51
-1.67
5.21
4.32
-1.07
-8.43
-17.15
-28.40
-43.32
-62.49
-84.18
-105.32
-123.58
-138.60
-151.08
-160.95
-166.75
-166.38
-160.33
-150.65
-139.49
-127.85
-114.58
-96.27
-68.87
-30.59
24.05
88.40
147.13
185.77
199.61
193.67
176.48
154.81
131.78
107.80
82.85
59.83
44.34
42.28
56.85
86.91
128.41
172.77
210.01
231.31
233.34
219.44
197.65
176.54
161.82
154.86
153.21
153.15
151.20
146.05
138.35
128.97
117.50
102.10
80.76
52.50
18.49
-18.54
-54.95
-87.74
-115.84
-140.44
-164.10
-189.11
-216.18
-243.59
-267.34
-282.33
-283.89
-269.48
-240.21
-201.21
-160.80
-128.10
-109.90
-108.19
-119.79
-137.75
-154.12
-162.43
-158.90
-142.28
-112.84
-72.09
-23.46
26.78
70.01
97.64
104.52
91.35
64.06
30.83
-1.70
-30.84
-57.10
-81.60
-103.38
-118.82
-122.83
-111.38
-83.67
-42.70
5.81
56.33
105.44
152.09
195.98
235.78
267.78
286.44
286.26
264.63
224.60
175.25
128.56
93.93
73.78
62.61
50.28
27.11
-11.41
-61.99
-114.92
-158.32
-183.28
-186.75
-170.82
-139.82
-98.11
-50.24
-1.02
43.45
76.44
91.96
87.39
63.22
28.68
0.21
-8.42
6.11
35.03
66.89
92.84
108.47
113.77
110.00
101.32
89.03
76.99
68.39
62.92
56.38
43.53
21.51
-7.16
-35.88
-58.97
-73.62
-81.47
-89.29
-101.92
-121.51
-146.68
-171.66
-184.67
-178.98
-153.81
-114.47
-69.90
-30.11
1.44
23.78
38.02
44.47
40.91
25.08
-2.81
-38.44
-73.57
-99.50
-110.27
-100.93
-72.32
-30.74
15.27
58.92
96.64
128.23
154.60
170.37
171.03
154.42
122.58
80.04
31.94
-18.30
-68.72
-117.52
-165.11
-208.01
-241.05
-259.53
-261.85
-248.02
-219.37
-174.40
-117.90
-60.18
-13.33
13.12
17.53
5.73
-10.26
-18.97
-15.29
-2.66
10.64
16.89
12.72
5.57
-2.17
-9.22
-16.86
-28.60
-48.42
-76.97
-111.18
-145.90
-175.63
-197.98
-212.61
-220.97
-224.04
-227.12
-230.26
-231.15
-226.69
-213.09
-189.76
-158.44
-122.58
-84.99
-46.64
-5.69
40.07
92.15
153.51
222.70
293.87
358.65
410.28
445.95
467.46
478.57
483.60
491.45
506.59
527.37
548.11
564.08
574.12
580.33
585.56
592.64
610.60
643.34
686.41
728.35
756.47
761.14
737.65
686.46
566.92
374.41
142.87
-74.33
-239.35
-343.76
-398.26
-418.45
-417.24
-401.87
-371.22
-327.19
-278.08
-235.77
-209.25
-201.11
-209.24
-232.17
-263.77
-291.74
-308.18
-312.72
-310.51
-306.76
-303.23
-299.38
-293.53
-284.05
-267.49
-243.63
-215.75
-189.07
-167.50
-151.83
-141.37
-134.51
-129.77
-124.95
-119.72
-114.93
-112.08
-114.17
-118.73
-122.77
-123.12
-117.12
-102.71
-79.54
-48.03
-10.13
31.88
75.33
117.05
154.29
184.65
206.25
218.03
221.73
219.83
215.73
212.32
211.32
213.89
219.64
226.76
232.07
235.20
234.41
227.94
212.57
184.47
144.88
97.92
49.72
-6.26
-72.63
-151.54
-233.25
-311.09
-380.90
-439.06
-483.51
-513.54
-529.73
-531.56
-519.31
-491.83
-450.83
-400.73
-345.90
-291.40
-242.50
-204.63
-181.97
-178.75
-196.09
-218.84
-234.83
-234.25
-212.64
-170.88
-114.31
-51.52
-1.89
32.28
52.36
61.41
65.69
72.19
86.25
113.32
156.79
213.35
275.64
330.96
365.71
371.95
349.73
306.31
252.76
199.60
153.68
118.83
94.38
77.70
67.10
62.76
64.82
71.82
79.81
83.92
81.36
71.08
55.36
37.36
22.42
15.88
20.79
36.30
57.36
77.18
89.02
88.92
77.16
58.51
39.17
22.99
9.95
-2.72
-17.72
-35.59
-54.01
-69.05
-75.96
-71.29
-54.40
-27.00
7.80
46.35
84.43
116.84
133.35
126.28
97.29
57.88
23.11
3.35
0.85
11.54
28.67
46.53
62.96
79.97
97.02
111.12
118.27
115.31
100.86
75.31
40.22
-2.61
-46.83
-87.33
-122.10
-151.96
-178.50
-201.63
-218.51
-224.47
-215.27
-190.32
-155.05
-118.30
-87.83
-66.73
-52.68
-40.55
-26.31
-9.25
8.07
21.35
28.05
28.88
26.84
24.97
24.46
24.42
23.31
20.47
15.94
10.79
6.32
3.48
2.19
1.80
1.18
-0.55
-3.56
-7.56
-11.79
-15.47
-18.15
-20.14
-22.13
-25.23
-30.37
-37.82
-47.30
-57.99
-68.75
-78.22
-85.46
-88.96
-87.53
-80.30
-66.85
-47.45
-23.10
4.31
32.29
58.13
79.42
94.30
101.86
102.18
96.26
85.73
72.53
58.40
44.74
32.59
22.16
12.99
4.16
-5.46
-16.81
-30.39
-46.20
-63.61
-81.14
-97.26
-110.59
-120.20
-125.65
-127.05
-124.93
-120.10
-113.46
-105.50
-96.94
-88.52
-81.19
-75.76
-72.84
-72.56
-74.54
-77.89
-81.01
-82.73
-82.36
-79.92
-75.84
-70.43
-63.15
-52.37
-39.14
-22.88
-3.28
19.41
44.42
70.95
98.59
126.97
155.26
181.88
205.38
224.51
239.00
249.25
255.37
256.59
251.21
237.66
215.67
187.42
156.43
126.17
98.64
73.61
49.05
22.33
-8.73
-44.90
-84.88
-125.75
-163.43
-193.88
-214.69
-226.01
-229.93
-229.63
-227.32
-222.56
-212.52
-193.45
-163.11
-122.41
-75.49
-26.96
18.80
59.12
93.21
121.43
144.55
162.85
175.96
183.29
186.72
188.86
192.36
198.91
208.75
221.06
234.34
246.92
257.30
267.10
278.68
294.45
316.10
344.40
379.46
421.07
469.08
506.35
519.91
502.49
454.82
383.38
295.19
194.92
86.10
-26.07
-133.65
-225.07
-291.24
-328.94
-341.71
-337.45
-324.62
-309.08
-293.61
-279.15
-264.46
-248.99
-233.08
-217.64
-203.28
-189.96
-176.92
-163.49
-149.65
-134.90
-119.20
-102.73
-85.80
-68.44
-50.58
-32.12
-13.40
4.70
20.92
33.58
41.03
41.91
35.65
22.30
2.75
-21.57
-49.04
-77.58
-105.10
-129.45
-148.76
-161.32
-166.18
-162.93
-151.78
-133.71
-110.36
-83.80
-56.15
-29.53
-5.64
14.10
28.77
38.14
42.54
42.64
39.41
34.06
27.57
23.57
24.44
31.04
43.31
60.54
81.36
104.22
127.67
149.93
169.67
186.72
201.24
213.44
223.75
232.20
238.62
242.63
242.65
237.23
226.02
208.19
183.07
154.02
125.39
101.20
84.28
74.67
64.50
52.91
39.99
26.01
11.10
-6.18
-29.61
-54.89
-82.54
-113.74
-148.40
-186.61
-227.83
-270.63
-313.31
-354.41
-391.25
-421.67
-443.15
-453.65
-454.30
-448.85
-442.07
-437.78
-437.90
-440.05
-440.10
-433.67
-418.37
-395.41
-367.67
-336.85
-302.34
-262.97
-216.62
-163.19
-105.07
-46.64
7.21
53.28
91.32
131.66
176.55
221.82
259.55
283.69
292.82
289.17
276.75
259.75
241.24
221.50
200.88
180.13
160.50
143.05
128.20
115.57
104.35
93.27
79.99
63.65
45.14
26.66
10.66
-1.13
-8.91
-12.67
-12.78
-10.39
-5.50
3.04
16.81
37.10
64.28
97.03
133.03
168.68
198.32
215.37
214.28
192.93
154.53
107.16
61.19
25.41
3.83
-5.23
-6.88
-6.30
-6.13
-5.93
-3.93
1.19
8.92
17.23
23.84
27.11
26.75
22.28
13.79
1.96
-11.02
-21.38
-24.87
-18.65
-3.37
16.40
33.39
41.23
36.97
22.11
1.22
-20.64
-39.76
-54.32
-63.56
-66.60
-62.70
-52.73
-40.12
-30.20
-27.70
-33.95
-46.11
-57.75
-62.42
-56.76
-41.91
-22.36
-3.31
11.70
21.85
28.06
31.81
33.99
34.78
34.18
32.73
31.54
31.63
33.88
38.12
43.38
48.15
50.71
49.81
44.58
35.10
22.15
6.98
-9.10
-24.96
-39.90
-53.72
-66.34
-77.51
-86.50
-92.11
-92.91
-87.69
-76.29
-59.64
-40.17
-21.16
-5.99
2.53
2.17
-8.34
-29.15
-58.56
-92.26
-124.04
-147.21
-156.99
-152.37
-136.73
-116.21
-96.93
-82.44
-72.79
-65.66
-58.50
-50.22
-41.47
-33.92
-29.03
-27.07
-27.40
-29.33
-32.97
-39.40
-50.06
-65.70
-86.01
-109.49
-133.79
-156.35
-175.04
-188.52
-195.99
-199.74
-200.56
-198.69
-194.08
-186.49
-175.92
-162.75
-147.84
-132.29
-117.11
-102.57
-88.47
-74.24
-59.24
-42.94
-25.37
-7.15
10.57
26.32
38.94
47.47
51.32
50.39
45.12
36.25
24.73
11.67
-1.89
-14.85
-26.35
-35.90
-43.33
-48.74
-52.49
-54.96
-56.60
-57.71
-58.42
-58.71
-58.49
-57.70
-56.31
-54.47
-52.51
-51.01
-50.65
-52.13
-56.12
-63.09
-73.24
-86.42
-102.09
-119.33
-136.98
-153.68
-167.97
-178.39
-183.67
-182.84
-175.38
-161.29
-141.10
-115.93
-87.36
-57.25
-27.65
-0.43
22.76
40.78
53.03
59.59
61.13
58.81
54.22
48.98
44.88
43.34
45.41
51.64
61.98
75.66
91.37
107.35
121.50
131.84
136.65
134.76
125.89
110.64
90.50
67.66
44.71
24.16
8.18
-1.69
-4.86
-1.33
8.01
21.81
38.46
56.24
73.45
88.59
100.51
108.45
112.54
113.44
112.51
111.48
112.01
115.28
121.96
131.91
144.54
159.31
175.75
193.71
213.18
233.66
253.94
272.01
285.45
291.97
290.37
280.77
264.88
245.77
227.34
214.06
209.88
217.18
235.65
261.87
289.82
313.16
327.59
332.90
332.41
330.84
332.06
337.80
347.35
357.93
365.90
367.44
360.07
342.43
314.48
277.70
235.18
191.26
150.17
114.95
86.99
67.67
56.86
52.65
51.85
51.44
49.92
47.59
45.93
46.42
54.14
71.11
94.36
117.26
133.42
139.87
137.20
128.08
115.34
110.93
122.82
151.07
188.06
223.74
250.77
266.11
270.93
270.06
286.28
337.14
424.83
533.79
640.15
723.62
774.33
794.27
794.85
812.08
873.43
984.85
1129.51
1281.82
1421.89
1541.12
1640.09
1594.01
1341.03
905.50
388.64
-102.73
-508.79
-816.74
-1037.82
-1190.12
-1291.34
-1336.56
-1325.57
-1269.44
-1190.25
-1109.78
-1040.80
-987.87
-952.79
-938.61
-933.67
-930.22
-925.99
-924.99
-929.51
-936.22
-938.62
-931.92
-915.18
-873.61
-805.89
-717.37
-618.83
-521.43
-432.98
-357.60
-296.72
-249.50
-209.08
-170.34
-129.56
-87.20
-45.28
-6.51
27.23
53.61
70.54
78.35
76.98
67.43
50.06
26.15
-2.21
-30.83
-54.09
-66.19
-63.29
-46.07
-18.82
11.26
37.43
55.68
66.04
71.77
77.02
84.00
90.65
93.28
87.74
73.08
51.79
28.73
9.31
-3.03
-7.16
-4.85
1.82
11.63
25.88
45.16
68.27
92.36
113.12
126.01
126.17
111.30
82.69
46.93
9.66
-24.92
-54.44
-76.96
-90.97
-97.34
-96.78
-88.85
-68.86
-37.03
2.63
42.62
75.65
95.51
94.50
67.73
14.79
-54.70
-133.04
-213.44
-290.56
-357.72
-390.50
-371.72
-301.63
-219.31
-134.25
-48.88
40.36
127.77
206.32
269.63
310.13
322.88
300.97
251.08
185.19
117.63
58.29
12.33
-19.53
-41.41
-57.93
-71.97
-79.97
-81.07
-76.51
-69.23
-61.13
-53.42
-48.39
-47.83
-52.09
-57.15
-60.55
-61.32
-59.98
-57.09
-53.30
-50.21
-49.35
-51.21
-53.76
-55.84
-57.42
-59.20
-60.90
-60.49
-54.80
-40.60
-16.37
16.82
54.31
89.50
116.51
132.57
138.37
137.00
131.75
125.03
118.04
111.49
106.11
103.30
104.53
110.35
119.01
126.20
126.14
113.54
86.68
48.53
6.46
-30.94
-56.87
-69.38
-71.33
-68.17
-65.82
-66.61
-70.58
-76.03
-81.96
-88.21
-95.71
-105.65
-116.90
-127.57
-134.59
-135.78
-129.78
-117.28
-100.06
-80.49
-61.06
-42.86
-26.79
-12.44
0.17
11.21
20.27
26.72
30.43
31.06
29.78
27.06
24.26
21.93
20.51
20.20
20.72
22.57
25.51
30.62
37.81
47.63
59.78
73.40
87.51
100.20
110.64
117.36
120.13
118.23
111.85
102.02
89.70
76.37
62.67
50.09
39.16
30.66
24.21
19.18
15.62
13.14
11.61
10.31
9.77
10.19
11.89
14.47
17.09
19.56
21.25
20.91
17.18
9.65
-2.00
-16.38
-33.97
-56.77
-87.00
-126.65
-177.42
-238.09
-303.76
-366.28
-418.25
-454.92
-475.62
-482.97
-468.95
-430.87
-370.82
-295.21
-210.56
-123.54
-39.11
38.55
106.49
162.61
204.65
232.01
245.76
253.35
259.27
267.58
282.09
304.86
334.77
365.73
389.83
390.47
362.72
309.30
239.13
163.18
90.09
24.99
-31.20
-78.31
-116.12
-141.75
-153.77
-153.91
-143.42
-125.01
-101.67
-76.94
-53.17
-32.39
-15.29
-4.18
-1.18
-7.52
-24.03
-49.56
-82.11
-118.10
-153.63
-185.61
-211.48
-230.04
-240.41
-243.23
-238.75
-227.70
-210.39
-186.89
-157.70
-122.48
-82.18
-38.83
4.53
46.21
84.28
117.21
148.39
176.57
200.65
218.62
229.41
231.83
226.49
214.33
196.61
175.09
150.17
123.60
96.61
71.46
44.79
16.94
-10.07
-34.48
-54.62
-70.83
-83.05
-92.14
-98.69
-103.22
-105.37
-103.05
-94.76
-79.41
-58.14
-32.45
-4.78
22.54
47.77
70.19
92.05
115.58
143.02
174.82
210.41
248.37
287.20
326.35
353.25
359.76
342.75
306.84
261.43
215.78
175.27
140.58
110.29
82.05
56.74
35.82
20.83
12.13
8.80
9.57
12.88
16.88
18.10
13.43
-0.68
-25.93
-60.76
-99.84
-135.54
-161.12
-173.25
-173.17
-163.92
-149.07
-130.47
-108.33
-82.43
-53.36
-23.22
4.87
27.92
45.30
56.88
63.15
64.96
62.14
54.21
40.69
21.87
-0.74
-24.23
-45.14
-60.59
-68.37
-68.42
-61.81
-50.54
-36.81
-22.19
-7.37
7.93
23.90
41.07
59.24
78.59
98.65
118.29
136.85
153.82
169.14
182.24
192.85
200.57
205.72
208.45
208.11
204.47
196.67
188.05
180.39
174.44
170.65
170.03
172.52
176.27
179.67
180.93
178.48
170.51
153.77
126.02
88.61
41.83
-16.00
-85.11
-164.39
-251.13
-341.61
-435.11
-528.82
-613.17
-682.15
-734.58
-769.35
-785.32
-781.43
-757.38
-720.36
-676.43
-622.13
-560.65
-502.41
-457.64
-435.42
-442.82
-483.02
-561.45
-673.12
-792.21
-896.70
-973.80
-1015.07
-1018.01
-985.62
-875.37
-678.73
-479.92
-305.40
-141.30
12.03
151.48
273.17
374.12
453.47
504.63
525.71
530.30
525.41
510.45
486.61
457.08
426.48
400.34
377.74
358.92
353.64
364.37
386.30
414.97
447.21
481.08
515.63
546.24
569.23
587.34
599.78
602.43
593.13
572.30
542.58
508.44
473.49
442.54
423.42
420.54
433.16
456.59
482.89
503.05
510.34
502.08
481.10
454.97
430.89
412.78
401.09
393.72
387.91
381.91
375.21
367.71
358.87
347.20
330.92
308.93
281.43
250.00
216.94
184.41
153.52
124.28
95.79
66.97
37.33
7.33
-21.66
-48.01
-70.32
-88.05
-101.54
-111.79
-119.93
-126.71
-132.27
-136.23
-138.06
-137.47
-134.79
-130.93
-127.19
-124.73
-124.22
-125.68
-128.62
-132.44
-136.77
-141.71
-147.80
-155.67
-165.76
-178.01
-191.89
-206.54
-220.93
-234.21
-246.00
-256.62
-266.86
-277.53
-288.74
-299.50
-308.08
-312.69
-312.63
-308.61
-302.45
-296.16
-291.34
-289.12
-290.46
-296.17
-306.28
-319.26
-331.69
-339.27
-338.61
-329.06
-313.00
-294.19
-275.46
-257.05
-236.98
-212.93
-184.73
-155.41
-130.14
-113.90
-108.92
-113.72
-123.84
-133.95
-139.91
-139.90
-134.43
-125.15
-113.68
-100.71
-86.34
-70.66
-54.21
-38.07
-23.32
-10.48
0.60
10.33
18.83
25.50
29.54
30.64
29.50
27.76
27.03
27.95
29.74
30.72
29.41
25.37
19.51
13.30
7.86
3.45
-0.38
-4.12
-7.73
-10.88
-13.55
-16.54
-21.32
-28.76
-37.94
-45.42
-45.94
-34.15
-7.07
33.92
82.60
129.08
162.79
175.80
165.79
136.73
97.27
57.39
24.65
2.14
-11.53
-19.87
-25.93
-30.79
-33.99
-34.88
-34.17
-33.99
-36.54
-42.65
-50.91
-58.34
-61.97
-60.52
-54.99
-47.99
-42.42
-39.86
-40.19
-42.02
-43.68
-44.14
-43.63
-43.16
-43.85
-46.33
-50.30
-54.79
-58.71
-61.22
-61.99
-60.88
-57.34
-49.95
-36.54
-14.98
15.47
53.28
94.79
135.64
172.47
204.36
232.53
259.15
285.86
313.04
340.36
367.53
394.63
421.31
445.53
462.78
466.85
452.22
416.46
361.72
293.97
220.78
148.82
82.30
22.81
-29.66
-75.42
-114.56
-146.88
-172.55
-192.67
-209.48
-226.02
-245.55
-270.77
-302.80
-340.74
-381.23
-419.08
-448.43
-464.59
-465.56
-452.82
-430.82
-405.16
-380.73
-359.86
-341.89
-323.84
-301.86
-272.94
-236.04
-192.23
-144.07
-94.49
-45.87
0.43
43.58
82.72
116.33
142.41
159.18
166.04
164.12
156.15
145.69
136.15
130.36
130.37
137.09
150.22
168.00
187.20
203.66
213.26
212.83
201.55
181.75
158.90
139.93
131.22
136.44
155.78
186.36
223.33
261.66
296.76
324.68
341.31
342.69
326.18
292.43
246.39
196.06
149.94
113.76
88.76
71.19
54.76
33.95
6.94
-23.93
-54.16
-78.65
-93.51
-96.33
-88.79
-75.49
-62.32
-54.10
-53.89
-64.49
-86.80
-118.50
-151.31
-177.08
-189.12
-184.48
-164.45
-135.12
-108.05
-94.26
-98.04
-110.64
-120.05
-114.84
-89.61
-46.51
4.27
44.48
55.99
28.65
-31.18
-112.50
-202.47
-290.59
-368.63
-411.35
-398.36
-328.39
-246.23
-166.85
-92.62
-16.42
60.57
136.66
211.77
284.03
350.76
402.10
429.66
424.59
386.88
324.96
252.30
181.18
117.20
61.35
13.47
-22.01
-45.28
-56.07
-56.03
-47.22
-31.78
-12.93
7.05
28.52
54.71
85.85
119.76
149.78
167.68
167.04
145.00
104.02
51.60
-3.97
-57.46
-106.61
-151.88
-194.05
-232.94
-267.77
-297.33
-309.21
-295.62
-257.72
-204.69
-147.67
-93.30
-42.46
6.21
53.86
101.49
146.55
183.56
207.68
216.48
209.96
189.79
158.57
113.25
61.53
14.35
-18.48
-32.67
-30.75
-20.20
-9.45
-3.98
-4.61
-7.31
-9.46
-10.81
-13.10
-18.29
-27.04
-38.37
-50.00
-59.78
-65.79
-68.92
-71.61
-76.37
-84.07
-93.74
-103.98
-111.39
-113.17
-107.01
-92.78
-72.43
-49.17
-26.01
-5.41
11.51
25.10
36.58
48.10
61.44
76.72
92.21
105.78
115.18
119.53
119.71
118.08
117.78
121.66
130.63
144.16
162.75
183.41
204.10
221.53
229.69
220.99
190.16
136.94
68.24
-2.56
-63.11
-107.43
-137.24
-159.18
-179.60
-195.31
-197.21
-182.36
-148.45
-95.43
-30.64
35.48
93.34
137.42
168.40
189.47
199.96
200.18
188.48
162.75
123.57
78.91
33.55
-8.71
-47.50
-86.51
-128.61
-177.21
-233.26
-292.60
-338.67
-354.90
-331.29
-271.15
-189.31
-103.30
-27.15
32.53
75.94
106.37
127.56
140.90
146.36
144.48
138.12
130.88
126.59
127.78
136.08
150.38
168.21
187.27
206.39
226.13
247.19
270.09
294.01
316.88
335.03
344.46
342.48
328.30
303.73
271.61
235.58
198.93
164.14
132.55
104.34
79.59
58.13
40.42
26.63
16.92
11.21
9.00
9.85
12.56
16.35
20.07
23.02
24.18
22.73
17.85
8.57
-5.17
-23.61
-46.00
-71.62
-99.14
-127.18
-154.32
-178.95
-200.11
-216.47
-227.53
-232.67
-231.89
-225.23
-213.08
-196.21
-175.08
-150.71
-123.50
-94.35
-63.60
-31.53
1.74
36.34
71.99
108.65
145.25
180.68
212.83
239.56
258.78
268.44
267.88
256.88
237.29
211.32
182.40
154.16
129.83
112.15
102.07
99.78
103.06
109.21
113.90
113.01
102.91
80.76
46.03
-0.53
-55.29
-114.11
-171.98
-224.73
-268.91
-302.19
-324.22
-335.77
-339.17
-336.09
-328.68
-318.78
-308.28
-299.37
-293.50
-292.64
-297.62
-308.90
-324.97
-343.77
-363.77
-383.46
-401.91
-417.67
-430.28
-440.54
-450.53
-462.04
-475.78
-493.33
-511.75
-523.81
-519.27
-490.14
-437.72
-370.58
-300.99
-240.16
-202.20
-193.07
-209.68
-240.78
-271.66
-296.56
-313.47
-321.29
-318.19
-313.39
-313.98
-322.01
-333.49
-339.90
-345.80
-358.85
-384.80
-425.29
-491.57
-588.21
-708.44
-834.97
-942.50
-1022.92
-1074.46
-1096.22
-1005.05
-761.05
-389.32
28.96
371.34
636.87
846.60
1020.54
1171.40
1300.68
1393.91
1439.21
1434.53
1388.47
1319.68
1233.39
1131.63
1018.56
901.27
778.96
653.89
535.27
438.71
375.20
343.87
334.32
331.14
320.56
289.57
235.30
166.16
97.86
47.03
18.63
9.45
13.64
26.39
42.13
57.04
69.23
80.40
89.24
92.16
86.39
72.78
56.00
41.41
32.87
27.83
24.71
18.96
5.68
-17.29
-47.26
-77.98
-103.28
-120.40
-130.22
-136.10
-141.77
-149.20
-158.90
-170.41
-182.75
-195.06
-208.31
-220.85
-230.08
-231.75
-222.24
-199.20
-162.29
-112.65
-52.98
12.52
79.78
145.05
206.49
261.42
306.35
337.35
351.48
347.32
324.90
286.87
228.04
158.31
88.97
31.60
-14.24
-50.94
-80.88
-105.91
-126.67
-142.92
-152.48
-154.73
-147.85
-131.96
-108.42
-80.36
-52.88
-32.69
-25.82
-35.10
-57.36
-82.32
-97.47
-95.31
-76.22
-46.26
-13.67
16.44
43.62
70.28
98.11
129.41
160.10
184.16
196.98
195.94
181.17
154.30
117.28
67.12
10.17
-44.69
-88.13
-113.23
-118.15
-106.57
-86.22
-65.41
-49.97
-41.21
-38.50
-39.95
-44.05
-50.65
-60.17
-72.89
-87.92
-103.76
-118.73
-132.98
-147.37
-163.34
-179.95
-194.47
-203.38
-203.16
-191.30
-166.67
-130.59
-86.25
-36.54
13.07
58.40
96.66
126.45
147.54
160.79
167.58
169.37
168.60
167.24
167.11
168.99
172.72
177.64
182.61
188.73
193.56
195.91
194.42
188.72
179.07
166.15
150.26
130.23
103.62
67.44
20.98
-33.87
-91.05
-142.66
-181.49
-203.31
-208.27
-199.37
-180.79
-153.08
-120.02
-83.78
-47.01
-10.52
24.31
55.39
81.01
99.95
111.21
113.24
105.00
85.51
51.79
6.87
-44.82
-97.56
-144.33
-177.26
-189.99
-179.44
-148.46
-105.39
-60.92
-25.05
-2.93
5.94
5.98
2.23
-1.76
-5.51
-10.19
-16.76
-25.66
-36.17
-47.30
-58.72
-70.69
-83.02
-95.49
-107.42
-115.57
-116.62
-108.01
-88.57
-59.18
-22.45
18.35
59.13
96.37
127.58
151.02
165.80
171.65
168.51
154.01
130.37
100.11
65.87
30.18
-4.84
-37.36
-65.79
-89.09
-106.94
-118.94
-125.24
-126.37
-123.42
-117.85
-111.12
-104.23
-97.48
-90.52
-82.11
-71.01
-56.74
-40.12
-22.99
-7.66
4.12
11.81
16.12
18.60
21.44
25.82
31.36
36.38
38.97
38.03
34.51
31.33
29.37
31.94
41.90
60.17
85.09
112.31
135.89
150.44
152.99
144.54
131.38
122.09
123.68
139.05
165.13
194.13
216.75
225.08
207.15
160.61
95.19
29.73
-16.47
-33.76
-21.65
9.92
49.55
88.71
123.24
151.64
168.43
171.30
160.40
133.84
96.15
53.51
14.97
-18.54
-49.75
-82.38
-116.16
-148.12
-172.02
-180.73
-178.62
-172.77
-166.47
-159.43
-150.24
-134.77
-108.65
-74.99
-36.80
0.76
32.84
55.96
65.45
57.45
30.25
-15.79
-78.80
-154.16
-236.05
-316.82
-379.63
-409.18
-398.06
-350.36
-278.93
-199.33
-122.63
-54.51
4.40
56.21
101.72
140.45
171.40
196.01
214.34
226.63
233.07
233.89
229.20
216.94
194.48
156.11
104.39
44.23
-18.97
-80.70
-136.71
-182.24
-213.05
-225.37
-217.52
-190.90
-152.32
-111.29
-76.52
-53.73
-41.14
-35.05
-31.38
-26.96
-19.56
-9.14
3.88
19.36
37.52
58.14
79.23
97.63
107.00
104.40
89.39
64.15
32.58
-0.74
-31.86
-58.51
-79.62
-96.24
-108.85
-117.81
-122.86
-123.56
-119.48
-111.02
-99.82
-88.07
-77.81
-69.78
-63.50
-56.49
-47.04
-33.21
-14.36
8.23
31.91
53.70
71.47
84.34
94.18
103.83
116.35
133.24
153.76
175.39
195.19
210.91
221.48
228.71
235.03
242.92
253.80
268.09
285.89
307.14
330.83
343.61
332.70
288.98
213.38
117.97
20.62
-62.41
-121.62
-155.90
-170.43
-171.29
-163.71
-150.40
-132.59
-112.31
-92.86
-78.09
-71.16
-73.18
-81.74
-93.05
-102.89
-108.48
-109.21
-105.53
-97.88
-86.29
-70.16
-48.15
-19.95
13.42
49.37
83.62
111.79
130.78
139.03
136.54
124.39
103.52
73.59
36.38
-6.48
-52.26
-97.00
-136.32
-166.76
-186.52
-198.24
-203.53
-205.10
-205.97
-208.06
-212.13
-217.78
-223.33
-225.31
-219.56
-202.55
-174.75
-141.78
-112.89
-97.14
-98.89
-114.86
-134.51
-144.47
-134.50
-101.99
-52.13
4.86
58.50
101.04
128.90
141.70
140.70
127.13
102.73
71.36
34.95
-1.29
-32.13
-54.01
-66.34
-70.87
-71.61
-71.91
-71.48
-68.06
-57.94
-38.15
-7.36
33.42
81.51
132.10
181.53
229.98
278.88
330.13
384.46
441.23
498.26
552.65
599.55
618.79
596.72
529.52
425.86
302.13
174.74
54.86
-46.39
-133.84
-212.24
-280.98
-337.18
-377.19
-398.59
-398.22
-375.82
-329.87
-264.09
-184.34
-97.64
-13.55
57.16
104.44
121.89
108.75
71.55
20.60
-31.30
-72.88
-98.41
-107.75
-104.50
-93.27
-78.49
-63.38
-51.54
-45.02
-44.07
-47.19
-51.23
-52.87
-49.74
-41.51
-29.77
-17.86
-8.39
-2.78
-1.17
-2.26
-3.08
0.86
14.55
40.93
78.01
117.85
148.66
159.26
143.99
105.39
53.11
-0.17
-43.96
-73.71
-90.56
-98.72
-102.00
-101.82
-96.49
-85.95
-70.68
-52.04
-31.67
-10.93
9.84
30.66
52.04
73.06
91.57
105.28
112.22
111.21
101.56
83.59
57.80
24.73
-14.91
-58.94
-106.07
-154.18
-200.00
-239.13
-266.05
-276.35
-268.41
-245.13
-213.73
-183.55
-162.46
-153.57
-154.02
-155.62
-149.00
-127.85
-91.69
-45.39
3.39
48.09
85.62
113.14
129.74
135.99
133.22
123.28
108.36
91.56
76.69
67.05
64.53
69.53
81.02
97.09
115.10
131.20
140.62
138.26
119.84
83.93
33.35
-25.94
-87.00
-144.18
-194.00
-234.17
-262.10
-274.79
-270.39
-250.22
-220.50
-191.58
-174.47
-176.44
-198.04
-233.00
-270.69
-299.83
-311.13
-298.55
-259.06
-191.90
-97.92
20.60
159.58
312.63
470.74
622.63
755.53
857.39
919.40
938.25
917.38
865.73
795.22
717.14
639.67
566.56
498.06
432.78
369.10
306.11
243.50
181.31
119.59
58.86
0.09
-55.04
-104.40
-146.14
-179.48
-205.15
-224.98
-241.25
-255.42
-267.49
-275.82
-277.80
-271.15
-254.92
-230.53
-201.57
-173.02
-150.15
-137.09
-136.05
-146.89
-167.47
-194.23
-223.23
-251.04
-275.29
-294.76
-308.80
-316.57
-316.58
-306.65
-284.25
-247.35
-195.05
-128.20
-49.74
35.14
119.03
193.03
248.43
279.13
283.97
267.63
239.61
211.01
190.75
182.77
185.35
192.83
198.26
195.61
180.69
151.03
105.32
43.49
-32.60
-118.44
-206.80
-288.60
-355.19
-400.93
-424.21
-427.35
-415.68
-395.92
-374.60
-356.51
-343.35
-333.42
-322.91
-306.80
-280.51
-242.07
-192.84
-136.90
-79.21
-23.49
28.59
75.66
116.81
150.68
175.42
189.19
191.01
181.52
162.92
138.16
108.44
74.86
38.94
3.13
-30.02
-59.38
-86.22
-114.15
-135.03
-142.64
-133.16
-106.95
-67.35
-19.00
32.76
82.73
126.93
164.19
194.33
218.74
238.75
255.06
267.64
276.35
281.87
286.48
291.20
295.13
296.46
292.68
281.77
262.88
236.77
205.95
173.11
141.16
111.35
83.35
55.29
24.82
-10.19
-51.67
-93.91
-132.91
-165.26
-189.20
-204.66
-212.89
-215.64
-214.85
-212.95
-212.49
-216.72
-227.16
-242.46
-258.31
-268.58
-267.92
-253.99
-228.83
-197.59
-167.22
-143.02
-127.10
-118.54
-114.36
-110.91
-104.74
-92.80
-72.08
-40.33
3.72
59.09
121.26
182.12
231.49
260.47
265.41
250.43
226.05
205.45
198.90
209.01
230.12
251.34
261.77
255.22
232.07
197.37
157.59
117.90
81.02
48.64
23.97
11.60
16.33
40.15
79.50
124.74
162.46
179.53
167.14
124.98
59.01
-20.58
-102.99
-179.71
-245.61
-298.74
-339.17
-368.57
-387.00
-396.26
-398.39
-395.68
-389.01
-377.20
-356.87
-324.26
-278.49
-220.10
-155.34
-92.55
-39.27
1.24
30.48
52.97
79.88
100.59
112.29
108.85
86.75
47.51
-2.16
-53.56
-99.52
-136.69
-165.82
-185.37
-193.30
-185.02
-156.59
-107.42
-42.30
29.43
96.89
150.79
188.48
210.83
222.45
227.92
230.87
233.16
235.55
238.66
243.50
252.91
268.00
287.95
306.29
313.25
299.54
261.04
201.33
130.70
61.53
1.70
-46.53
-88.37
-127.67
-161.70
-181.47
-177.66
-146.69
-93.58
-32.29
31.56
93.52
150.61
201.01
243.80
272.52
282.53
270.75
228.66
158.85
72.20
-15.92
-92.71
-151.60
-191.67
-214.50
-223.22
-221.33
-210.68
-194.59
-176.85
-161.21
-150.77
-147.69
-152.12
-161.98
-172.70
-176.53
-166.94
-141.08
-101.53
-55.80
-13.71
16.53
31.16
31.00
21.09
6.44
-10.01
-27.74
-46.94
-66.83
-85.76
-99.50
-104.71
-99.33
-83.79
-60.40
-32.64
-3.61
24.57
50.55
73.52
92.41
106.40
114.82
117.67
115.74
110.72
105.23
101.82
102.46
107.78
117.33
129.61
142.26
152.62
158.31
158.64
154.74
149.67
146.84
148.62
154.51
160.45
160.43
145.39
111.43
59.84
-3.61
-70.89
-133.22
-182.53
-212.45
-219.05
-202.00
-164.89
-116.31
-68.40
-33.73
-20.88
-31.83
-62.07
-102.33
-141.49
-168.84
-177.35
-165.32
-136.58
-97.90
-56.42
-17.97
13.39
34.62
43.56
37.77
15.30
-23.73
-71.60
-112.83
-130.60
-115.96
-72.24
-11.37
51.65
107.74
151.79
182.36
200.70
209.74
213.78
213.98
210.26
205.42
200.59
192.79
176.70
148.52
108.01
58.68
6.02
-44.49
-89.37
-127.71
-162.06
-193.74
-221.11
-241.20
-251.17
-249.17
-234.09
-205.62
-164.10
-106.13
-35.43
39.99
108.75
159.21
183.05
178.88
152.98
116.48
80.96
54.33
39.79
36.06
40.15
49.66
64.07
83.73
107.94
133.92
157.72
177.59
191.96
200.67
203.88
202.00
193.69
175.98
145.37
99.99
40.92
-27.60
-99.32
-167.71
-226.37
-272.06
-305.00
-327.94
-343.80
-355.12
-362.96
-367.99
-371.50
-374.84
-372.86
-355.23
-318.20
-262.95
-195.81
-123.51
-51.43
14.01
76.99
138.69
196.01
243.63
278.00
293.16
289.82
273.67
246.02
212.05
174.34
131.82
81.12
22.75
-45.47
-119.96
-193.83
-260.28
-309.54
-336.52
-340.00
-320.99
-274.64
-203.55
-116.45
-26.54
54.25
119.64
167.05
196.97
211.82
214.51
207.67
195.54
182.65
172.46
167.58
168.09
172.48
183.21
195.68
205.62
211.49
213.89
213.40
210.90
206.83
201.17
194.15
184.72
172.19
157.06
141.08
124.91
109.94
98.84
90.54
86.59
86.04
85.20
78.02
58.20
19.56
-39.14
-112.89
-192.38
-267.46
-332.17
-384.80
-426.67
-445.36
-432.62
-388.81
-323.67
-250.37
-178.51
-113.55
-57.26
-8.96
33.14
68.60
96.90
118.52
135.68
150.17
162.65
173.30
182.47
190.28
194.75
193.85
186.51
172.80
152.86
126.36
91.66
52.01
12.27
-24.12
-55.28
-80.24
-98.28
-109.60
-114.99
-115.72
-112.63
-106.99
-100.59
-94.93
-90.60
-87.33
-85.22
-84.48
-85.38
-87.74
-91.54
-96.94
-103.81
-114.44
-126.15
-137.27
-146.63
-152.94
-154.65
-150.43
-139.49
-121.81
-98.64
-71.78
-43.72
-16.32
9.34
32.68
52.14
65.14
69.21
63.82
51.78
38.24
28.11
23.65
23.55
25.68
27.06
26.19
24.18
22.99
23.17
21.67
13.12
-4.99
-29.07
-48.85
-52.73
-34.09
2.74
51.38
103.09
148.93
182.07
195.16
184.39
150.49
99.01
39.92
-14.05
-52.07
-68.78
-65.43
-48.60
-26.42
-5.69
10.06
20.23
26.69
31.75
36.19
39.38
39.57
34.56
21.99
0.09
-31.72
-72.03
-112.20
-139.88
-146.28
-132.28
-106.95
-81.55
-60.58
-45.13
-34.43
-27.73
-26.06
-35.06
-58.08
-95.34
-143.64
-198.15
-253.89
-305.75
-347.97
-375.54
-385.71
-378.28
-356.61
-326.64
-295.62
-269.70
-251.51
-239.66
-230.46
-220.24
-206.24
-187.21
-162.59
-132.31
-96.72
-56.52
-13.54
29.39
68.94
102.58
129.12
149.58
166.34
182.06
198.89
217.47
236.72
254.24
267.34
273.52
271.63
261.90
245.63
224.74
201.14
176.38
151.50
127.17
103.82
81.93
61.95
44.34
29.41
17.20
7.59
0.15
-5.50
-9.76
-12.96
-15.24
-16.68
-17.24
-17.18
-16.84
-16.52
-16.39
-16.58
-17.10
-17.92
-18.92
-19.79
-20.51
-21.16
-21.85
-22.81
-24.55
-27.51
-32.23
-39.22
-48.81
-61.28
-76.61
-94.33
-113.63
-133.57
-153.08
-171.02
-186.42
-198.46
-206.64
-210.94
-211.66
-209.35
-204.78
-198.80
-192.26
-185.85
-180.07
-175.05
-170.74
-166.85
-163.11
-159.05
-154.26
-148.46
-141.46
-133.11
-123.31
-112.10
-99.55
-85.91
-71.32
-55.98
-40.33
-24.91
-10.23
3.17
14.75
24.13
31.08
35.63
38.24
39.45
39.93
40.42
41.53
43.55
46.56
50.30
54.20
57.62
59.79
60.15
58.40
54.57
49.01
42.45
35.79
29.89
25.58
23.39
23.58
26.06
30.34
35.67
41.13
45.74
48.55
48.86
46.20
40.43
31.86
21.08
8.94
-3.54
-15.34
-25.43
-33.02
-37.63
-39.07
-37.48
-33.34
-27.33
-20.30
-13.17
-6.66
-1.32
2.59
5.16
6.76
7.88
9.12
10.95
13.52
16.75
20.35
23.77
26.38
27.60
27.03
24.63
20.73
16.00
11.47
8.56
8.61
12.86
22.11
36.68
56.17
79.28
104.14
128.60
150.61
168.38
180.85
187.64
189.06
185.83
178.83
169.10
157.99
147.15
138.47
134.02
135.72
144.84
161.66
185.30
213.97
245.48
277.81
309.26
338.50
364.40
385.94
402.67
415.15
425.14
435.05
446.45
458.47
467.24
467.31
454.21
427.20
389.96
348.96
310.60
278.36
252.19
229.96
209.81
191.42
175.85
163.69
153.63
142.75
128.33
110.00
90.07
72.22
58.83
49.27
39.53
24.33
0.33
-31.34
-64.80
-91.49
-103.98
-99.34
-80.33
-54.21
-29.42
-12.22
-4.64
-4.78
-8.64
-12.77
-15.62
-17.35
-18.85
-20.36
-21.27
-20.54
-17.41
-12.05
-5.45
0.78
4.83
5.34
1.74
-5.42
-14.53
-23.22
-29.43
-32.11
-31.79
-30.26
-29.56
-30.77
-33.36
-35.34
-34.48
-30.20
-24.19
-20.01
-21.57
-30.92
-46.60
-63.53
-74.53
-73.08
-56.45
-27.11
8.28
41.22
64.95
76.50
77.03
70.52
61.36
52.28
43.67
34.50
23.36
9.77
-5.74
-22.04
-37.93
-52.48
-64.92
-74.67
-81.04
-83.28
-80.52
-72.13
-58.29
-40.60
-22.22
-7.38
0.24
-0.65
-8.23
-18.07
-25.48
-28.01
-26.38
-23.51
-22.13
-22.79
-23.65
-22.00
-16.43
-8.07
-0.18
4.07
3.50
-0.51
-5.11
-7.78
-7.89
-6.68
-6.28
-8.67
-14.62
-23.33
-32.71
-40.01
-42.85
-40.14
-32.54
-22.07
-11.18
-1.48
6.65
13.69
20.11
25.64
28.96
28.40
23.01
13.37
1.63
-9.34
-17.18
-20.90
-20.93
-18.54
-15.01
-11.21
-7.61
-4.49
-2.32
-1.56
-2.41
-4.21
-5.56
-4.95
-1.88
2.71
6.70
7.94
5.52
0.30
-5.32
-8.47
-7.20
-1.43
7.06
15.68
22.53
27.28
31.21
36.05
42.64
50.28
57.15
61.82
63.49
62.53
59.94
56.83
53.88
51.23
48.47
45.13
41.03
35.41
27.00
14.09
-4.53
-28.85
-57.66
-88.96
-120.60
-150.03
-175.93
-197.93
-215.82
-228.44
-233.13
-226.84
-207.22
-173.97
-126.26
-66.10
2.20
72.72
139.27
197.09
242.67
274.07
290.86
300.22
308.26
319.05
334.23
355.23
385.13
426.77
480.11
540.06
607.10
678.04
748.50
815.08
878.59
943.96
1015.67
1092.40
1165.03
1231.04
1282.28
1308.05
1297.65
1246.32
1159.08
1048.59
929.99
739.72
455.04
96.10
-277.36
-601.86
-841.68
-993.27
-1073.09
-1104.17
-1107.31
-1082.62
-1032.13
-959.09
-871.81
-781.45
-697.03
-624.09
-565.39
-521.94
-483.96
-444.72
-402.14
-360.33
-326.16
-304.59
-297.86
-305.58
-326.07
-350.68
-372.64
-388.16
-397.57
-402.98
-405.53
-404.93
-399.74
-388.58
-367.53
-335.03
-291.95
-242.27
-191.54
-145.19
-107.45
-81.21
-68.42
-68.43
-79.34
-98.23
-122.16
-148.27
-173.59
-195.13
-210.34
-219.24
-222.12
-218.72
-208.26
-190.88
-167.78
-141.27
-114.13
-89.20
-73.22
-70.71
-82.69
-106.74
-140.13
-180.69
-227.20
-278.51
-332.83
-394.35
-463.78
-536.61
-603.84
-656.96
-690.18
-701.42
-690.96
-660.37
-621.12
-582.09
-546.34
-511.98
-477.32
-443.12
-413.06
-391.67
-327.70
-201.29
-28.67
149.64
299.82
409.50
482.79
529.27
557.77
575.73
579.35
566.17
539.43
507.46
473.40
443.34
419.61
401.78
389.41
374.68
351.75
320.66
285.99
252.48
222.53
195.14
167.49
136.42
102.74
65.73
28.31
-4.43
-28.22
-41.69
-46.80
-47.40
-47.05
-52.25
-68.00
-94.25
-127.51
-163.10
-197.04
-226.40
-248.92
-262.14
-266.73
-263.86
-253.62
-236.46
-214.80
-193.47
-178.50
-175.44
-171.18
-159.55
-141.91
-123.84
-108.81
-94.21
-73.33
-40.22
6.34
61.29
112.87
149.97
167.36
166.67
153.97
135.85
116.80
98.43
80.54
61.17
40.38
20.06
3.93
-5.84
-9.79
-10.11
-9.88
-11.11
-15.04
-20.53
-24.74
-24.70
-19.22
-9.61
1.46
10.72
16.14
17.50
17.13
18.76
26.06
41.14
60.32
79.75
95.96
107.07
112.45
112.19
106.51
95.95
81.76
67.01
54.97
46.73
40.49
32.70
21.01
7.42
-0.29
9.24
47.08
116.90
211.70
316.29
413.38
489.77
539.18
561.70
561.06
543.42
513.03
471.04
417.11
350.78
272.88
185.28
91.31
-13.15
-119.28
-210.13
-269.77
-292.33
-284.06
-256.28
-219.08
-178.44
-137.36
-96.04
-57.04
-25.74
-5.66
0.13
-7.43
-24.40
-45.30
-65.67
-81.37
-90.87
-95.53
-93.71
-84.11
-65.18
-36.35
1.44
45.69
92.73
140.03
183.45
219.22
244.11
257.42
260.39
254.92
243.12
227.33
209.36
191.58
177.00
168.03
166.98
174.80
189.90
208.32
224.50
232.24
225.73
201.12
156.97
94.88
19.21
-64.77
-151.18
-234.54
-309.77
-372.81
-420.99
-453.69
-471.98
-478.50
-477.71
-474.62
-474.06
-479.75
-494.02
-518.04
-551.62
-591.64
-631.95
-664.11
-679.76
-673.74
-646.03
-601.67
-548.93
-496.10
-448.48
-407.47
-371.47
-337.88
-304.94
-272.20
-239.29
-205.68
-170.37
-132.53
-92.01
-50.06
-8.82
29.03
61.05
87.19
108.24
125.27
138.36
146.95
150.15
147.38
138.68
124.78
110.33
99.94
96.76
100.98
110.63
123.04
135.98
147.69
157.06
168.42
185.94
211.30
242.55
275.93
308.50
339.49
369.82
401.28
442.08
499.02
574.13
663.21
758.43
852.17
938.76
1014.65
1038.94
984.35
848.51
658.11
451.59
258.72
93.86
-40.40
-147.14
-231.23
-291.42
-326.85
-339.51
-336.01
-325.13
-314.17
-307.42
-306.53
-311.78
-318.16
-321.47
-320.41
-317.69
-317.82
-324.17
-337.35
-356.14
-377.24
-393.89
-400.03
-392.35
-370.96
-338.51
-298.63
-254.74
-209.43
-165.00
-122.28
-82.02
-45.39
-13.96
10.83
28.27
38.40
42.48
41.69
37.18
29.47
18.30
3.04
-17.20
-42.72
-77.75
-122.38
-174.51
-230.25
-284.70
-332.61
-369.03
-390.21
-394.29
-381.18
-352.12
-310.16
-259.17
-203.20
-145.88
-90.00
-37.63
9.87
51.94
89.12
122.50
153.73
184.56
216.36
249.48
282.63
312.82
335.81
347.66
345.69
329.82
302.66
268.87
233.81
201.99
176.10
156.63
143.06
134.55
131.20
133.97
143.85
161.20
185.34
215.24
249.84
287.74
325.94
358.80
378.58
378.52
357.27
321.68
285.20
261.65
257.65
269.05
283.67
289.22
280.58
262.10
243.14
231.02
225.94
221.75
211.43
192.30
167.95
144.12
123.84
104.65
80.88
48.91
10.38
-27.88
-58.75
-78.80
-90.66
-100.83
-115.87
-138.47
-166.43
-194.75
-218.31
-234.42
-242.71
-244.21
-239.88
-230.17
-215.21
-195.51
-172.69
-149.63
-130.69
-119.78
-118.55
-124.50
-130.84
-129.07
-113.33
-84.14
-48.89
-18.67
-1.88
0.25
-6.31
-13.02
-14.84
-13.35
-14.39
-21.97
-34.28
-43.88
-42.92
-29.50
-10.02
4.04
2.80
-15.80
-44.10
-69.53
-80.36
-70.97
-43.74
-7.12
27.73
51.15
58.01
49.48
32.32
17.48
15.41
31.82
65.12
105.98
140.53
155.57
144.19
107.77
56.71
4.68
-38.18
-69.28
-93.33
-117.39
-144.86
-172.09
-191.11
-192.74
-173.75
-140.92
-107.77
-87.90
-87.71
-103.04
-121.20
-127.77
-109.81
-61.12
15.22
109.21
208.50
304.12
393.08
477.47
543.66
577.91
570.50
519.52
432.82
324.58
211.13
105.68
14.18
-64.43
-140.82
-222.51
-309.61
-394.27
-463.73
-505.15
-510.77
-470.29
-389.50
-285.52
-180.60
-94.74
-39.52
-16.04
-17.06
-31.45
-48.98
-64.66
-76.26
-82.81
-84.14
-79.99
-70.24
-55.74
-38.62
-22.43
-11.99
-9.59
-13.66
-20.19
-24.77
-24.42
-18.66
-9.17
1.25
9.06
12.13
10.60
6.19
1.37
-1.72
-2.06
0.11
3.53
6.24
6.77
4.93
1.69
-1.46
-3.21
-3.12
-1.63
0.29
1.56
1.61
0.47
-1.21
-2.88
-3.89
-4.05
-3.47
-2.34
-0.70
1.64
5.32
11.14
19.71
31.54
46.56
64.18
83.34
102.54
119.86
133.43
141.57
143.10
137.52
124.96
106.39
83.02
57.25
31.19
6.70
-14.75
-32.25
-45.37
-54.20
-59.38
-61.19
-60.40
-57.98
-54.88
-51.92
-49.64
-48.21
-47.48
-46.99
-46.06
-44.34
-42.04
-39.67
-38.04
-37.75
-38.94
-41.18
-43.57
-45.06
-45.08
-43.90
-42.28
-41.60
-42.95
-46.65
-52.09
-58.11
-63.60
-68.36
-73.40
-80.42
-91.34
-107.28
-128.09
-152.90
-179.10
-202.88
-219.69
-224.42
-212.62
-182.16
-134.51
-75.05
-10.91
48.76
98.37
136.03
162.69
180.21
190.13
193.16
189.99
182.39
172.59
163.77
158.40
157.48
160.14
163.66
163.82
156.10
137.16
106.83
69.01
30.45
-1.69
-22.75
-32.32
-33.34
-30.24
-26.38
-22.70
-17.95
-10.50
0.24
13.23
26.37
38.28
48.83
59.02
70.07
82.37
94.63
104.32
108.48
104.85
92.81
73.51
49.47
23.47
-1.62
-24.40
-44.51
-62.27
-77.84
-90.98
-101.08
-107.42
-110.08
-109.42
-106.76
-103.49
-100.48
-97.93
-95.91
-94.92
-95.77
-98.50
-101.99
-103.68
-100.33
-89.85
-72.82
-52.30
-32.64
-17.13
-7.30
-2.58
-2.18
-5.74
-13.23
-24.02
-35.37
-42.38
-39.10
-21.08
12.34
56.74
103.79
143.76
168.18
173.30
160.51
135.33
105.02
75.90
51.29
31.20
13.69
-3.61
-21.81
-40.93
-60.02
-77.68
-92.12
-101.58
-104.17
-97.37
-79.06
-48.73
-9.24
33.69
71.98
99.49
113.95
117.80
115.58
111.62
107.58
101.77
90.58
71.17
43.20
8.92
-27.78
-62.89
-93.31
-117.07
-133.10
-140.79
-139.62
-129.86
-112.89
-91.49
-69.21
-49.23
-33.63
-22.48
-15.21
-9.72
-3.60
4.75
15.60
27.84
39.47
48.67
53.84
54.28
50.15
42.36
31.79
19.46
6.64
-5.33
-14.27
-18.62
-17.13
-9.91
1.70
14.79
25.66
30.99
28.82
19.52
5.05
-10.99
-25.72
-37.19
-45.49
-52.28
-60.27
-72.65
-92.51
-122.61
-161.88
-207.06
-252.12
-290.00
-314.79
-323.30
-316.08
-296.38
-268.76
-233.79
-190.92
-138.79
-77.71
-10.32
59.37
127.17
190.49
249.48
311.00
370.93
426.32
473.17
507.86
528.59
535.75
531.17
495.95
424.98
324.78
211.20
98.62
-5.23
-98.21
-180.51
-252.42
-312.00
-354.58
-379.41
-387.38
-382.03
-367.69
-347.93
-325.41
-301.80
-275.49
-242.34
-203.19
-162.72
-127.71
-103.54
-92.21
-92.69
-101.71
-110.49
-109.84
-95.68
-68.92
-33.48
7.13
51.71
101.11
157.15
227.81
319.33
431.50
557.49
686.72
808.62
914.83
999.28
1019.30
951.20
801.39
603.97
398.84
213.15
57.75
-66.99
-165.36
-242.56
-297.30
-328.95
-340.92
-341.23
-338.89
-340.42
-349.58
-365.66
-384.86
-397.13
-393.70
-370.79
-330.59
-278.87
-221.87
-163.39
-108.60
-61.03
-19.26
18.86
54.17
85.64
111.84
131.86
145.18
150.31
144.70
126.95
97.16
58.16
15.74
-22.72
-50.98
-66.28
-70.42
-67.67
-61.99
-55.47
-48.16
-39.24
-28.38
-16.35
-4.53
5.93
15.36
25.11
36.73
51.09
67.92
84.93
98.84
106.47
105.71
96.19
79.08
56.54
30.69
4.29
-20.82
-44.04
-65.38
-85.39
-104.17
-121.91
-138.45
-153.56
-168.37
-181.43
-191.62
-197.85
-199.35
-195.10
-184.74
-167.82
-144.45
-115.53
-82.35
-47.21
-13.09
16.50
38.35
49.90
50.31
39.96
20.80
-4.33
-32.51
-61.50
-90.01
-116.87
-141.62
-163.82
-184.35
-203.53
-220.26
-231.78
-233.96
-222.59
-194.37
-150.52
-96.60
-43.07
1.23
31.82
49.33
57.97
63.46
73.17
87.08
104.67
122.01
138.09
153.83
171.59
192.36
215.42
241.35
269.02
296.30
318.14
333.65
344.04
352.29
359.49
347.23
305.13
233.92
163.58
102.83
55.17
17.08
-8.81
-20.49
-18.31
-2.46
24.01
55.69
85.06
109.38
120.51
114.12
88.85
47.61
-2.09
-48.62
-92.20
-136.05
-178.60
-215.85
-240.55
-246.81
-231.23
-190.17
-125.90
-48.88
24.44
78.79
104.13
100.40
75.35
41.39
10.95
-8.52
-16.55
-16.85
-13.17
-7.56
1.17
15.06
35.05
59.60
85.39
108.36
126.16
139.64
149.82
158.16
164.88
168.87
167.53
158.83
141.74
117.49
89.11
60.44
35.29
16.37
4.76
-0.70
-1.97
-1.82
-3.43
-9.79
-23.53
-46.79
-81.65
-122.61
-165.35
-205.19
-238.26
-262.44
-277.26
-283.49
-282.48
-275.69
-264.65
-250.48
-234.09
-217.97
-206.45
-204.35
-215.74
-243.08
-287.04
-346.57
-416.72
-488.96
-553.08
-598.69
-616.35
-599.43
-546.19
-460.20
-349.25
-219.96
-77.42
73.07
224.84
370.19
501.77
613.49
701.63
746.41
733.64
667.15
568.65
463.09
366.09
282.83
212.66
153.25
102.68
62.96
36.70
23.68
19.87
19.34
17.12
10.50
-0.95
-16.21
-31.05
-41.33
-45.62
-45.93
-46.05
-49.12
-56.41
-67.06
-78.75
-87.49
-88.83
-80.78
-64.53
-43.36
-20.95
-0.31
16.85
29.98
39.90
47.66
53.03
54.40
49.60
37.46
18.57
-4.35
-26.91
-44.09
-51.54
-46.52
-28.00
3.40
44.68
89.39
128.30
151.93
153.86
133.67
97.41
55.48
18.34
-7.44
-20.75
-24.76
-23.96
-21.66
-18.63
-14.45
-8.81
-2.61
2.21
4.13
3.15
1.01
0.10
3.03
10.78
22.72
36.87
50.59
61.58
68.91
72.02
70.64
64.92
54.66
39.36
18.63
-7.18
-36.64
-67.19
-95.78
-119.83
-136.95
-146.23
-148.08
-143.85
-135.17
-123.25
-109.01
-90.41
-69.74
-48.66
-28.52
-10.54
4.52
16.46
25.81
33.33
39.78
45.14
49.48
52.60
54.19
54.40
54.05
54.33
55.97
58.93
61.63
62.05
57.76
46.72
27.81
1.17
-31.42
-66.87
-100.35
-126.03
-137.83
-132.24
-110.25
-77.36
-42.07
-12.51
6.54
14.93
15.72
12.93
8.88
3.28
-5.27
-17.69
-33.04
-48.60
-61.03
-68.51
-70.24
-67.06
-60.70
-52.16
-41.26
-26.56
-6.43
19.91
51.46
85.61
119.50
150.41
175.65
192.29
197.23
187.92
164.18
129.52
90.90
56.62
33.17
22.97
24.33
33.17
45.14
57.40
69.15
79.71
87.88
91.21
86.95
73.74
52.31
25.10
-4.56
-33.23
-59.04
-81.36
-100.79
-118.36
-135.42
-150.62
-162.09
-167.97
-167.38
-161.06
-150.72
-139.02
-128.48
-120.48
-114.61
-109.39
-102.88
-93.66
-81.64
-67.44
-52.73
-39.44
-29.18
-23.14
-22.10
-25.80
-32.44
-38.55
-39.11
-30.31
-11.26
15.34
43.81
67.40
81.45
84.86
80.07
72.11
65.25
61.58
61.51
65.12
72.05
82.44
96.47
107.92
112.22
106.03
87.74
58.38
22.26
-16.48
-54.24
-88.88
-119.74
-146.37
-168.76
-188.64
-205.45
-214.97
-214.33
-201.85
-177.56
-142.83
-98.87
-47.26
7.01
58.82
111.39
165.56
220.05
272.09
318.53
358.02
391.06
420.33
427.31
405.95
357.06
288.17
209.71
130.69
57.59
-6.21
-59.80
-103.42
-135.10
-155.69
-167.94
-175.24
-181.90
-189.03
-195.72
-199.97
-199.32
-188.80
-165.28
-127.83
-77.57
-21.95
28.43
62.48
72.36
56.87
23.67
-15.29
-48.56
-69.44
-77.70
-77.19
-73.13
-69.09
-65.78
-61.85
-56.72
-52.04
-50.06
-51.54
-53.28
-49.30
-34.88
-8.36
27.04
63.90
93.60
110.01
111.53
101.37
85.32
68.54
54.76
45.90
42.78
45.34
52.14
59.72
62.22
53.00
26.00
-20.52
-82.84
-151.99
-216.37
-265.16
-291.16
-292.90
-269.90
-227.67
-174.38
-118.37
-65.67
-19.36
20.21
54.41
85.12
114.10
142.66
173.07
208.09
249.26
294.67
337.97
369.50
379.65
362.78
319.20
255.43
181.02
104.75
32.28
-33.34
-89.29
-131.23
-153.87
-153.55
-130.07
-87.19
-31.27
29.93
89.26
140.89
179.95
202.64
207.04
194.95
172.43
148.04
128.00
114.87
107.99
105.17
103.59
100.26
92.42
77.89
55.94
25.55
-11.63
-50.28
-83.24
-105.60
-117.03
-121.16
-122.81
-125.69
-135.72
-158.28
-196.31
-249.28
-313.82
-384.60
-454.92
-517.76
-545.42
-519.21
-441.32
-334.99
-227.15
-133.93
-59.15
-0.10
47.45
87.06
117.44
136.38
144.43
145.77
145.88
149.00
157.00
169.85
186.15
201.81
211.64
212.90
206.22
193.81
177.60
158.42
136.60
112.24
85.55
56.55
26.48
-1.96
-25.91
-43.49
-54.47
-59.59
-60.01
-57.90
-55.56
-54.13
-53.54
-53.13
-52.16
-50.56
-48.45
-45.78
-43.01
-40.75
-39.24
-38.39
-37.95
-37.62
-37.71
-38.39
-39.63
-41.43
-43.72
-46.20
-48.30
-50.77
-51.74
-50.41
-46.08
-38.29
-26.94
-12.38
4.79
23.71
43.34
62.77
80.48
95.27
106.11
112.19
113.01
108.61
99.15
85.26
69.23
51.78
33.90
16.51
0.43
-13.71
-25.30
-34.32
-40.78
-44.67
-46.44
-46.64
-46.04
-45.50
-45.65
-46.61
-48.60
-51.40
-54.37
-57.02
-59.07
-60.50
-61.51
-63.75
-65.64
-65.85
-63.09
-56.24
-45.26
-31.38
-17.07
-5.64
-0.13
-2.23
-12.26
-28.75
-49.02
-69.94
-88.77
-103.39
-112.47
-115.27
-111.41
-101.76
-87.53
-69.55
-47.67
-20.69
12.74
52.26
94.21
132.13
157.94
164.73
151.23
121.92
84.75
47.63
15.16
-12.05
-35.64
-57.72
-78.35
-95.50
-106.86
-111.42
-110.01
-105.19
-101.32
-99.52
-99.03
-96.62
-87.88
-69.45
-40.14
-1.15
44.45
92.75
139.94
180.50
209.58
223.69
221.26
204.32
178.37
150.76
127.83
112.44
102.59
93.65
82.48
66.94
49.08
33.53
24.55
23.35
27.10
29.52
23.27
4.78
-25.76
-64.03
-104.22
-141.72
-174.57
-202.92
-227.38
-248.16
-262.02
-265.06
-254.42
-229.76
-193.40
-149.41
-102.09
-54.72
-9.69
31.97
69.75
103.20
131.26
152.45
165.49
169.99
166.87
158.37
147.61
137.22
128.69
122.21
116.90
111.44
104.94
97.12
88.71
81.04
75.20
71.47
69.29
67.55
65.01
61.05
55.90
50.61
46.57
44.77
45.23
47.11
49.02
49.76
48.73
46.31
43.54
41.54
41.72
44.23
49.33
56.85
65.51
72.32
73.19
64.28
44.09
14.89
-17.42
-45.49
-63.35
-68.72
-63.61
-52.28
-39.14
-26.92
-16.41
-7.57
-0.67
3.29
3.07
-1.90
-10.91
-22.54
-35.27
-47.68
-59.32
-70.17
-80.07
-88.44
-94.35
-96.55
-94.33
-88.06
-78.98
-69.30
-61.24
-56.34
-55.14
-57.50
-62.44
-69.09
-76.80
-84.72
-92.45
-99.74
-106.55
-112.77
-117.53
-118.25
-111.48
-93.96
-64.40
-25.61
15.96
52.53
77.66
88.95
88.64
81.77
73.68
68.35
66.88
68.40
71.77
76.24
81.52
87.09
91.62
91.06
84.06
70.18
50.04
25.67
-0.28
-25.13
-46.85
-64.42
-77.73
-86.94
-92.24
-94.61
-93.53
-88.34
-78.65
-64.64
-47.07
-27.29
-6.66
13.78
32.72
49.30
62.82
72.84
78.95
80.69
77.67
66.96
49.58
27.11
1.37
-25.74
-52.42
-77.08
-98.54
-115.94
-129.06
-137.22
-140.71
-140.31
-136.49
-129.69
-120.28
-108.66
-95.33
-80.89
-65.35
-49.70
-35.44
-22.95
-12.04
-1.85
9.04
22.39
37.32
53.83
71.21
88.22
105.31
123.55
144.54
169.92
200.78
237.62
281.00
331.12
377.38
410.68
423.92
413.22
377.77
319.23
242.46
156.27
71.85
-0.51
-52.81
-82.89
-93.93
-92.04
-83.46
-71.87
-58.35
-42.99
-26.73
-9.81
7.50
25.13
43.76
61.76
77.11
87.64
91.31
85.93
71.46
49.41
22.38
-6.78
-37.31
-68.88
-101.01
-132.61
-162.96
-190.05
-211.76
-226.47
-233.93
-237.48
-241.74
-251.69
-264.39
-280.40
-300.78
-326.36
-356.37
-375.81
-371.95
-337.51
-274.71
-194.85
-114.06
-45.85
2.93
32.94
50.12
60.24
66.38
70.73
74.13
76.67
79.30
83.68
91.04
101.32
111.71
117.85
116.73
107.98
94.56
80.33
69.27
64.33
65.61
70.68
75.53
76.33
70.36
56.46
35.58
10.27
-16.45
-41.74
-64.15
-83.96
-101.97
-118.55
-133.05
-143.56
-147.20
-141.16
-123.58
-94.28
-54.79
-7.22
45.27
97.99
146.55
187.92
220.63
244.59
260.79
270.81
276.36
277.88
273.87
260.96
235.20
194.43
140.71
80.75
23.98
-20.93
-49.75
-63.45
-66.67
-64.60
-60.75
-56.04
-49.89
-42.00
-33.21
-25.25
-19.58
-16.28
-13.74
-9.78
-2.48
8.61
22.20
35.91
47.39
54.44
56.13
52.98
46.09
36.70
25.37
11.98
-3.72
-21.82
-41.86
-62.53
-81.96
-98.33
-110.20
-116.86
-118.69
-116.43
-111.09
-103.52
-94.01
-82.46
-68.89
-53.36
-36.41
-19.22
-2.63
12.43
25.34
35.84
43.95
49.87
54.07
55.98
55.17
55.66
60.36
71.07
88.01
110.08
135.56
161.69
184.93
202.56
214.34
221.69
226.59
230.26
232.69
232.32
227.08
210.76
178.92
131.70
72.91
7.49
-60.67
-129.63
-198.15
-266.51
-340.58
-423.55
-512.72
-600.52
-678.26
-739.47
-781.35
-803.16
-770.62
-670.15
-515.62
-341.34
-179.52
-46.19
57.27
131.46
189.30
237.89
273.82
292.75
293.82
280.04
253.25
215.98
172.40
129.16
96.19
77.67
71.42
70.19
66.27
54.94
36.20
13.36
-6.96
-20.44
-27.34
-28.35
-23.02
-10.54
7.71
28.18
43.91
47.36
33.10
1.03
-40.55
-76.60
-90.63
-71.03
-14.87
72.31
175.80
275.01
349.80
386.96
383.61
346.27
287.49
209.87
127.43
58.00
13.17
-5.70
-4.12
10.29
31.07
50.67
63.29
68.34
68.21
67.65
72.92
87.10
111.46
142.37
171.29
187.80
184.44
157.08
106.61
39.68
-32.87
-99.19
-150.13
-180.94
-191.61
-184.83
-166.40
-143.57
-123.46
-112.21
-114.81
-135.13
-173.96
-228.57
-291.96
-354.53
-405.77
-437.23
-445.01
-431.14
-402.33
-364.81
-322.96
-278.36
-230.77
-179.08
-123.16
-65.27
-10.35
35.21
68.93
90.75
102.70
108.36
112.98
122.09
139.18
164.46
195.41
232.45
275.67
323.54
372.71
419.60
461.68
497.53
526.69
524.71
478.49
393.25
289.87
189.27
102.94
33.59
-20.61
-63.02
-96.95
-120.67
-132.24
-132.03
-123.37
-110.95
-98.86
-90.08
-86.38
-88.38
-92.50
-95.18
-94.84
-92.36
-89.74
-88.67
-90.15
-94.58
-101.92
-109.84
-116.11
-119.67
-120.76
-120.07
-117.96
-114.78
-109.82
-102.61
-92.05
-77.71
-60.21
-41.33
-23.40
-8.73
1.03
4.83
2.18
-6.25
-19.07
-34.39
-50.11
-63.98
-73.96
-78.05
-74.83
-63.69
-44.76
-19.70
9.02
38.53
66.14
89.50
107.33
119.25
125.59
127.38
125.87
122.35
117.86
113.02
107.89
102.92
98.69
95.88
95.23
97.11
101.36
107.15
115.03
122.16
126.89
128.60
127.71
125.25
122.45
119.87
117.46
114.64
110.59
105.22
99.24
94.08
91.35
92.64
98.73
110.12
126.53
145.99
164.90
178.09
180.27
168.17
142.46
107.33
70.00
37.65
14.70
1.88
-3.23
-4.98
-7.97
-11.36
-15.94
-22.75
-33.10
-48.12
-67.86
-90.94
-115.50
-139.61
-161.50
-180.15
-194.00
-200.51
-196.66
-179.94
-149.58
-107.90
-59.31
-8.90
38.06
76.94
103.63
114.69
108.39
86.06
51.13
10.70
-26.02
-51.61
-63.97
-67.46
-70.40
-80.58
-101.17
-132.91
-170.74
-205.25
-226.60
-228.95
-212.65
-182.57
-145.15
-106.14
-75.90
-61.96
-66.67
-87.42
-119.96
-161.00
-207.72
-256.93
-305.06
-356.89
-416.44
-483.38
-552.57
-617.87
-675.73
-724.72
-764.44
-745.40
-641.41
-463.23
-253.96
-57.43
103.69
225.83
315.22
380.51
429.42
460.04
470.91
465.14
450.70
436.65
426.39
418.92
411.06
399.62
376.59
337.37
283.49
221.85
162.50
111.67
71.42
41.15
19.15
-0.37
-22.09
-47.18
-72.45
-92.20
-100.90
-94.29
-71.07
-34.17
7.61
44.14
68.17
78.07
77.05
70.18
62.09
55.18
49.48
43.22
35.30
26.39
18.59
13.77
12.14
12.37
12.45
10.60
6.16
-0.29
-7.43
-13.79
-18.56
-22.00
-25.07
-28.86
-34.04
-40.31
-46.55
-51.42
-53.06
-50.39
-43.31
-32.58
-19.54
-5.62
8.05
20.76
32.29
42.78
52.22
60.44
67.04
71.49
73.32
72.49
69.46
65.20
60.99
57.91
56.55
56.80
57.97
59.03
59.13
58.10
56.58
55.81
56.99
60.75
66.69
73.55
79.91
84.47
86.69
87.10
86.84
87.31
89.96
96.10
106.62
121.35
137.97
151.91
157.62
150.35
128.28
93.32
50.35
5.17
-35.43
-66.56
-86.15
-94.42
-92.81
-83.16
-67.79
-49.70
-32.35
-18.90
-11.40
-9.78
-12.01
-15.44
-18.12
-20.50
-25.73
-38.73
-64.21
-104.37
-156.87
-214.23
-265.58
-299.85
-309.30
-291.87
-251.67
-197.58
-140.79
-91.75
-57.49
-39.88
-35.25
-35.83
-32.41
-17.76
10.67
49.99
93.41
133.48
165.20
187.61
202.98
214.67
225.22
235.51
245.23
253.77
261.08
267.46
272.76
275.34
271.68
257.53
229.77
188.26
136.61
81.63
31.17
-8.43
-34.56
-49.50
-58.77
-68.37
-81.95
-99.41
-117.18
-130.15
-133.70
-125.73
-108.64
-87.13
-66.32
-49.88
-39.51
-35.11
-35.42
-38.67
-43.47
-52.15
-67.30
-89.19
-113.72
-133.19
-139.30
-127.27
-98.70
-61.79
-32.66
-25.40
-45.86
-89.25
-143.84
-197.56
-243.09
-279.26
-309.22
-342.48
-385.89
-440.33
-500.42
-558.74
-610.15
-653.52
-690.51
-689.57
-629.71
-508.64
-347.03
-174.79
-14.98
121.31
231.27
315.97
378.18
416.53
431.57
427.50
413.26
396.98
382.59
369.75
355.58
336.97
307.66
263.38
203.58
133.12
62.34
2.67
-36.45
-50.25
-40.05
-15.60
10.43
27.52
31.43
24.02
10.43
-3.87
-15.67
-24.41
-32.40
-41.56
-52.57
-62.98
-70.33
-73.99
-74.94
-75.30
-77.14
-81.78
-89.11
-97.82
-105.93
-112.22
-116.75
-120.23
-123.86
-128.56
-134.38
-140.71
-146.36
-150.04
-150.74
-150.19
-149.34
-148.78
-148.55
-148.11
-146.82
-144.28
-140.45
-135.82
-130.91
-125.37
-118.16
-107.64
-92.04
-70.30
-42.67
-10.62
23.46
57.32
89.96
121.71
154.20
189.68
230.10
276.05
326.08
376.28
421.25
455.54
475.42
480.11
471.96
455.38
434.91
413.50
391.47
366.88
336.47
297.08
246.95
186.82
120.64
55.43
-0.12
-38.14
-54.47
-50.37
-32.18
-8.49
13.35
29.66
40.45
47.24
50.25
46.95
33.07
5.49
-35.06
-83.55
-132.49
-175.12
-207.73
-229.85
-242.40
-245.27
-236.50
-213.32
-174.60
-122.76
-64.10
-7.35
39.07
69.30
81.53
78.15
65.05
50.01
40.72
42.62
57.37
82.77
114.38
148.08
182.07
217.14
254.90
295.03
333.41
362.57
374.20
362.41
326.20
270.12
202.79
134.34
73.75
26.75
-4.88
-23.13
-32.69
-39.50
-49.06
-64.89
-87.52
-114.41
-140.99
-162.46
-175.61
-179.67
-175.93
-166.35
-152.12
-133.24
-109.29
-81.04
-51.36
-24.76
-5.30
5.59
10.44
14.84
24.88
44.23
71.94
102.53
127.88
140.35
135.67
114.61
82.53
47.11
15.40
-8.43
-23.83
-32.85
-38.46
-43.35
-49.79
-59.85
-75.14
-95.45
-117.56
-135.61
-143.52
-138.60
-123.83
-106.92
-96.22
-95.90
-103.27
-110.48
-109.11
-95.04
-70.40
-41.60
-15.32
4.98
19.58
30.43
38.11
40.77
35.22
19.24
-6.17
-36.60
-65.58
-86.71
-95.61
-90.83
-73.68
-47.70
-17.84
10.52
32.38
43.99
43.54
31.26
9.02
-20.46
-54.36
-90.04
-124.52
-153.96
-173.81
-179.79
-169.70
-145.12
-111.74
-77.66
-50.33
-33.46
-25.77
-22.29
-17.50
-8.59
3.29
14.19
20.27
20.34
16.71
13.68
14.88
21.30
30.88
39.97
45.57
46.82
45.14
43.04
42.54
44.16
47.16
50.32
52.93
55.04
56.89
58.22
57.87
54.23
46.03
33.36
17.83
2.17
-10.84
-19.47
-23.66
-24.92
-25.40
-26.76
-29.27
-31.85
-32.73
-30.53
-24.97
-16.86
-7.65
1.08
7.84
11.12
9.61
2.59
-9.21
-23.12
-34.86
-39.85
-35.08
-20.63
-0.09
20.71
35.75
41.15
36.62
25.13
11.39
-0.38
-8.05
-12.05
-14.22
-16.31
-18.81
-20.80
-20.77
-17.64
-11.46
-3.32
5.19
12.50
17.23
18.20
14.56
6.17
-6.02
-20.01
-33.47
-44.71
-53.26
-59.76
-65.15
-69.74
-73.01
-73.90
-71.76
-66.97
-61.05
-56.03
-53.51
-53.91
-56.06
-57.39
-54.62
-44.82
-26.68
-1.26
28.02
56.56
80.24
97.09
107.78
114.89
121.39
129.12
138.26
147.72
156.43
164.09
171.44
179.64
189.41
200.34
210.86
218.59
221.11
216.85
205.65
189.20
170.69
153.94
142.01
136.21
135.48
136.92
136.81
131.77
119.49
98.78
69.49
32.69
-8.74
-49.84
-84.17
-105.88
-112.28
-105.62
-92.73
-82.29
-80.81
-89.70
-104.90
-119.40
-127.14
-126.19
-119.17
-111.60
-108.92
-114.18
-127.39
-146.07
-166.18
-183.33
-194.07
-197.00
-193.99
-190.42
-193.82
-210.89
-243.87
-288.29
-333.79
-367.80
-380.35
-367.63
-332.71
-283.19
-227.54
-172.19
-120.32
-72.55
-28.28
12.90
50.29
82.06
105.71
118.98
120.86
112.22
95.80
75.35
54.51
35.57
19.47
6.42
-3.14
-8.32
-8.47
-4.42
0.84
3.05
-1.48
-13.51
-29.89
-44.37
-49.86
-40.90
-15.33
25.24
76.12
130.60
181.25
221.26
245.76
252.98
244.80
226.21
203.64
182.57
165.71
152.45
140.13
125.95
108.81
89.82
71.48
56.15
44.80
36.95
31.18
26.27
21.72
17.87
15.30
14.26
14.31
14.50
13.78
11.43
7.25
1.61
-4.75
-10.96
-16.28
-20.16
-22.24
-22.07
-19.07
-12.84
-3.63
7.30
17.54
24.12
24.66
18.39
6.87
-6.64
-18.53
-26.30
-29.49
-29.54
-28.72
-28.95
-30.88
-33.88
-36.75
-38.69
-39.65
-40.17
-40.78
-41.53
-42.11
-42.24
-41.89
-41.58
-42.08
-43.89
-46.95
-50.67
-54.49
-58.32
-62.77
-68.13
-74.66
-82.51
-91.50
-101.12
-110.19
-117.22
-120.78
-120.07
-114.13
-103.69
-91.47
-81.22
-75.68
-74.69
-74.88
-70.87
-57.56
-30.34
11.03
61.82
114.11
160.20
195.66
220.15
236.45
248.75
263.84
286.60
317.81
353.62
386.69
408.68
412.73
395.73
343.94
256.58
147.42
39.38
-48.12
-108.46
-145.86
-168.08
-180.76
-186.46
-183.85
-172.19
-155.66
-141.07
-134.95
-140.62
-157.85
-183.64
-213.97
-242.37
-263.04
-272.50
-268.18
-249.37
-217.31
-175.24
-127.88
-80.27
-35.11
6.52
44.30
78.13
107.43
131.28
148.74
159.49
164.66
167.50
171.93
180.03
190.20
196.48
190.98
167.86
126.66
73.49
18.98
-26.28
-56.01
-69.96
-72.63
-70.10
-67.08
-65.83
-66.80
-69.89
-75.48
-84.76
-99.28
-120.35
-148.28
-181.62
-217.08
-249.96
-275.50
-290.27
-293.39
-286.20
-270.89
-249.31
-221.96
-188.27
-147.73
-101.02
-50.48
0.18
46.97
86.82
118.01
140.51
155.75
166.26
175.33
186.53
203.10
227.07
258.08
292.58
323.95
343.66
343.75
319.41
271.09
204.98
131.47
62.30
6.95
-29.67
-48.16
-53.48
-52.37
-50.73
-51.64
-55.27
-60.00
-64.47
-68.72
-74.19
-82.22
-92.04
-100.11
-101.21
-91.13
-69.10
-38.93
-7.56
17.82
33.02
38.34
37.82
36.68
38.37
42.96
47.46
48.25
43.64
35.25
27.25
24.00
27.73
37.38
49.44
60.03
67.64
74.25
84.44
102.79
130.95
166.49
203.62
235.87
258.31
269.77
272.76
271.98
272.09
275.79
283.38
293.20
302.87
308.90
308.49
300.00
283.25
259.34
229.68
195.64
158.80
121.16
82.58
43.15
3.62
-34.26
-68.48
-97.98
-122.86
-143.58
-160.22
-176.41
-195.26
-218.20
-244.10
-270.08
-294.00
-315.31
-334.41
-351.64
-372.41
-401.18
-439.92
-486.32
-534.63
-579.94
-619.52
-651.90
-648.79
-591.70
-478.90
-330.83
-176.30
-34.92
84.62
180.89
253.07
309.34
350.29
374.74
380.87
370.75
352.37
331.56
310.21
289.17
268.98
245.16
213.56
169.72
113.59
52.26
-7.90
-63.06
-108.63
-139.93
-156.48
-142.26
-89.84
-29.02
25.04
75.58
121.87
163.83
201.20
230.55
247.21
244.34
217.97
168.61
98.84
13.63
-77.57
-164.54
-240.82
-304.08
-357.07
-403.48
-448.84
-498.96
-557.40
-622.02
-687.09
-745.81
-791.12
-818.15
-787.92
-681.78
-514.05
-325.67
-156.82
-27.99
60.15
117.17
153.33
173.98
179.91
170.43
148.28
121.00
96.98
81.38
75.12
75.94
80.44
82.05
76.55
64.64
51.48
42.98
42.71
50.97
65.67
83.80
100.09
110.73
115.28
116.12
116.27
117.83
121.15
125.40
129.28
130.55
127.79
121.33
112.75
103.67
95.97
90.30
86.28
82.65
77.56
69.52
58.11
43.76
27.24
11.65
-0.12
-6.07
-5.52
1.05
12.61
28.02
45.84
64.17
84.59
108.67
137.18
169.44
203.69
238.19
271.78
303.54
332.42
362.33
397.16
439.67
490.27
547.34
608.65
672.90
739.92
779.88
770.41
701.20
579.37
423.92
254.97
87.90
-65.66
-196.48
-298.47
-365.96
-399.38
-405.23
-393.58
-373.96
-352.79
-332.06
-311.64
-291.69
-270.12
-246.08
-220.58
-196.42
-176.28
-162.60
-154.71
-148.98
-140.75
-124.42
-97.57
-62.27
-24.47
7.95
27.21
28.77
11.99
-20.20
-61.23
-103.09
-138.45
-161.94
-166.71
-152.60
-124.62
-89.86
-54.33
-21.04
9.32
36.80
62.17
86.28
109.57
133.11
158.09
185.02
213.61
242.27
267.50
286.19
296.34
296.72
287.84
271.58
250.51
226.96
202.95
178.59
154.08
129.67
105.37
81.18
56.79
30.92
0.08
-31.07
-62.44
-94.30
-126.21
-156.61
-182.63
-200.55
-206.70
-198.79
-176.60
-143.61
-104.81
-65.62
-31.26
-5.70
8.25
9.04
-4.21
-31.75
-74.22
-131.20
-201.11
-281.85
-370.63
-463.67
-555.29
-637.52
-700.82
-736.98
-741.29
-714.62
-663.55
-598.13
-528.45
-461.64
-400.80
-345.73
-295.34
-248.80
-205.90
-166.61
-130.30
-95.63
-61.34
-27.12
5.81
35.13
58.30
73.97
82.61
86.28
87.93
90.04
93.83
98.89
103.75
106.81
107.30
105.63
103.05
100.93
99.73
98.76
96.49
91.48
83.42
73.77
65.73
63.67
72.42
96.16
137.31
195.29
265.56
339.99
408.26
460.69
491.15
498.89
487.92
464.62
434.51
400.35
362.69
320.85
274.59
224.82
173.47
122.21
71.47
20.16
-33.36
-89.26
-147.05
-205.75
-263.80
-318.33
-364.61
-396.68
-409.26
-399.46
-366.65
-314.49
-250.07
-181.70
-116.25
-57.45
-6.36
36.94
73.42
106.23
138.36
171.90
207.53
244.59
281.78
317.08
347.38
355.51
329.87
269.18
184.48
92.34
6.26
-66.60
-120.83
-161.34
-192.00
-212.91
-223.51
-224.12
-216.39
-203.31
-187.33
-170.28
-154.12
-138.63
-122.08
-103.92
-85.57
-70.09
-60.43
-57.89
-62.01
-71.44
-81.67
-88.03
-88.32
-83.57
-76.99
-71.49
-67.82
-64.71
-59.92
-47.48
-22.65
15.61
64.25
117.88
171.74
223.49
272.87
320.69
372.63
433.48
504.77
583.36
662.04
731.73
783.40
809.94
782.11
686.69
532.43
349.84
175.40
33.62
-68.77
-137.60
-182.60
-211.58
-224.74
-221.56
-204.17
-178.80
-153.38
-134.10
-124.16
-123.22
-128.28
-132.24
-129.98
-120.00
-104.78
-88.76
-75.22
-67.16
-65.29
-68.13
-68.42
-60.85
-43.59
-18.54
10.23
38.82
61.38
73.63
74.39
66.12
51.51
31.47
4.78
-30.63
-76.38
-136.65
-213.24
-303.03
-397.93
-488.29
-566.18
-626.69
-667.74
-660.74
-589.39
-458.67
-294.16
-127.24
20.69
141.85
238.01
315.24
377.42
427.22
464.39
489.50
503.58
508.78
506.86
499.01
486.73
467.37
435.85
388.78
327.19
252.95
171.32
89.68
16.43
-38.52
-73.05
-90.63
-96.59
-95.99
-98.18
-109.74
-133.00
-165.63
-198.96
-233.04
-271.30
-316.81
-371.21
-441.14
-528.98
-631.11
-737.00
-826.87
-893.77
-937.06
-957.67
-906.24
-757.70
-524.47
-255.46
-37.51
127.83
252.49
345.33
419.35
476.89
510.47
515.03
488.93
438.92
386.89
340.60
298.70
258.88
217.17
165.09
97.63
11.95
-86.54
-176.18
-247.18
-299.60
-334.65
-355.88
-370.20
-353.50
-293.26
-233.68
-184.80
-133.68
-79.88
-25.16
25.93
67.15
93.65
98.32
78.47
43.96
1.23
-47.52
-87.78
-105.36
-94.29
-61.70
-26.67
-5.29
-2.42
-11.27
-26.79
-43.62
-59.33
-73.10
-80.55
-78.66
-63.05
-27.68
26.30
87.59
142.01
177.21
188.52
181.45
167.74
161.48
174.31
209.59
260.88
317.08
364.82
391.38
387.22
348.02
278.05
191.10
107.40
47.09
24.31
41.45
88.20
145.11
190.65
209.37
196.81
160.59
116.38
81.90
70.30
85.50
121.62
165.76
203.17
222.35
218.36
192.90
152.04
103.65
54.69
10.26
-26.21
-52.55
-67.46
-70.61
-63.26
-48.62
-30.92
-14.60
-3.02
2.56
2.87
-0.13
-4.54
-9.70
-16.62
-27.12
-43.33
-66.88
-98.12
-136.17
-179.34
-226.63
-278.20
-334.39
-393.60
-451.40
-500.57
-532.94
-542.50
-527.56
-492.08
-444.38
-393.47
-344.58
-300.06
-260.59
-226.91
-200.49
-182.44
-172.68
-170.41
-172.87
-173.23
-165.90
-149.04
-125.07
-98.44
-72.01
-46.37
-21.88
3.18
35.64
80.11
135.73
195.74
251.44
297.42
332.08
354.34
366.67
378.99
399.76
431.82
471.43
512.64
553.46
596.58
643.00
648.04
581.41
444.42
271.55
101.89
-43.45
-159.33
-231.23
-272.14
-292.87
-295.20
-279.11
-246.01
-199.50
-155.69
-121.32
-91.51
-63.61
-36.02
-5.44
30.73
73.61
121.60
171.90
224.68
289.46
369.71
462.36
560.63
656.54
742.95
813.42
862.95
833.31
702.93
495.74
266.46
62.22
-95.93
-208.01
-284.04
-336.10
-373.49
-393.90
-397.04
-387.77
-374.89
-364.88
-360.50
-361.33
-366.07
-371.70
-368.18
-349.27
-315.31
-272.22
-225.21
-178.02
-132.94
-91.53
-54.88
-19.49
16.53
51.85
74.33
79.48
68.30
45.14
15.26
-16.87
-45.95
-69.04
-86.21
-99.53
-109.82
-118.07
-125.43
-132.96
-141.41
-150.14
-158.42
-166.00
-172.89
-178.19
-180.94
-180.76
-178.05
-173.72
-168.40
-162.97
-158.28
-155.26
-153.31
-152.27
-152.31
-153.92
-157.47
-161.99
-166.09
-168.24
-167.20
-160.14
-145.56
-123.68
-96.05
-69.44
-48.44
-36.02
-33.52
-40.74
-52.39
-63.16
-69.83
-71.71
-69.13
-61.43
-47.44
-26.22
2.46
43.64
99.91
169.21
244.76
319.05
387.10
447.22
499.36
544.15
589.45
640.45
696.69
751.65
798.07
831.77
853.95
868.11
831.97
724.56
553.57
353.53
162.00
1.80
-121.84
-211.41
-273.60
-315.32
-335.30
-333.38
-308.40
-271.07
-231.87
-198.19
-170.61
-148.56
-131.00
-111.02
-82.75
-43.64
4.15
58.86
99.16
115.63
105.54
73.44
32.18
-5.78
-33.83
-53.48
-69.33
-86.17
-103.61
-119.81
-132.37
-138.11
-136.10
-129.19
-124.22
-128.58
-146.99
-177.77
-216.17
-256.06
-290.95
-315.86
-323.14
-312.54
-287.23
-251.79
-209.47
-163.53
-117.39
-75.14
-35.67
2.93
41.58
80.96
120.40
158.28
191.95
218.25
235.12
242.48
241.02
229.78
206.89
170.01
114.29
40.46
-47.14
-141.78
-235.85
-316.28
-369.66
-387.57
-371.58
-331.19
-276.83
-216.61
-155.54
-96.68
-42.66
2.62
35.44
56.95
70.88
84.21
104.52
137.32
183.65
239.65
289.66
319.05
319.76
293.22
249.19
199.88
154.73
117.69
89.46
64.61
38.91
10.86
-19.21
-50.11
-81.52
-114.41
-150.75
-192.25
-229.89
-255.12
-261.82
-248.74
-219.49
-180.72
-139.70
-102.22
-71.45
-48.16
-31.98
-21.48
-15.03
-11.00
-8.20
-5.73
-3.33
-1.15
0.57
1.20
0.81
0.17
0.48
3.14
9.43
19.88
33.87
49.70
64.15
73.86
76.19
70.27
58.68
46.93
41.36
46.05
61.16
82.21
101.99
113.04
109.64
90.41
58.46
19.30
-21.29
-58.47
-89.29
-112.76
-129.55
-142.43
-154.15
-165.98
-178.71
-192.44
-205.74
-215.62
-219.31
-210.20
-187.69
-154.96
-116.08
-75.94
-38.06
-2.09
36.29
81.54
134.80
191.07
242.66
283.86
310.02
317.94
307.14
280.52
241.96
194.78
140.24
70.18
-8.42
-79.55
-130.13
-156.89
-162.35
-151.80
-126.64
-87.10
-32.81
38.00
124.51
216.97
292.23
329.81
322.11
278.26
214.85
147.19
85.91
34.44
-7.88
-41.64
-65.17
-78.69
-85.99
-96.16
-117.07
-151.13
-195.60
-242.89
-281.81
-299.40
-286.63
-241.55
-169.63
-79.48
22.75
126.74
217.03
276.81
299.00
289.18
260.13
223.39
186.55
153.77
126.79
106.76
94.43
90.69
94.12
99.86
99.92
86.99
57.36
13.13
-38.19
-87.09
-124.35
-147.73
-158.35
-160.62
-159.28
-157.38
-155.69
-153.76
-152.26
-151.59
-152.78
-156.52
-162.92
-170.70
-177.69
-181.75
-174.54
-156.99
-132.27
-104.35
-76.36
-50.56
-27.69
-7.54
10.53
26.83
40.17
50.49
57.96
63.58
68.55
74.50
82.80
94.21
108.15
122.38
134.84
143.33
146.42
143.45
134.66
120.82
102.95
81.65
57.90
32.80
7.44
-16.76
-38.24
-55.59
-67.94
-75.37
-78.64
-79.47
-79.29
-78.85
-78.20
-77.41
-77.11
-78.39
-81.68
-85.08
-84.96
-76.50
-56.57
-26.05
9.68
42.83
66.54
77.51
76.36
65.25
46.11
19.36
-14.62
-53.33
-91.16
-120.15
-133.23
-125.56
-100.21
-63.83
-24.10
12.41
43.16
66.79
82.40
89.01
85.34
70.02
43.77
9.54
-26.50
-56.61
-74.22
-76.16
-64.34
-45.26
-28.03
-19.59
-22.43
-34.18
-49.57
-63.18
-71.57
-73.72
-70.16
-61.85
-48.83
-30.75
-7.97
17.58
43.27
66.35
84.81
97.99
106.40
111.65
115.18
117.79
119.65
120.77
121.05
120.62
120.88
121.44
122.32
123.05
123.03
121.48
118.28
113.79
108.57
103.32
98.74
95.82
94.97
95.36
94.05
86.87
69.80
41.08
2.80
-39.23
-77.10
-104.29
-118.01
-120.18
-115.13
-107.29
-99.43
-92.34
-86.05
-80.72
-77.33
-77.07
-80.78
-87.41
-94.62
-100.07
-102.04
-100.39
-96.18
-91.01
-83.60
-75.61
-67.55
-58.97
-49.16
-37.65
-24.59
-10.89
2.34
14.11
23.39
30.37
35.80
40.56
45.57
51.58
58.84
67.46
77.32
87.74
98.30
108.67
117.75
124.37
127.26
125.40
118.23
105.73
88.34
67.10
44.11
21.13
-0.34
-19.18
-34.70
-46.55
-54.70
-59.49
-61.24
-60.58
-58.38
-55.54
-52.76
-50.57
-49.09
-48.11
-47.24
-45.85
-43.71
-41.04
-38.45
-36.56
-35.94
-36.61
-38.07
-39.42
-39.78
-38.74
-36.68
-34.56
-33.48
-34.35
-37.26
-41.40
-45.38
-48.01
-48.62
-47.53
-46.13
-45.30
-46.02
-49.03
-54.75
-63.01
-72.42
-79.98
-81.42
-72.75
-52.22
-22.02
12.12
42.89
64.45
74.59
75.06
69.99
63.36
57.39
52.01
46.20
39.40
32.30
26.39
22.95
22.10
22.70
23.05
21.43
17.08
10.46
3.03
-3.47
-7.70
-9.50
-9.92
-10.66
-13.58
-19.87
-29.60
-41.48
-53.27
-62.35
-66.84
-66.33
-61.18
-52.73
-42.33
-31.05
-19.21
-6.56
7.39
22.69
39.16
56.61
74.75
92.73
108.46
118.49
118.15
105.31
81.25
51.03
22.02
0.82
-9.37
-9.62
-4.07
2.60
7.74
11.10
13.90
17.09
20.40
22.53
22.15
18.96
14.11
9.58
7.38
8.42
12.05
16.56
19.86
20.45
18.16
14.20
10.73
10.00
13.41
20.79
30.73
41.00
49.38
54.46
56.03
54.54
50.72
45.06
37.24
26.23
10.73
-10.20
-36.78
-68.30
-103.45
-139.76
-173.19
-198.60
-211.04
-207.86
-190.68
-164.64
-136.55
-112.69
-95.82
-84.12
-72.75
-56.64
-33.39
-4.43
26.35
54.45
77.20
94.65
108.76
121.51
133.97
145.85
155.98
163.43
166.63
163.96
153.78
135.15
108.59
77.17
45.87
19.88
2.56
-5.45
-6.10
-2.90
0.93
3.42
4.57
5.59
8.11
13.36
20.99
29.19
34.57
33.86
25.19
9.85
-8.01
-23.94
-34.77
-40.58
-44.66
-50.88
-60.87
-72.76
-81.18
-80.76
-68.92
-47.34
-21.51
1.91
18.42
27.16
29.38
27.04
21.22
11.71
-2.12
-19.93
-40.27
-60.29
-77.38
-90.09
-98.91
-106.05
-114.47
-127.14
-145.32
-167.63
-189.30
-203.35
-202.95
-184.33
-148.79
-102.42
-53.94
-10.86
22.76
46.86
64.40
79.00
92.36
103.71
111.43
114.40
113.65
111.00
108.77
107.78
107.53
106.70
103.79
99.65
93.65
86.92
80.47
75.13
70.67
66.25
60.72
53.30
43.94
32.96
21.55
10.79
1.63
-5.46
-10.55
-13.82
-15.34
-14.91
-12.78
-9.24
-5.00
-1.23
0.82
-0.27
-5.36
-14.46
-26.57
-40.74
-55.81
-70.50
-83.78
-94.51
-102.09
-105.87
-104.89
-98.32
-86.65
-71.58
-55.32
-40.19
-27.99
-19.90
-16.35
-15.68
-15.60
-14.41
-15.00
-18.77
-25.89
-34.94
-43.25
-47.43
-41.82
-21.31
16.28
69.42
134.31
205.89
279.14
349.32
397.17
407.55
376.80
314.66
237.13
158.08
85.19
21.18
-34.18
-82.23
-122.08
-151.87
-171.19
-181.90
-186.72
-188.47
-188.58
-187.16
-183.58
-174.79
-157.09
-128.97
-92.17
-50.48
-8.32
30.77
64.57
92.09
108.02
111.48
103.59
85.99
60.30
27.81
-10.03
-51.62
-95.62
-136.77
-171.55
-197.28
-212.47
-216.45
-208.97
-189.88
-159.74
-120.68
-72.49
-14.00
54.56
131.76
215.49
302.86
389.89
471.05
527.93
547.17
523.80
463.51
379.03
284.05
189.27
101.90
30.97
-23.93
-62.08
-84.95
-97.85
-109.53
-129.66
-164.93
-214.95
-271.22
-320.28
-347.11
-344.38
-314.65
-267.65
-214.86
-165.04
-123.35
-91.69
-69.94
-52.57
-33.67
-7.71
29.20
78.16
136.75
198.46
250.44
281.89
288.81
274.09
245.72
212.64
180.66
150.53
119.14
78.86
25.38
-40.14
-112.26
-182.96
-244.42
-291.77
-315.72
-314.85
-293.62
-258.25
-214.45
-166.92
-119.50
-75.89
-39.47
-12.41
3.83
10.49
11.42
11.21
13.09
18.25
25.96
34.31
41.53
45.68
46.79
46.69
47.77
51.65
58.80
68.28
77.83
85.15
87.84
84.94
77.03
65.80
52.98
40.01
27.76
15.86
3.33
-11.08
-27.74
-46.01
-62.40
-75.48
-84.57
-89.54
-91.58
-92.74
-95.59
-102.33
-114.58
-132.59
-154.35
-177.19
-193.00
-194.04
-175.64
-138.45
-88.19
-33.53
17.59
60.65
95.05
122.35
144.86
163.82
178.92
189.16
193.40
190.48
178.96
157.76
127.77
92.31
56.99
27.70
8.33
-0.82
-2.47
-0.34
3.22
8.29
16.15
27.31
40.22
51.63
58.05
57.08
48.57
34.50
18.02
1.86
-12.60
-25.52
-38.29
-52.60
-69.38
-88.33
-107.98
-126.67
-142.65
-153.75
-157.69
-152.41
-136.99
-112.51
-83.47
-53.52
-26.66
-5.04
12.03
27.55
45.17
67.06
92.10
115.95
132.65
136.77
126.45
104.47
77.07
51.54
33.34
24.09
22.14
24.52
28.61
33.86
41.19
51.28
63.27
74.70
82.13
83.36
78.34
68.60
56.36
43.54
30.60
16.98
1.89
-15.22
-33.62
-51.48
-66.57
-77.33
-83.39
-85.79
-86.44
-87.11
-89.04
-92.20
-95.78
-98.82
-101.16
-103.41
-106.80
-112.94
-120.89
-128.69
-133.27
-131.58
-121.65
-103.64
-79.47
-52.24
-25.42
-1.86
16.32
28.25
34.58
37.42
39.87
44.77
53.37
63.86
72.27
74.01
66.54
51.41
33.21
18.07
11.18
14.12
23.71
33.87
38.43
33.50
19.31
-0.20
-18.68
-29.47
-27.60
-11.43
17.65
55.28
95.76
133.92
165.84
188.88
201.08
200.55
186.00
158.42
121.86
83.29
50.91
30.66
23.01
23.82
26.20
24.01
14.48
-1.80
-21.89
-42.56
-61.98
-79.72
-95.80
-109.78
-120.26
-125.53
-124.24
-116.58
-104.48
-90.90
-79.01
-70.68
-66.40
-64.95
-64.48
-63.34
-60.87
-57.36
-53.71
-50.90
-49.73
-50.91
-54.32
-58.80
-61.78
-59.55
-48.69
-27.88
0.92
32.71
59.23
74.16
75.34
65.18
48.79
31.15
15.13
1.00
-12.28
-25.40
-37.75
-47.94
-54.96
-58.57
-59.66
-59.73
-59.64
-59.30
-57.91
-54.13
-47.00
-36.56
-23.87
-10.89
0.24
7.88
11.43
11.13
8.13
3.72
-1.13
-5.76
-10.19
-14.68
-19.52
-24.85
-30.62
-36.64
-42.82
-49.39
-56.42
-64.27
-73.19
-83.31
-94.59
-106.75
-119.40
-132.17
-144.92
-157.07
-168.28
-178.28
-186.84
-193.67
-198.10
-199.34
-196.29
-191.36
-185.51
-179.38
-173.36
-167.65
-162.28
-156.86
-151.03
-144.56
-137.39
-129.17
-119.62
-108.53
-95.78
-81.34
-64.75
-45.84
-24.87
-2.54
20.61
44.00
67.19
89.86
111.67
133.76
156.68
180.09
202.45
222.05
237.53
248.20
254.19
256.13
257.99
262.69
271.42
282.98
295.07
305.78
314.29
320.72
325.72
334.92
352.07
378.19
410.75
445.54
479.21
510.41
539.27
566.64
599.60
642.43
695.83
755.90
816.51
872.51
921.00
960.83
948.54
858.71
689.57
467.20
230.05
10.20
-175.01
-320.78
-429.16
-504.45
-541.30
-544.27
-521.54
-486.18
-453.52
-436.05
-439.60
-464.50
-501.36
-531.95
-542.45
-527.66
-492.85
-449.09
-406.64
-371.01
-342.83
-319.95
-297.27
-272.57
-246.01
-220.03
-197.57
-180.16
-167.21
-156.88
-147.27
-135.87
-122.20
-107.13
-92.74
-81.14
-73.56
-70.43
-71.21
-75.29
-81.23
-87.06
-89.55
-84.95
-70.32
-45.08
-11.86
24.11
55.38
76.68
86.38
86.38
80.31
71.58
62.45
54.23
47.92
44.51
45.04
49.48
56.21
62.76
66.53
66.06
61.59
54.85
48.11
44.07
44.69
50.28
58.94
66.38
66.82
55.01
28.79
-9.28
-52.55
-92.20
-120.71
-134.63
-135.13
-126.49
-113.47
-98.17
-82.30
-65.81
-48.64
-31.88
-17.48
-7.15
-1.28
1.20
2.22
3.57
6.30
10.27
14.41
17.44
18.59
17.96
16.46
15.31
15.32
16.83
19.49
22.42
24.73
25.94
26.09
25.67
25.36
25.59
26.48
27.78
28.93
29.36
28.77
27.05
24.50
21.46
18.21
14.96
11.83
8.80
5.89
3.15
0.70
-1.35
-2.92
-4.01
-4.67
-4.97
-5.04
-5.01
-4.91
-4.78
-4.58
-4.36
-4.08
-3.74
-3.25
-2.52
-1.50
-0.07
1.81
4.27
7.24
10.67
14.55
18.80
23.38
28.20
33.25
38.50
44.04
49.59
55.03
60.32
65.52
70.72
76.02
81.64
87.77
94.69
102.12
109.84
117.70
125.58
133.35
140.90
148.23
155.38
162.55
169.21
175.07
179.90
183.49
185.55
185.60
182.76
175.34
166.21
155.92
144.64
132.36
119.10
104.99
90.34
75.61
61.38
48.34
36.42
25.65
16.14
8.06
1.62
-2.93
-5.44
-6.00
-4.91
-3.38
-2.56
-3.40
-6.34
-11.20
-17.25
-23.48
-29.04
-33.62
-37.99
-43.25
-50.52
-60.29
-72.10
-84.62
-96.15
-105.38
-112.07
-117.52
-123.91
-133.44
-147.33
-165.26
-185.40
-205.31
-223.05
-238.10
-251.58
-265.98
-284.26
-308.80
-340.23
-376.08
-410.12
-432.76
-433.43
-404.39
-344.83
-262.93
-174.74
-99.63
-53.97
-45.67
-71.49
-118.47
-168.25
-203.03
-210.44
-186.48
-135.65
-68.85
0.36
59.76
101.60
123.92
129.78
124.93
115.11
103.87
92.03
78.12
59.67
34.58
2.04
-36.91
-78.99
-118.96
-150.41
-167.51
-167.14
-150.21
-121.61
-88.31
-56.46
-29.33
-6.67
13.79
34.42
56.13
78.23
99.53
119.18
136.85
151.82
162.04
164.02
153.99
129.70
91.84
44.75
-4.27
-46.36
-73.06
-78.24
-59.85
-20.79
31.07
84.28
126.50
147.60
142.41
112.07
63.71
8.78
-39.57
-69.39
-72.82
-48.26
-1.39
55.70
107.57
139.67
142.61
114.77
62.66
-1.05
-61.09
-103.53
-119.30
-106.39
-70.47
-23.14
21.10
48.84
51.11
25.52
-23.78
-87.39
-153.18
-208.99
-244.83
-254.67
-237.30
-196.20
-138.51
-73.19
-9.15
46.05
87.14
111.55
119.77
115.27
103.68
91.22
82.75
80.27
82.55
86.11
86.91
82.15
71.48
57.15
43.19
34.00
32.67
39.68
52.26
65.03
71.46
66.19
47.01
15.82
-21.79
-58.52
-87.69
-105.35
-111.04
-107.20
-97.61
-86.01
-75.01
-65.98
-59.49
-55.55
-53.86
-53.66
-53.71
-52.63
-49.25
-43.22
-34.99
-25.49
-15.56
-5.33
5.89
19.26
35.71
55.23
76.27
95.77
109.76
114.96
110.21
97.40
81.22
67.50
61.18
64.49
76.34
93.07
109.91
122.63
128.69
127.62
120.64
109.89
97.67
85.75
75.15
66.02
57.95
50.22
42.35
34.11
25.45
16.39
6.96
-2.57
-11.52
-18.90
-23.68
-25.36
-24.22
-21.29
-17.79
-14.79
-12.74
-11.70
-11.52
-11.99
-12.91
-13.75
-13.91
-12.91
-11.17
-10.22
-12.56
-20.59
-35.20
-54.95
-76.18
-94.17
-104.99
-107.04
-101.46
-91.31
-80.17
-70.47
-63.00
-57.13
-51.68
-45.78
-38.96
-31.15
-22.19
-12.12
-1.32
9.18
18.08
24.37
27.83
28.90
28.17
25.69
21.00
13.73
4.45
-4.89
-11.60
-13.57
-10.15
-2.35
7.97
19.17
30.41
41.27
51.21
59.04
63.05
61.83
55.11
44.06
30.86
18.06
7.57
0.27
-4.05
-6.21
-7.02
-6.99
-6.07
-3.94
-0.25
4.89
10.86
16.49
20.47
21.87
20.30
16.17
10.54
4.78
0.32
-1.80
-1.13
1.95
6.38
10.42
12.28
10.71
5.59
-1.85
-9.27
-14.16
-14.92
-11.47
-5.21
1.78
7.68
11.71
14.12
15.75
17.39
19.23
20.95
21.94
21.84
20.70
18.98
17.37
16.19
15.16
13.42
9.92
4.16
-3.36
-11.17
-17.52
-21.27
-22.52
-22.49
-22.87
-24.88
-28.85
-34.15
-39.98
-45.94
-52.27
-59.63
-68.66
-79.46
-91.46
-103.45
-113.59
-119.56
-118.88
-109.47
-90.62
-63.81
-33.05
-4.35
16.07
24.15
19.72
6.85
-7.68
-17.15
-17.37
-7.79
9.12
29.69
50.81
70.84
89.45
107.02
124.37
142.83
164.16
189.83
219.58
250.01
274.55
285.22
275.84
244.93
197.12
141.88
90.30
51.42
29.67
24.43
31.69
46.24
63.47
79.93
92.87
99.60
97.73
85.81
64.53
36.94
7.66
-18.83
-39.85
-55.02
-65.38
-71.81
-73.78
-69.47
-57.06
-36.39
-9.98
17.42
40.27
53.93
55.58
44.38
21.17
-11.76
-50.66
-90.37
-124.79
-148.32
-157.33
-151.29
-132.96
-107.22
-79.46
-54.22
-34.47
-21.65
-16.36
-18.60
-28.02
-43.51
-62.75
-82.14
-97.44
-104.88
-102.38
-90.42
-71.73
-50.12
-29.05
-10.46
5.17
18.04
27.71
32.35
29.05
15.27
-9.29
-41.48
-74.80
-101.30
-114.15
-110.00
-89.99
-58.89
-23.05
11.80
42.07
66.49
85.20
98.77
107.36
110.56
107.79
98.89
84.60
66.85
48.51
32.67
21.86
17.55
19.90
28.01
40.03
53.33
64.55
70.01
66.65
53.21
31.19
4.63
-21.04
-40.89
-51.91
-53.59
-47.19
-34.77
-18.28
0.57
19.96
37.80
51.94
60.90
64.60
64.73
64.25
66.05
71.49
79.73
88.03
93.38
94.17
91.45
88.46
89.02
95.42
107.13
120.97
132.48
137.94
135.53
125.54
109.62
89.62
66.88
42.21
15.88
-12.21
-42.50
-75.50
-111.22
-148.09
-182.69
-209.89
-224.23
-221.63
-200.76
-163.55
-114.75
-60.90
-8.88
35.10
66.32
82.04
81.92
68.17
45.12
18.35
-6.72
-25.74
-36.27
-38.31
-34.46
-29.72
-30.21
-41.36
-65.91
-102.56
-145.52
-185.99
-214.88
-226.05
-218.43
-195.98
-166.10
-137.22
-117.04
-109.30
-112.36
-119.70
-122.80
-114.77
-93.42
-62.11
-28.49
-2.63
9.72
10.32
7.57
11.73
29.88
63.44
108.38
157.22
198.56
223.31
227.42
212.15
181.30
139.27
90.41
38.61
-13.30
-68.41
-129.93
-197.83
-267.53
-332.35
-386.01
-424.20
-445.38
-426.39
-359.53
-258.97
-153.16
-64.42
0.39
44.65
73.60
90.55
97.32
91.99
75.89
55.27
38.67
31.66
34.21
42.26
50.07
55.56
56.71
55.03
55.70
65.21
87.76
122.99
164.23
202.49
228.61
233.58
213.71
172.89
121.52
71.81
32.81
7.70
-5.72
-12.90
-20.41
-31.87
-46.14
-58.29
-62.27
-53.95
-32.96
-2.65
30.88
60.53
81.10
91.32
93.37
90.97
86.95
82.17
76.04
67.82
58.05
48.73
42.42
40.55
42.69
46.47
49.13
48.66
44.74
38.72
32.85
29.23
28.82
31.25
34.87
37.95
39.28
38.67
36.79
34.82
33.90
34.38
36.54
38.64
39.39
37.84
33.64
27.00
18.59
9.18
-1.12
-11.25
-21.00
-30.13
-38.46
-45.75
-51.78
-56.30
-59.20
-60.53
-60.40
-59.33
-57.68
-55.79
-53.92
-52.27
-50.86
-49.67
-48.64
-47.53
-46.41
-45.38
-44.55
-44.01
-43.87
-44.01
-44.15
-43.81
-42.48
-39.93
-36.07
-31.13
-25.47
-19.47
-13.28
-6.70
0.67
9.15
18.72
28.90
38.89
47.76
54.92
60.38
64.85
69.43
75.14
82.34
90.50
98.36
104.48
107.75
107.96
105.71
102.12
98.49
96.08
96.01
98.98
104.51
110.41
112.79
107.04
89.77
60.90
24.37
-12.84
-43.24
-62.13
-68.54
-64.75
-54.56
-41.39
-27.16
-12.47
2.54
17.47
30.88
41.90
50.95
59.73
70.24
83.70
99.70
116.27
130.69
139.42
140.91
136.20
128.29
120.58
115.16
111.86
108.19
104.87
98.92
88.59
74.60
59.75
47.10
38.58
34.57
34.44
37.01
36.49
28.62
12.41
-9.74
-34.40
-58.74
-81.00
-100.25
-116.30
-136.26
-165.41
-204.31
-248.60
-292.90
-333.91
-370.84
-404.45
-435.97
-474.61
-526.02
-588.88
-655.25
-716.04
-765.26
-800.47
-821.40
-779.64
-653.54
-458.57
-239.60
-38.76
123.46
245.16
332.94
395.18
439.45
463.15
464.99
447.96
420.79
391.88
365.88
343.72
324.20
305.91
280.43
246.37
205.74
164.62
129.14
102.76
86.17
78.45
78.67
80.23
78.50
72.12
63.50
56.18
52.51
53.36
55.49
60.52
65.08
66.72
64.34
59.24
53.31
48.08
44.30
42.26
42.50
41.50
36.61
26.01
9.72
-11.89
-38.86
-72.18
-114.45
-151.97
-178.20
-190.06
-189.26
-179.55
-165.48
-150.20
-135.14
-120.31
-105.06
-91.47
-81.04
-74.98
-72.43
-72.32
-73.24
-73.73
-72.37
-68.11
-62.53
-56.80
-55.57
-56.22
-56.09
-52.61
-43.59
-27.57
-4.70
22.55
54.16
85.50
113.71
136.87
154.41
166.59
173.66
175.32
169.95
156.28
133.51
103.14
66.63
25.12
-20.64
-67.51
-112.15
-149.70
-173.70
-179.42
-165.24
-134.83
-95.32
-55.66
-18.40
15.17
44.49
68.19
83.11
86.57
78.15
60.48
41.48
30.18
30.95
42.28
58.50
72.98
81.88
85.15
85.39
85.55
86.83
87.70
85.78
79.96
70.78
60.52
51.85
46.26
43.77
42.72
40.07
32.84
19.76
-0.35
-26.90
-57.68
-88.78
-114.99
-131.48
-135.11
-127.54
-113.72
-100.26
-92.15
-90.75
-93.62
-96.19
-94.36
-86.41
-73.23
-56.30
-36.88
-15.12
9.35
35.40
61.83
86.52
107.04
121.25
128.95
131.17
129.91
127.06
123.82
120.57
116.72
112.82
106.53
97.31
85.46
71.92
57.75
43.79
30.80
18.92
8.20
-1.54
-9.86
-16.31
-20.60
-22.58
-22.53
-20.77
-18.05
-15.29
-13.60
-13.41
-14.86
-17.74
-21.62
-25.96
-29.70
-32.02
-32.53
-31.50
-29.47
-27.35
-26.02
-26.11
-29.89
-36.77
-45.19
-53.61
-61.01
-66.75
-69.94
-70.48
-67.94
-61.87
-51.34
-35.70
-15.17
8.95
34.66
60.11
84.27
107.56
126.96
135.71
129.28
107.07
72.37
30.60
-12.63
-52.46
-85.20
-108.62
-121.65
-124.70
-120.03
-109.95
-96.65
-81.00
-62.31
-38.77
-8.38
30.66
75.68
123.13
168.29
204.97
226.35
226.68
203.85
161.13
107.14
53.04
8.88
-20.20
-35.40
-42.32
-47.59
-55.61
-66.59
-76.72
-81.56
-77.13
-62.17
-39.03
-12.88
10.10
23.54
25.06
16.44
1.97
-13.91
-28.64
-41.77
-53.65
-64.07
-71.76
-74.99
-73.27
-68.01
-62.11
-58.50
-58.98
-63.21
-69.14
-73.94
-75.08
-71.64
-64.01
-53.60
-41.73
-28.87
-14.46
2.58
23.01
46.60
70.69
93.18
111.92
125.73
134.66
139.70
142.48
144.87
148.62
154.62
162.20
168.09
167.28
154.95
129.05
92.16
51.19
14.76
-10.28
-21.41
-21.26
-15.48
-9.44
-5.89
-4.55
-3.55
-1.44
1.56
3.70
2.55
-3.63
-15.04
-30.30
-46.72
-61.07
-71.62
-78.10
-81.62
-84.28
-87.83
-93.01
-99.26
-105.42
-110.58
-114.34
-115.86
-113.33
-104.09
-86.22
-60.77
-32.78
-10.14
-0.46
-7.81
-30.40
-60.87
-89.72
-107.75
-109.59
-94.74
-66.60
-30.90
6.54
40.88
68.17
84.80
87.74
74.75
45.39
2.83
-45.47
-88.83
-116.53
-120.90
-102.49
-68.42
-29.72
3.36
24.56
33.44
33.17
28.32
22.46
17.34
13.75
12.27
14.18
21.82
37.46
61.66
92.00
122.62
145.18
152.83
142.52
116.96
83.88
53.06
32.00
22.75
21.34
19.89
11.58
-6.01
-29.46
-50.88
-61.85
-57.71
-39.62
-13.44
12.18
31.56
42.49
45.91
43.69
36.22
22.04
-0.51
-30.49
-62.78
-88.86
-101.12
-97.11
-81.26
-62.29
-47.97
-40.79
-37.26
-31.36
-19.49
-3.79
8.97
11.89
2.83
-13.93
-29.22
-35.02
-29.11
-15.51
-1.21
8.66
13.34
15.44
18.26
23.20
28.58
31.40
29.29
22.03
11.79
1.84
-4.91
-7.32
-6.48
-4.94
-5.68
-10.97
-22.08
-38.19
-56.98
-74.32
-85.12
-85.19
-73.13
-51.35
-25.46
-2.29
13.45
20.43
21.05
19.71
20.53
25.49
34.35
45.65
56.92
68.09
79.22
89.91
99.23
106.05
109.53
109.55
108.06
105.47
102.86
100.65
98.58
96.07
92.71
88.57
84.31
81.08
80.14
83.43
91.97
104.95
118.98
128.58
127.95
113.50
85.96
50.17
13.95
-15.76
-35.62
-46.68
-53.07
-59.51
-68.91
-80.31
-92.76
-104.40
-114.09
-121.63
-127.37
-131.50
-134.11
-135.19
-134.68
-133.05
-130.50
-127.22
-123.55
-119.64
-115.69
-111.97
-108.75
-106.41
-105.95
-108.50
-114.77
-124.10
-133.47
-137.92
-132.31
-113.92
-84.42
-49.95
-18.52
3.34
13.06
12.73
7.38
1.82
-1.41
-2.52
-3.07
-4.19
-4.81
-2.60
4.95
19.03
38.81
61.71
84.11
103.09
116.71
125.71
132.03
137.87
144.46
151.66
158.34
163.29
165.90
165.69
161.76
152.25
134.94
109.05
76.32
41.39
9.43
-15.51
-32.67
-44.64
-55.48
-67.55
-79.42
-86.44
-83.69
-69.46
-46.99
-23.61
-7.58
-3.82
-11.78
-26.23
-40.08
-48.40
-50.33
-48.62
-47.31
-48.94
-52.90
-56.17
-55.12
-47.34
-33.10
-14.83
4.20
21.41
35.64
46.00
51.05
48.94
38.74
21.97
3.07
-12.03
-18.82
-16.42
-8.09
0.47
4.57
2.93
-2.26
-7.52
-10.33
-11.25
-11.76
-12.81
-13.73
-12.20
-5.82
6.43
23.98
45.12
67.51
87.95
103.43
110.34
105.45
87.66
59.48
26.43
-5.17
-31.09
-51.30
-67.63
-81.56
-91.83
-94.38
-84.93
-62.59
-31.71
-1.56
18.55
23.64
14.75
-2.05
-19.16
-30.21
-32.77
-27.11
-14.82
2.19
21.48
39.27
50.51
49.69
33.18
1.42
-39.63
-79.74
-107.73
-115.30
-100.41
-67.54
-26.24
12.74
41.13
55.65
57.90
52.61
45.20
39.60
38.16
40.81
46.32
53.37
61.00
68.75
76.30
83.58
90.75
99.25
110.60
126.32
146.41
168.61
188.14
198.85
195.72
172.63
133.69
89.12
50.68
25.87
16.02
17.41
23.53
30.51
36.88
43.25
49.34
53.39
51.64
41.52
23.47
1.03
-21.04
-39.61
-50.50
-53.51
-51.55
-50.62
-55.53
-68.23
-87.60
-110.81
-135.20
-158.27
-178.34
-196.00
-216.43
-245.50
-287.13
-341.53
-405.05
-471.93
-535.18
-587.96
-606.73
-577.39
-501.46
-396.09
-283.35
-179.25
-91.71
-28.63
14.16
38.45
41.58
22.33
-15.48
-62.90
-106.06
-132.23
-133.10
-106.15
-56.52
4.81
67.52
125.80
179.32
231.90
287.51
347.93
412.13
475.35
531.04
574.71
605.28
623.32
630.01
625.85
610.47
584.18
547.85
503.79
455.93
408.37
361.82
314.98
265.76
213.44
159.31
105.48
53.51
3.73
-44.44
-94.41
-149.20
-209.35
-272.20
-333.76
-391.14
-443.61
-492.80
-525.36
-531.43
-509.96
-470.92
-427.65
-388.33
-353.33
-317.37
-273.39
-216.32
-148.80
-79.03
-17.03
29.59
58.71
73.88
82.75
93.05
110.47
132.15
150.18
156.71
147.66
124.94
95.26
66.98
46.59
36.95
35.45
37.66
40.10
41.84
43.28
43.44
38.72
24.04
-4.18
-47.30
-101.08
-158.26
-210.83
-253.05
-283.69
-304.37
-316.56
-318.28
-305.20
-273.35
-222.04
-155.33
-81.46
-11.29
47.15
85.17
99.96
99.71
93.99
88.40
84.22
82.96
86.96
99.76
124.95
165.51
217.74
273.67
324.05
362.02
383.51
385.37
365.09
322.27
261.09
190.34
121.12
63.61
23.83
1.91
-7.20
-10.46
-12.88
-16.85
-22.85
-30.93
-41.75
-55.98
-74.14
-96.07
-120.89
-146.99
-173.41
-201.07
-232.33
-269.37
-312.49
-359.63
-399.90
-422.47
-418.85
-386.18
-328.32
-253.68
-171.50
-88.49
-6.63
68.63
131.06
177.07
206.31
220.69
223.36
218.01
208.20
196.54
184.24
171.74
159.24
146.77
134.28
122.04
110.58
100.51
92.06
84.89
78.44
72.41
66.54
60.61
54.73
49.43
45.25
42.32
40.51
39.51
39.09
40.57
42.47
43.85
44.29
43.30
40.42
35.16
27.25
16.78
2.17
-14.76
-32.45
-49.42
-64.68
-77.23
-85.93
-90.63
-90.78
-86.27
-77.38
-64.74
-48.99
-31.66
-14.28
1.81
15.52
26.15
33.43
37.15
35.16
28.77
19.24
7.80
-4.26
-15.54
-24.79
-30.34
-32.28
-30.47
-24.96
-16.56
-5.94
6.45
20.41
35.64
51.35
63.96
72.29
75.48
73.05
65.68
55.09
43.70
33.81
26.95
23.17
21.83
21.10
19.20
16.09
12.72
11.27
14.18
23.58
40.78
66.22
96.92
127.44
150.98
160.94
153.20
127.82
89.55
46.63
8.25
-21.00
-40.47
-52.43
-60.16
-66.23
-72.04
-78.34
-86.30
-94.35
-105.35
-122.33
-146.58
-176.86
-210.15
-243.04
-273.08
-299.13
-308.76
-295.47
-260.06
-210.72
-157.62
-107.61
-63.23
-24.62
8.85
37.65
59.62
73.26
78.78
78.44
75.48
72.76
72.00
73.72
77.64
81.26
82.57
80.87
77.00
72.63
69.23
67.73
68.42
71.20
74.60
77.45
79.23
80.19
80.92
81.59
82.20
82.28
81.18
77.71
71.06
60.96
47.85
33.16
17.94
3.24
-10.09
-21.44
-30.64
-37.73
-42.87
-46.20
-47.88
-48.24
-47.58
-46.24
-44.52
-42.76
-41.18
-39.96
-39.17
-38.60
-38.13
-37.59
-36.91
-36.18
-35.68
-35.68
-36.48
-37.98
-39.90
-41.82
-43.34
-44.28
-44.84
-45.63
-47.30
-50.48
-55.07
-60.64
-66.31
-71.20
-75.22
-78.19
-81.00
-83.95
-87.38
-90.48
-91.91
-90.11
-84.07
-73.62
-59.78
-44.38
-28.89
-15.61
-5.82
-0.35
0.83
-0.92
-2.40
0.88
13.01
35.69
66.71
100.64
130.55
150.97
160.15
160.05
154.70
147.94
140.89
132.95
122.94
110.35
95.74
80.76
66.54
53.51
41.14
28.72
15.81
2.97
-8.48
-16.98
-21.44
-21.77
-18.85
-14.31
-9.89
-6.92
-5.99
-6.86
-8.94
-11.62
-14.60
-17.95
-22.32
-27.55
-33.44
-39.58
-45.34
-50.09
-53.27
-55.11
-55.97
-56.22
-56.07
-55.55
-54.45
-52.38
-48.90
-43.62
-36.45
-27.45
-16.99
-5.33
7.12
19.73
31.78
42.45
50.91
56.40
58.54
57.20
53.01
46.80
39.35
31.25
22.92
14.42
5.55
-3.71
-13.35
-22.51
-30.35
-36.37
-40.44
-42.96
-44.84
-47.22
-50.47
-54.33
-56.88
-55.54
-47.48
-32.25
-9.77
19.14
52.82
90.16
124.01
148.67
161.39
163.45
159.25
152.69
145.51
137.26
127.49
115.83
103.28
91.35
81.31
74.46
70.93
73.85
80.70
89.17
95.87
96.59
86.63
57.64
12.23
-41.61
-93.31
-133.64
-156.89
-163.31
-157.52
-145.96
-133.92
-124.39
-117.72
-114.10
-114.05
-116.83
-120.50
-121.64
-116.70
-104.03
-84.47
-62.30
-42.74
-29.17
-20.83
-13.96
-3.66
13.76
39.60
73.34
110.56
145.53
172.52
187.81
191.02
185.82
178.81
176.66
182.32
192.28
197.68
188.21
157.46
106.11
41.43
-26.55
-89.24
-141.66
-181.89
-208.86
-221.08
-217.54
-199.79
-173.11
-145.59
-124.96
-115.12
-114.67
-117.75
-117.50
-109.32
-92.70
-70.51
-46.69
-24.43
-5.72
8.08
16.21
18.53
15.84
10.14
4.21
1.14
3.18
10.59
21.42
33.43
44.76
53.80
59.19
59.15
53.05
41.77
27.11
10.68
-5.31
-19.07
-30.09
-38.80
-46.46
-52.58
-54.93
-50.64
-38.26
-16.79
13.72
51.50
95.41
137.04
167.48
185.13
199.91
215.88
230.21
236.58
224.52
188.73
130.13
57.95
-13.16
-69.36
-103.27
-115.39
-112.01
-102.72
-96.49
-99.48
-112.16
-130.07
-147.45
-160.13
-167.10
-168.46
-165.61
-160.66
-156.63
-155.75
-159.43
-169.13
-185.76
-209.62
-236.21
-257.44
-264.64
-251.99
-217.43
-163.00
-94.92
-13.86
65.85
126.59
158.74
164.14
150.75
127.73
105.62
87.97
76.71
71.42
73.02
82.69
99.78
118.36
130.50
129.36
112.15
82.68
48.01
17.57
-1.60
-8.30
-6.35
-0.08
9.57
25.70
53.42
89.83
125.80
149.53
152.96
135.61
103.75
66.47
31.71
4.47
-14.42
-25.82
-29.59
-28.06
-24.02
-19.96
-18.35
-20.80
-26.64
-33.12
-35.50
-28.49
-8.72
22.39
58.59
89.91
106.79
105.71
90.74
70.16
51.62
41.60
35.25
25.47
6.13
-25.57
-67.89
-115.41
-160.60
-192.81
-202.85
-187.91
-152.46
-107.62
-66.25
-37.83
-25.91
-28.31
-38.38
-48.49
-52.80
-47.05
-28.46
5.17
54.76
118.12
182.40
230.08
248.02
235.07
201.30
159.88
121.13
90.35
67.88
51.17
37.93
27.22
19.14
14.22
12.58
14.18
19.01
26.43
34.46
40.09
39.26
27.68
2.82
-34.19
-77.10
-115.97
-141.10
-147.21
-135.12
-111.18
-85.03
-63.00
-47.97
-38.81
-32.01
-24.60
-16.17
-9.11
-7.25
-13.73
-29.10
-50.93
-74.47
-94.20
-105.69
-106.60
-97.14
-79.68
-57.73
-34.88
-14.46
0.84
9.70
12.69
12.79
14.38
21.93
38.61
65.49
101.09
140.47
174.97
196.89
203.42
197.11
183.86
169.60
158.35
151.49
147.52
144.95
137.88
120.10
86.88
36.84
-27.08
-98.05
-164.63
-214.24
-239.33
-240.25
-222.87
-195.17
-163.85
-132.98
-104.49
-79.31
-58.56
-43.42
-34.30
-29.84
-27.76
-25.64
-22.06
-16.74
-10.25
-3.99
0.56
2.54
2.44
1.54
1.25
2.40
5.11
8.87
12.66
15.46
16.64
16.47
15.70
15.24
15.62
16.97
19.02
21.23
23.06
24.21
24.89
25.57
26.87
29.10
32.37
36.50
41.10
45.63
49.44
52.30
53.93
54.04
52.26
48.20
41.58
32.37
21.28
9.05
-3.20
-14.35
-23.58
-30.59
-35.68
-39.51
-42.74
-45.74
-48.45
-50.40
-51.07
-50.24
-48.22
-45.94
-44.54
-44.95
-47.28
-50.93
-54.66
-57.34
-58.49
-57.89
-56.28
-54.74
-54.44
-56.51
-61.82
-70.42
-80.82
-89.47
-91.40
-82.08
-59.71
-26.83
10.02
42.73
65.03
74.88
74.90
70.20
65.32
62.31
60.47
58.05
54.23
50.33
48.74
51.03
56.56
62.86
67.45
69.11
68.41
66.40
63.10
56.93
45.66
28.43
7.07
-14.15
-30.33
-38.58
-39.37
-35.37
-29.29
-22.27
-13.83
-3.33
8.46
18.94
24.92
24.40
17.69
7.58
-2.26
-8.97
-11.91
-12.88
-15.19
-22.06
-35.23
-54.72
-78.65
-103.81
-126.03
-140.58
-142.91
-130.19
-103.16
-67.23
-31.35
-4.54
7.98
7.26
-0.14
-5.71
-3.52
7.09
21.79
34.54
41.34
42.14
40.04
38.73
40.26
44.07
48.08
50.12
49.59
47.59
45.90
45.65
46.78
48.20
46.88
41.94
33.35
21.83
8.71
-4.53
-16.05
-25.35
-31.76
-34.72
-33.51
-27.87
-17.94
-4.27
12.48
31.50
50.75
69.46
87.06
103.25
117.88
131.26
143.72
154.64
161.52
160.01
145.87
117.05
75.84
28.87
-15.06
-48.35
-67.53
-74.10
-72.69
-67.98
-62.82
-57.66
-51.78
-44.84
-37.64
-31.76
-28.42
-27.57
-27.77
-27.14
-24.11
-18.33
-10.69
-2.84
3.56
7.47
8.92
8.69
7.96
7.54
7.43
6.93
4.93
0.51
-6.59
-15.87
-26.13
-35.93
-43.99
-49.50
-52.18
-52.28
-50.13
-46.12
-40.59
-33.90
-26.45
-18.74
-11.50
-5.50
-1.55
0.07
-0.63
-3.31
-7.50
-12.56
-17.79
-22.53
-26.23
-28.72
-29.63
-28.84
-26.38
-22.53
-17.70
-12.31
-6.79
0.28
7.83
15.27
22.34
29.18
36.06
43.29
51.04
59.32
67.96
76.32
83.90
89.86
93.70
94.80
92.62
86.91
77.55
64.68
48.55
30.89
12.78
-4.75
-20.82
-34.75
-45.86
-53.99
-59.25
-62.04
-62.73
-61.94
-60.24
-58.11
-55.84
-53.32
-50.64
-47.89
-45.16
-42.36
-39.65
-37.15
-34.89
-34.13
-33.41
-31.85
-29.00
-24.42
-17.93
-9.67
-0.01
10.61
21.92
34.06
47.10
60.51
73.82
86.25
96.69
103.96
107.27
106.53
102.64
96.98
90.15
82.67
74.34
64.23
51.08
33.89
12.60
-11.57
-36.61
-61.51
-85.38
-108.20
-130.89
-155.34
-183.93
-219.79
-266.73
-319.52
-374.74
-426.81
-468.36
-492.25
-494.09
-474.19
-438.13
-394.72
-352.68
-319.01
-295.99
-282.20
-274.56
-270.10
-266.10
-260.44
-250.91
-235.13
-211.98
-180.97
-142.91
-100.02
-55.15
-9.73
35.48
80.27
124.82
168.66
211.43
252.45
290.26
323.38
352.55
378.18
399.79
416.01
424.76
424.90
416.41
399.64
376.47
352.77
333.41
320.90
315.02
313.87
315.91
320.44
326.54
334.82
350.29
375.92
411.04
451.26
490.47
523.70
548.04
561.26
