1513818690.00
64.000000
-0.00
-0.00
-0.00
-0.00
-0.00
-0.00
-0.00
-0.00
-0.00
-0.00
0.00
0.01
0.01
-0.00
-0.03
-0.05
-0.05
0.00
0.13
0.36
0.66
1.01
1.37
1.72
2.06
2.40
2.79
3.24
3.80
4.42
5.06
5.66
6.20
6.68
7.15
7.68
8.31
9.14
10.09
11.04
11.88
12.56
13.14
13.76
14.65
15.96
17.91
20.32
22.90
25.38
27.58
29.57
31.68
34.32
37.81
42.54
48.15
54.10
59.83
64.97
69.58
74.14
79.34
85.71
93.76
103.00
112.62
121.73
129.77
136.75
143.30
150.75
157.77
166.64
177.95
191.79
206.97
220.57
228.25
225.36
208.53
176.87
132.76
80.05
23.07
-34.94
-92.44
-149.16
-205.23
-260.37
-313.74
-363.87
-409.84
-450.91
-486.51
-515.74
-537.21
-549.19
-549.92
-538.35
-514.25
-478.81
-434.12
-382.80
-327.44
-270.29
-213.08
-157.09
-103.39
-52.86
-6.47
34.91
70.67
100.54
124.70
143.62
157.96
168.36
175.41
179.51
180.99
180.19
177.47
173.21
167.76
161.41
154.31
146.62
138.46
130.05
121.66
113.56
105.87
98.57
91.44
84.18
76.60
68.71
60.81
53.36
46.79
41.26
36.58
32.22
27.57
22.22
16.17
9.91
4.19
-0.36
-3.45
-5.37
-6.79
-8.52
-11.17
-15.07
-20.19
-26.07
-31.71
-35.57
-35.84
-31.05
-20.88
-6.62
9.09
23.24
33.64
39.65
42.10
42.39
41.54
39.66
36.28
31.09
24.56
18.05
13.23
11.56
13.71
19.61
28.39
38.51
47.95
54.61
56.92
54.45
48.19
40.07
32.17
25.86
21.40
18.22
15.46
12.63
9.66
6.74
3.92
0.92
-2.85
-8.01
-14.66
-22.21
-29.25
-33.99
-34.91
-31.65
-25.34
-18.28
-12.95
-10.76
-11.46
-13.42
-14.64
-13.81
-10.93
-7.02
-3.30
-0.50
1.44
3.01
4.69
6.53
8.17
9.09
8.90
7.45
4.82
1.25
-2.96
-7.40
-11.49
-14.46
-15.40
-13.64
-9.05
-2.41
4.74
10.45
13.17
12.28
8.30
2.60
-3.24
-7.94
-10.81
-11.57
-10.23
-6.88
-1.84
4.20
10.26
15.29
18.62
20.21
20.60
20.54
20.60
20.90
21.09
20.63
18.75
14.94
8.96
1.04
-8.06
-17.05
-24.24
-28.04
-27.42
-22.32
-13.78
-3.70
5.67
12.37
15.11
13.59
8.36
0.63
-8.18
-16.60
-23.45
-27.91
-29.50
-28.17
-24.22
-18.35
-11.60
-5.17
-0.03
3.31
4.89
5.20
4.86
4.40
4.16
4.26
4.76
5.65
6.78
7.83
8.26
7.55
5.45
2.26
-1.33
-4.43
-6.28
-6.44
-4.86
-1.97
1.46
4.56
6.68
7.36
6.59
4.85
3.00
1.93
1.99
2.95
4.16
5.12
5.37
4.76
3.24
1.01
-1.71
-4.96
-8.79
-13.07
-17.22
-20.97
-24.35
-27.80
-31.60
-34.55
-35.37
-33.25
-30.18
-27.22
-25.41
-25.03
-26.43
-29.30
-32.65
-35.33
-36.33
-35.00
-30.88
-24.11
-15.26
-5.23
5.09
14.81
23.02
29.07
32.68
34.23
34.23
33.20
31.52
29.52
27.42
25.19
22.72
19.85
16.58
12.96
9.09
5.14
1.40
-1.89
-4.65
-6.95
-8.89
-10.34
-11.01
-10.49
-8.44
-4.69
0.53
6.63
12.79
18.18
22.19
24.57
25.48
25.53
25.52
26.24
28.17
31.25
34.89
38.20
40.34
40.82
39.63
37.10
33.75
29.96
25.83
21.18
15.75
9.39
2.07
-6.08
-14.89
-24.14
-33.72
-43.71
-54.23
-65.33
-76.79
-88.10
-98.48
-107.13
-113.33
-116.71
-117.41
-115.93
-112.90
-108.87
-104.25
-99.35
-94.41
-89.13
-83.07
-75.65
-66.31
-54.59
-40.44
-24.40
-7.66
8.34
23.34
37.56
51.26
64.45
76.73
87.40
95.68
101.04
103.72
106.12
110.95
119.72
132.07
146.13
159.27
169.04
173.92
173.75
171.30
169.63
170.12
171.95
173.16
172.11
168.39
162.69
145.49
112.50
66.32
14.60
-35.15
-78.80
-114.89
-143.17
-164.09
-178.88
-188.74
-192.98
-191.20
-183.98
-173.06
-160.87
-149.96
-142.31
-138.68
-136.61
-130.20
-114.15
-85.27
-43.61
7.82
64.23
120.25
171.20
207.71
222.28
213.04
185.52
148.84
110.72
75.20
43.20
14.26
-11.43
-31.67
-43.96
-47.05
-42.47
-33.91
-25.38
-19.63
-17.29
-16.95
-15.59
-10.95
-2.87
6.12
11.27
9.76
1.16
-12.54
-28.05
-41.73
-51.30
-56.59
-59.65
-63.18
-68.87
-76.88
-85.90
-93.84
-98.46
-99.04
-94.38
-84.31
-69.38
-50.57
-29.51
-8.57
9.54
22.66
29.77
31.44
29.07
24.37
18.77
13.05
7.41
2.01
-2.82
-6.45
-8.13
-7.66
-5.48
-3.12
-1.88
-2.46
-4.65
-7.47
-9.60
-10.01
-8.54
-5.83
-2.99
-0.88
0.20
0.64
1.06
2.08
4.01
6.72
9.59
11.77
12.63
12.02
10.50
8.73
7.83
9.37
15.26
27.03
45.13
68.61
95.10
121.24
142.52
155.43
159.19
156.38
151.51
148.99
151.50
159.34
171.06
182.80
191.05
194.06
191.77
183.97
169.10
144.85
109.74
64.77
11.45
-47.43
-108.39
-168.28
-226.08
-283.15
-341.73
-403.41
-453.38
-477.58
-471.87
-444.28
-406.01
-362.81
-314.14
-257.18
-191.60
-120.89
-53.37
2.26
41.25
65.32
79.99
89.83
97.54
103.82
109.29
114.40
120.69
131.32
149.98
178.46
215.37
256.66
291.07
301.80
277.62
218.45
137.00
52.58
-18.35
-67.57
-94.69
-103.67
-98.56
-82.13
-57.29
-28.26
-0.74
19.63
29.47
28.97
21.02
9.99
0.42
-4.98
-5.65
-2.85
1.25
4.63
6.06
5.73
3.77
1.16
-1.32
-3.58
-6.34
-10.31
-15.52
-21.31
-26.65
-30.78
-33.13
-33.75
-33.38
-33.22
-33.92
-35.00
-35.03
-32.34
-26.16
-16.99
-6.61
2.45
8.02
10.04
11.01
13.64
20.66
32.97
49.12
65.88
78.83
83.45
76.75
58.16
29.17
-7.25
-47.23
-86.26
-117.14
-130.80
-123.30
-98.72
-65.43
-31.17
-0.94
22.77
39.38
49.62
54.47
54.62
51.12
45.65
40.16
36.24
34.76
36.03
39.83
45.19
50.30
53.26
52.50
47.01
36.56
22.01
5.58
-9.77
-21.53
-28.80
-32.30
-33.68
-34.58
-35.95
-37.96
-39.75
-40.56
-40.24
-39.29
-38.38
-37.76
-37.09
-35.69
-32.89
-28.37
-22.42
-15.89
-9.93
-5.48
-2.94
-2.13
-2.38
-2.97
-3.39
-3.46
-3.30
-3.11
-3.00
-2.95
-2.78
-2.22
-1.03
0.87
3.46
6.49
9.68
12.72
15.48
17.55
18.88
19.53
19.54
18.95
17.67
15.60
12.72
9.15
5.10
0.86
-3.44
-7.83
-12.09
-15.95
-19.05
-21.11
-21.97
-21.65
-20.40
-18.71
-17.08
-15.43
-13.44
-10.64
-6.66
-1.31
5.45
13.26
21.47
29.26
36.35
42.70
48.36
53.29
57.52
61.45
65.54
70.32
72.81
70.27
60.72
43.67
19.77
-9.31
-40.64
-70.55
-95.42
-113.03
-122.78
-126.10
-125.75
-124.88
-127.34
-133.47
-142.87
-154.50
-166.77
-177.17
-182.60
-180.67
-170.75
-154.02
-132.60
-109.07
-85.11
-60.78
-35.21
-6.90
24.78
58.89
93.09
124.63
150.58
168.76
178.10
179.22
175.79
172.14
171.98
177.72
190.26
208.32
228.96
248.44
263.53
273.97
279.49
278.90
270.31
252.36
224.99
190.04
151.14
102.84
49.17
-0.26
-36.96
-58.92
-69.56
-73.45
-73.78
-71.84
-68.55
-63.26
-56.92
-51.86
-50.42
-53.69
-61.50
-72.59
-85.55
-99.24
-111.43
-120.78
-126.88
-129.62
-128.66
-123.64
-114.54
-102.13
-87.74
-72.09
-56.27
-41.59
-29.00
-18.69
-10.22
-2.81
4.12
10.77
17.32
23.40
28.14
30.72
30.84
28.88
25.82
22.81
20.84
20.61
22.19
25.16
28.96
33.17
37.58
42.10
46.49
50.27
52.82
53.67
52.73
50.38
47.27
43.94
40.55
36.70
31.73
25.16
17.04
8.12
-0.42
-7.34
-11.73
-13.27
-12.19
-9.13
-4.92
-0.55
2.93
4.54
3.53
-0.26
-6.31
-13.40
-19.97
-24.57
-26.41
-25.47
-22.50
-18.62
-14.95
-12.28
-11.01
-11.23
-12.89
-15.87
-20.06
-25.24
-31.18
-37.68
-44.67
-52.34
-61.12
-71.41
-83.35
-96.59
-110.29
-123.13
-133.56
-139.94
-140.88
-135.49
-123.69
-106.33
-85.10
-62.26
-40.27
-21.41
-7.46
0.49
2.14
-1.94
-10.45
-21.60
-33.53
-44.84
-54.93
-64.03
-72.71
-81.34
-89.74
-97.16
-102.63
-105.31
-104.85
-101.31
-94.95
-86.00
-74.55
-60.64
-44.31
-25.71
-5.07
17.23
40.52
63.71
85.19
103.03
115.56
121.80
121.72
116.16
106.33
93.46
78.59
62.65
46.67
31.93
19.71
10.94
5.87
3.94
4.03
4.91
5.73
6.30
6.99
8.41
11.05
15.06
20.15
25.63
30.61
34.11
35.39
34.15
30.77
26.23
21.95
19.23
18.91
21.03
24.89
29.40
33.48
36.34
37.60
37.22
35.31
32.12
27.99
23.45
19.11
15.55
13.12
11.80
11.24
10.88
10.18
8.79
6.65
3.91
0.88
-2.05
-4.45
-5.94
-6.26
-5.44
-3.79
-1.81
-0.01
1.39
2.48
3.54
4.72
5.87
6.50
6.13
4.56
2.11
-0.56
-2.76
-4.04
-4.39
-4.04
-3.26
-2.24
-1.11
0.05
1.10
1.90
2.40
2.66
2.82
2.93
2.90
2.57
1.89
0.94
-0.10
-1.10
-2.05
-3.13
-4.52
-6.25
-8.06
-9.56
-10.45
-10.69
-10.47
-10.01
-9.39
-8.58
-7.43
-5.79
-3.58
-0.93
1.83
4.20
5.59
5.57
3.82
0.34
-4.39
-9.36
-13.42
-15.82
-16.48
-16.02
-15.27
-15.10
-15.75
-16.62
-16.55
-14.48
-10.04
-3.49
4.60
13.88
24.11
34.09
41.72
45.08
43.95
40.06
36.30
35.28
38.80
46.09
55.53
65.58
75.41
84.93
94.63
105.25
114.76
121.16
120.83
109.77
84.94
45.85
-5.06
-62.71
-120.93
-170.21
-199.44
-203.86
-187.54
-160.20
-130.71
-104.22
-82.50
-66.15
-59.17
-61.14
-71.33
-87.26
-104.44
-116.55
-117.74
-104.47
-70.60
-22.02
29.76
74.15
110.34
141.06
169.74
194.29
210.46
212.52
195.07
157.78
105.06
44.39
-17.68
-77.69
-136.16
-195.60
-257.61
-320.73
-377.84
-418.94
-435.20
-423.47
-387.19
-334.95
-276.59
-219.87
-168.74
-122.53
-78.35
-33.54
12.53
58.82
103.46
144.68
180.91
210.45
231.89
244.28
247.24
240.85
225.96
204.08
177.42
148.86
121.63
99.02
83.48
75.69
74.28
76.26
78.21
77.74
74.18
68.44
62.05
55.87
49.35
40.96
29.53
15.59
1.92
-7.63
-10.01
-4.61
6.45
19.34
30.44
37.82
41.56
43.02
43.46
43.27
42.09
39.60
35.99
32.09
28.87
26.96
26.56
27.27
28.42
29.36
29.73
29.56
29.12
28.68
28.41
28.89
30.32
32.31
34.13
35.15
35.25
34.68
33.75
32.59
32.28
33.42
35.77
38.56
41.28
44.23
48.08
53.32
59.76
68.50
79.60
91.53
101.69
107.95
109.80
108.22
105.05
102.36
104.56
114.72
133.01
156.76
181.89
204.94
223.78
237.59
230.81
196.69
140.67
77.31
20.08
-24.58
-54.64
-69.21
-67.95
-52.45
-24.94
9.20
42.40
66.99
77.79
74.33
60.17
40.41
19.47
1.79
-10.87
-19.88
-24.34
-25.26
-24.50
-23.86
-25.19
-30.37
-39.81
-53.41
-70.72
-90.96
-113.59
-138.77
-165.68
-192.90
-219.47
-245.36
-272.14
-302.46
-338.87
-382.81
-434.65
-489.39
-537.56
-568.81
-575.92
-557.19
-516.53
-461.75
-402.27
-348.47
-305.01
-269.97
-237.58
-202.35
-161.06
-113.26
-60.64
10.16
95.64
179.79
245.85
287.50
307.66
312.52
307.43
296.00
280.62
260.43
236.45
212.15
192.12
178.31
170.15
165.27
160.12
150.93
132.93
104.59
68.48
29.19
-9.52
-44.74
-73.44
-91.68
-95.35
-83.41
-57.50
-22.43
14.52
45.72
66.27
75.44
76.06
72.08
65.80
58.22
49.98
42.10
35.91
32.78
33.11
36.00
39.48
41.22
39.83
35.72
30.75
27.20
27.40
31.98
40.44
51.00
61.02
67.58
68.51
63.08
52.51
39.78
28.48
21.47
19.69
21.90
25.35
27.33
26.36
22.71
17.96
13.92
11.77
11.65
12.90
14.61
16.29
18.06
20.61
24.91
31.56
40.51
51.02
61.79
71.53
79.36
84.91
87.86
88.20
86.10
82.31
78.10
75.18
74.92
77.64
82.05
85.83
86.79
83.92
77.84
70.11
61.88
52.95
41.73
26.09
4.57
-22.82
-54.83
-89.54
-125.00
-159.52
-191.52
-219.42
-241.89
-258.20
-268.39
-273.19
-273.52
-270.22
-263.87
-254.83
-243.20
-228.77
-211.06
-189.60
-164.50
-137.14
-110.31
-87.40
-71.17
-62.59
-60.84
-63.92
-69.70
-76.60
-83.55
-89.62
-93.81
-95.21
-93.17
-88.23
-81.75
-75.04
-68.08
-59.35
-46.52
-27.85
-3.23
26.04
56.64
84.52
106.68
122.31
132.70
140.14
146.72
153.61
162.10
172.10
182.35
191.22
197.44
200.26
199.41
195.58
190.82
189.53
194.68
205.68
218.17
225.77
222.79
206.69
179.53
138.27
88.96
42.67
8.29
-13.04
-25.42
-32.95
-37.48
-39.56
-40.54
-41.98
-46.79
-57.72
-74.94
-95.00
-112.73
-123.01
-122.74
-112.25
-94.04
-72.91
-54.39
-42.39
-37.57
-37.46
-38.27
-36.18
-29.21
-17.48
-3.65
8.20
14.60
14.23
8.17
-0.95
-10.12
-16.95
-20.84
-21.99
-21.20
-19.40
-17.42
-15.85
-15.12
-15.20
-15.57
-15.20
-12.90
-8.08
-0.89
8.04
18.07
28.24
37.89
46.75
54.72
61.79
67.80
72.50
75.69
77.33
77.50
76.40
74.20
70.88
66.35
60.40
52.96
44.23
34.80
25.38
16.62
8.75
1.44
-5.90
-13.71
-21.93
-29.90
-36.71
-41.64
-44.69
-46.63
-48.57
-51.47
-55.70
-61.16
-67.35
-73.56
-78.73
-81.43
-80.03
-73.25
-60.96
-44.57
-26.77
-10.63
1.62
9.39
13.72
16.51
19.49
23.48
28.27
33.09
37.20
40.15
41.79
42.05
40.81
37.86
32.93
25.95
17.13
6.99
-3.71
-14.08
-23.31
-30.75
-36.07
-39.24
-40.51
-40.43
-39.66
-38.71
-37.85
-37.19
-36.82
-36.92
-37.66
-39.09
-41.12
-43.31
-44.95
-45.14
-43.12
-38.48
-31.17
-21.50
-10.09
1.82
12.82
21.74
28.02
31.81
33.74
34.76
35.66
36.81
37.52
36.80
34.07
29.66
24.58
19.74
15.53
11.54
6.87
0.12
-9.38
-20.95
-32.85
-43.34
-51.63
-57.93
-62.72
-62.08
-53.00
-35.84
-15.45
1.33
9.39
7.20
-2.97
-16.03
-26.05
-28.97
-23.65
-11.77
3.29
17.84
29.05
35.72
38.26
38.04
36.41
34.50
33.31
34.18
38.13
45.70
56.26
67.29
74.27
71.55
54.90
23.91
-16.49
-57.25
-88.69
-104.74
-105.48
-96.58
-85.51
-77.21
-71.75
-65.26
-53.46
-35.07
-12.83
8.49
23.38
29.26
27.62
22.78
19.17
18.79
20.68
22.12
20.69
15.73
8.89
2.95
0.33
1.88
6.66
12.55
17.36
19.80
19.71
18.16
16.67
16.51
18.22
21.50
25.36
28.48
29.57
27.77
23.14
16.73
10.40
6.10
5.17
7.78
12.88
18.73
23.80
27.31
29.41
30.71
31.73
32.52
32.61
31.39
28.59
24.63
20.50
17.33
15.91
16.28
17.88
19.65
20.40
19.36
16.62
13.00
9.71
7.81
7.78
9.57
12.35
14.81
15.85
15.11
12.98
10.40
8.29
7.16
7.21
7.85
7.75
5.83
1.90
-3.10
-7.39
-8.87
-7.64
-3.57
3.18
11.07
17.43
19.50
15.83
7.09
-4.08
-14.13
-19.77
-19.83
-16.45
-14.04
-17.21
-29.01
-49.84
-76.88
-104.68
-126.32
-132.83
-120.66
-92.73
-57.05
-23.18
1.49
14.56
18.58
18.92
20.41
24.58
30.07
33.93
33.53
28.02
18.40
7.12
-2.52
-7.27
-5.22
4.18
19.78
38.79
56.02
66.80
69.20
64.76
57.32
50.32
45.17
40.57
33.73
22.16
5.89
-12.30
-27.93
-37.02
-38.11
-32.96
-26.11
-23.02
-28.26
-43.19
-65.19
-88.17
-104.44
-107.61
-94.75
-68.38
-32.98
4.88
38.93
64.30
77.91
78.12
64.67
39.41
7.03
-25.29
-50.11
-61.51
-58.91
-46.70
-31.46
-18.46
-9.31
-2.14
6.56
18.62
33.31
47.62
58.22
63.10
62.30
56.68
48.77
40.30
31.73
23.03
14.33
6.41
0.08
-4.27
-7.10
-9.77
-14.07
-21.23
-30.88
-41.29
-50.01
-55.39
-57.97
-59.62
-62.07
-65.07
-65.43
-58.33
-40.27
-10.10
29.18
70.87
107.11
131.21
139.02
129.67
105.45
71.17
32.41
-2.35
-27.30
-40.29
-42.71
-38.24
-30.80
-23.47
-17.17
-12.29
-9.14
-8.55
-11.03
-16.04
-21.70
-25.33
-25.02
-20.48
-13.24
-5.69
-0.22
1.67
-0.06
-4.25
-9.09
-13.21
-16.17
-17.95
-18.39
-17.49
-15.61
-12.70
-10.06
-8.12
-7.49
-9.11
-13.44
-20.02
-28.24
-36.86
-44.40
-48.98
-48.75
-40.88
-24.91
-3.08
20.12
43.44
67.84
94.49
124.85
159.60
196.72
230.70
253.95
259.33
241.22
198.42
135.40
60.67
-16.66
-90.23
-157.25
-216.87
-258.48
-271.76
-254.76
-215.60
-166.83
-119.25
-80.25
-53.65
-39.77
-36.01
-39.55
-47.87
-55.71
-58.05
-51.21
-34.00
-7.99
23.47
57.44
86.13
105.22
116.26
123.39
128.78
129.62
119.26
91.41
44.76
-15.54
-77.48
-126.55
-151.24
-146.56
-115.76
-69.22
-20.77
16.74
35.03
33.80
19.89
2.36
-10.87
-15.87
-14.01
-10.51
-11.53
-21.54
-40.69
-65.80
-91.84
-113.27
-125.48
-125.83
-113.57
-89.72
-56.81
-17.87
22.98
60.68
89.98
106.49
107.86
94.97
72.19
43.26
14.89
-7.72
-22.87
-32.02
-37.89
-42.17
-44.49
-43.03
-36.60
-25.52
-12.24
0.42
11.23
21.42
33.34
48.29
65.03
80.22
90.68
94.76
93.10
88.03
81.98
76.38
71.67
68.12
66.64
68.93
76.16
87.81
101.43
113.36
120.02
119.21
110.58
95.33
75.36
52.53
28.34
4.30
-18.03
-37.56
-54.54
-71.31
-92.28
-121.63
-160.68
-206.05
-250.18
-284.44
-303.11
-305.76
-296.78
-282.36
-266.94
-251.30
-233.48
-211.22
-184.12
-153.98
-123.12
-92.27
-59.45
-21.08
25.29
78.18
131.38
175.56
201.67
204.73
186.04
152.57
114.03
79.06
52.28
33.76
20.53
9.35
-1.19
-9.92
-14.09
-10.94
0.79
20.34
45.30
72.54
99.15
123.29
144.13
161.54
175.55
186.08
192.99
196.36
196.83
195.67
194.43
194.39
196.01
198.53
200.10
198.13
190.14
174.42
150.58
119.56
83.10
42.92
0.28
-44.03
-89.31
-134.50
-178.07
-218.40
-254.17
-284.59
-309.26
-327.77
-339.46
-343.41
-338.88
-325.49
-303.37
-273.07
-235.40
-191.42
-142.55
-90.63
-37.76
13.84
62.17
105.57
142.87
173.60
198.14
217.39
232.22
242.60
246.74
241.24
222.56
189.41
145.01
97.66
59.11
40.82
49.85
85.50
139.01
196.41
243.34
269.63
271.57
251.43
215.01
169.21
119.15
67.33
14.19
-40.56
-97.05
-154.98
-213.26
-269.43
-317.75
-351.43
-364.74
-355.23
-324.32
-276.67
-218.97
-158.17
-99.99
-45.82
4.06
48.65
85.64
112.92
130.13
138.95
142.68
145.10
152.55
169.19
194.87
225.25
254.74
279.31
297.57
310.53
300.56
258.40
188.54
108.00
34.27
-23.29
-62.99
-87.27
-99.97
-105.71
-106.13
-103.07
-99.40
-98.51
-102.42
-109.90
-119.56
-128.86
-135.68
-136.65
-130.35
-118.25
-103.95
-91.19
-82.15
-77.40
-76.10
-77.12
-77.92
-76.61
-72.52
-65.86
-57.13
-46.74
-35.22
-23.10
-11.08
1.30
15.01
29.14
42.09
51.87
56.75
55.57
48.57
37.35
24.84
13.84
5.62
-0.15
-5.03
-10.54
-17.25
-24.31
-30.31
-34.02
-35.14
-34.43
-32.89
-31.43
-30.51
-30.73
-31.56
-32.52
-33.13
-32.90
-31.55
-28.84
-24.90
-20.47
-16.82
-15.37
-17.21
-22.69
-31.21
-41.61
-52.22
-61.29
-67.36
-69.50
-67.27
-60.92
-51.28
-38.64
-24.65
-11.09
0.66
9.96
16.86
21.79
25.14
27.11
27.78
27.21
25.79
24.13
22.76
21.94
21.51
21.00
19.79
17.41
13.55
8.38
2.39
-3.82
-9.73
-15.00
-19.51
-23.37
-26.99
-31.40
-38.39
-50.56
-70.74
-100.56
-138.73
-180.16
-216.53
-238.64
-239.47
-216.53
-172.40
-113.46
-47.53
18.09
77.70
127.21
163.93
186.58
195.73
194.10
186.23
177.25
171.30
170.37
173.90
179.42
183.71
183.91
178.41
167.10
151.12
132.38
112.85
93.98
76.48
60.46
45.74
32.17
19.66
8.06
-3.08
-14.42
-26.40
-38.75
-50.21
-59.03
-63.72
-64.05
-61.34
-58.02
-56.55
-58.29
-62.93
-68.76
-73.63
-75.89
-74.97
-71.39
-66.25
-60.70
-55.49
-50.93
-46.97
-43.46
-40.41
-37.96
-36.38
-35.66
-35.47
-35.20
-34.27
-32.57
-30.61
-29.27
-29.35
-31.09
-34.04
-37.39
-40.55
-43.59
-47.04
-51.12
-54.64
-54.49
-46.13
-25.21
10.24
58.41
113.76
168.68
216.16
251.90
275.21
288.35
295.02
298.86
302.49
307.17
312.68
317.28
318.04
311.70
296.07
271.33
240.27
207.34
176.61
149.90
126.24
102.77
76.81
47.53
16.36
-14.17
-42.25
-68.00
-93.36
-120.42
-149.54
-178.27
-202.12
-216.83
-220.75
-215.87
-206.77
-198.28
-193.09
-190.79
-188.81
-184.31
-176.18
-165.66
-155.83
-150.49
-153.20
-166.91
-193.79
-234.64
-287.75
-348.08
-407.25
-455.34
-483.58
-487.05
-465.88
-424.71
-370.70
-311.18
-251.99
-196.91
-147.94
-105.95
-71.14
-43.19
-21.28
-4.28
9.19
20.41
30.51
40.38
50.59
61.40
72.74
84.32
95.93
107.56
119.39
131.47
143.39
154.07
162.05
166.06
165.63
161.38
154.70
147.07
139.41
131.85
124.05
115.91
108.05
101.84
98.90
100.32
106.20
115.64
127.14
139.22
150.86
161.73
172.04
182.38
193.46
205.93
220.16
236.11
253.28
270.82
287.67
302.75
315.28
324.88
331.79
336.84
341.23
346.04
351.63
357.18
360.59
358.98
349.61
331.03
303.87
270.78
235.49
201.27
169.68
140.14
110.60
79.02
44.72
8.83
-26.34
-58.77
-87.91
-115.13
-143.00
-173.98
-209.41
-249.34
-293.05
-339.41
-386.68
-431.97
-471.00
-499.15
-513.43
-514.48
-506.85
-497.06
-490.28
-487.47
-485.01
-476.83
-457.89
-426.67
-385.28
-337.31
-285.08
-228.26
-164.72
-92.93
-14.28
66.37
142.08
206.46
256.15
291.82
317.44
338.26
358.68
380.92
404.82
428.62
449.94
466.54
476.48
478.09
470.00
451.55
423.13
386.42
343.98
298.63
252.83
208.30
166.12
126.87
90.75
57.53
26.40
-3.98
-35.20
-68.48
-104.32
-142.35
-181.61
-220.90
-259.30
-296.41
-332.53
-368.77
-407.20
-450.62
-501.57
-560.57
-624.54
-686.23
-735.75
-763.63
-764.27
-737.60
-688.59
-624.96
-555.02
-486.51
-426.45
-380.90
-353.77
-345.21
-350.71
-362.20
-370.85
-370.36
-358.75
-337.77
-310.74
-280.30
-247.81
-213.78
-178.98
-144.66
-111.96
-80.90
-50.25
-18.34
15.66
51.23
86.65
119.96
150.01
176.84
201.61
226.18
252.50
282.10
315.54
351.56
386.65
415.35
431.84
432.29
416.83
389.94
358.68
329.51
305.78
287.14
271.28
256.47
243.16
233.58
229.75
231.61
236.65
241.29
242.90
240.87
236.25
230.33
223.31
214.21
201.78
185.82
167.64
149.54
133.84
121.97
114.36
110.65
110.11
111.83
114.70
117.39
118.51
116.96
112.33
104.94
95.59
85.09
73.91
62.09
49.43
35.82
21.48
6.91
-7.32
-20.71
-32.94
-43.74
-52.87
-60.04
-65.10
-68.07
-69.26
-69.03
-67.57
-64.75
-60.19
-53.58
-45.10
-35.60
-26.44
-18.98
-14.10
-11.89
-11.76
-12.77
-14.06
-15.14
-15.84
-16.19
-16.23
-16.02
-15.71
-15.67
-16.39
-18.34
-21.66
-25.95
-30.36
-33.81
-35.44
-34.89
-32.45
-29.00
-25.60
-23.21
-22.32
-22.91
-24.55
-26.69
-28.84
-30.79
-32.56
-34.32
-36.19
-38.17
-40.10
-41.71
-42.74
-43.03
-42.58
-41.67
-40.66
-39.96
-39.79
-40.10
-40.63
-41.12
-41.58
-42.37
-44.11
-47.33
-52.08
-57.84
-63.61
-68.37
-71.49
-72.85
-72.68
-71.42
-69.52
-67.55
-66.20
-66.04
-67.12
-68.53
-68.41
-64.55
-55.45
-41.10
-23.19
-4.43
12.71
26.84
37.77
45.85
51.13
53.04
50.96
45.08
37.08
29.90
26.58
28.97
36.82
48.06
59.80
69.65
76.45
80.20
81.57
81.19
79.51
76.86
73.70
70.72
68.45
66.99
65.74
63.61
59.51
52.83
43.81
33.42
23.05
13.94
6.85
1.88
-1.41
-3.75
-5.79
-7.89
-10.04
-11.85
-12.88
-12.82
-11.63
-9.54
-6.89
-4.00
-1.07
1.85
4.74
7.60
10.40
13.17
15.99
19.09
22.67
26.83
31.40
35.99
40.06
43.13
44.95
45.56
45.22
44.28
43.00
41.47
39.64
37.48
35.01
32.38
29.78
27.40
25.26
23.27
21.20
18.80
15.91
12.48
8.65
4.68
0.92
-2.34
-4.88
-6.60
-7.52
-7.69
-7.19
-6.11
-4.59
-2.83
-1.07
0.50
1.76
2.74
3.60
4.51
5.59
6.80
7.90
8.56
8.47
7.47
5.67
3.35
0.93
-1.22
-2.93
-4.24
-5.34
-6.45
-7.73
-9.19
-10.75
-12.29
-13.70
-15.00
-16.25
-17.56
-19.03
-20.67
-22.38
-23.97
-25.28
-26.23
-26.82
-27.10
-27.13
-26.96
-26.59
-26.05
-25.40
-24.68
-23.94
-23.13
-22.17
-21.00
-19.69
-18.41
-17.28
-16.33
-15.38
-14.16
-12.48
-10.32
-7.85
-5.35
-3.00
-0.85
1.16
3.15
5.20
7.34
9.57
11.86
14.12
16.15
17.73
18.61
18.75
18.28
17.49
16.65
15.90
15.18
14.31
13.17
11.77
10.31
9.05
8.20
7.80
7.73
7.79
7.80
7.70
7.54
7.37
7.19
6.85
6.14
4.84
2.88
0.42
-2.23
-4.69
-6.66
-8.00
-8.75
-9.05
-9.11
-9.14
-9.36
-9.98
-11.12
-12.83
-14.93
-17.10
-18.86
-19.74
-19.43
-17.91
-15.44
-12.50
-9.66
-7.35
-5.89
-5.41
-5.97
-7.51
-9.90
-12.80
-15.70
-18.02
-19.26
-19.31
-18.49
-17.45
-16.93
-17.41
-18.97
-21.21
-23.49
-25.08
-25.42
-24.22
-21.59
-18.13
-14.87
-13.09
-13.89
-17.78
-24.35
-32.35
-40.04
-45.77
-48.54
-48.17
-45.19
-40.37
-34.35
-27.39
-19.47
-10.57
-1.00
8.61
17.40
24.65
30.04
33.76
36.30
38.19
39.67
40.64
40.75
39.66
37.30
33.93
30.13
26.55
23.69
21.79
20.77
20.39
20.37
20.52
20.75
20.98
21.10
20.91
20.25
19.05
17.37
15.38
13.22
10.91
8.33
5.31
1.79
-2.05
-5.82
-8.97
-11.05
-11.80
-11.36
-10.11
-8.57
-7.18
-6.22
-5.73
-5.61
-5.72
-5.91
-6.08
-6.12
-5.91
-5.35
-4.38
-3.00
-1.26
0.69
2.73
4.70
6.48
8.06
9.48
10.86
12.27
13.74
15.12
16.19
16.75
16.74
16.29
15.68
15.18
14.97
14.99
15.04
14.86
14.27
13.23
11.84
10.23
8.46
6.48
4.13
1.26
-2.08
-5.62
-8.81
-11.10
-12.11
-11.80
-10.57
-9.02
-7.70
-6.89
-6.53
-6.34
-6.04
-5.57
-5.11
-4.93
-5.21
-5.95
-6.93
-7.84
-8.41
-8.45
-7.96
-7.06
-5.98
-5.04
-4.55
-4.73
-5.64
-7.14
-8.92
-10.62
-11.97
-12.86
-13.31
-13.43
-13.27
-12.83
-12.04
-10.83
-9.18
-7.14
-4.77
-2.25
0.24
2.49
4.29
5.50
6.10
6.18
5.94
5.61
5.36
5.23
5.12
4.90
4.48
3.84
3.09
2.33
1.58
0.77
-0.26
-1.56
-2.98
-4.13
-4.55
-3.91
-2.21
0.13
2.50
4.30
5.23
5.33
4.94
4.43
4.05
3.85
3.74
3.63
3.51
3.46
3.51
3.60
3.49
2.94
1.81
0.20
-1.61
-3.35
-4.84
-6.12
-7.34
-8.61
-9.84
-10.77
-11.07
-10.51
-9.15
-7.26
-5.27
-3.55
-2.31
-1.57
-1.22
-1.13
-1.21
-1.46
-1.88
-2.46
-3.08
-3.63
-3.97
-4.10
-4.12
-4.18
-4.44
-4.92
-5.51
-6.03
-6.37
-6.59
-6.89
-7.59
-8.90
-10.90
-13.46
-16.40
-19.61
-23.03
-26.73
-30.64
-34.55
-38.11
-41.00
-43.10
-44.62
-46.03
-47.78
-50.08
-52.79
-55.40
-57.35
-58.27
-58.23
-57.62
-57.10
-57.19
-58.16
-59.94
-62.29
-65.14
-68.65
-73.16
-78.87
-85.64
-92.84
-99.49
-104.31
-105.98
-103.29
-95.28
-81.48
-62.09
-38.14
-11.45
15.68
41.21
63.78
82.88
98.75
112.10
123.72
134.14
143.45
151.37
157.88
162.87
166.00
166.63
164.14
158.32
149.52
138.59
126.69
115.95
108.08
103.46
100.76
97.65
91.93
82.36
69.01
53.09
38.04
27.17
22.09
21.87
23.98
25.82
25.73
23.19
18.78
16.13
19.39
31.44
52.55
80.75
113.07
146.60
179.11
196.73
189.86
158.12
111.53
62.87
19.86
-15.99
-46.27
-72.88
-96.79
-115.85
-127.53
-130.61
-126.29
-117.46
-107.35
-98.40
-91.79
-87.20
-81.79
-73.08
-60.64
-46.91
-35.61
-29.46
-28.82
-31.95
-35.98
-37.38
-34.08
-26.39
-16.60
-7.80
-2.64
-2.62
-8.20
-18.59
-31.65
-45.05
-56.11
-63.48
-67.02
-67.32
-65.08
-61.18
-57.13
-53.12
-50.09
-49.10
-50.83
-54.95
-59.96
-62.70
-62.22
-58.29
-51.80
-44.55
-38.47
-35.29
-36.16
-41.17
-48.60
-55.69
-57.47
-49.63
-30.51
-2.13
30.02
59.01
78.48
86.05
83.70
76.06
67.39
59.79
53.23
46.86
40.44
34.92
31.97
32.38
35.60
39.66
42.40
42.24
39.19
34.51
30.14
27.97
29.02
33.24
39.36
45.05
47.46
44.04
33.47
16.52
-3.92
-23.79
-39.38
-48.70
-52.18
-51.53
-48.75
-45.20
-41.15
-36.26
-30.40
-24.15
-18.65
-14.94
-13.31
-13.17
-13.41
-13.03
-11.49
-9.05
-6.39
-4.23
-3.01
-2.69
-2.95
-3.33
-3.47
-3.19
-2.56
-1.78
-1.11
-0.82
-1.02
-1.68
-2.58
-3.34
-3.59
-3.14
-2.00
-0.45
1.04
2.04
2.24
1.53
-0.02
-2.19
-4.65
-6.96
-8.75
-9.77
-9.89
-9.15
-7.73
-5.94
-4.20
-2.96
-2.50
-3.32
-5.71
-9.33
-13.16
-15.81
-16.00
-13.05
-7.01
1.57
11.86
22.62
32.39
39.87
44.22
45.34
43.95
39.79
33.95
27.84
22.72
19.49
18.58
19.86
22.66
25.85
28.11
28.52
26.57
22.36
16.54
10.06
3.73
-1.97
-6.91
-11.17
-14.62
-17.19
-18.88
-19.82
-20.27
-20.51
-20.69
-20.79
-20.68
-20.30
-19.86
-19.91
-21.06
-23.59
-27.33
-31.61
-35.53
-38.40
-39.89
-40.24
-40.05
-40.00
-40.54
-41.77
-43.42
-45.11
-46.49
-47.34
-47.65
-47.50
-46.91
-45.75
-43.86
-41.09
-37.53
-33.56
-29.74
-26.62
-24.54
-23.47
-23.11
-23.00
-22.73
-22.02
-20.79
-19.05
-16.89
-14.42
-11.75
-9.00
-6.29
-3.74
-1.41
0.71
2.69
4.64
6.71
8.97
11.44
14.09
16.87
19.78
22.86
26.19
29.81
33.67
37.58
41.28
44.47
46.90
48.38
48.84
48.32
46.91
44.80
42.19
39.32
36.41
33.63
31.05
28.69
26.53
24.57
22.84
21.41
20.31
19.50
18.83
18.08
17.04
15.71
14.27
13.09
12.53
12.67
13.24
13.68
13.38
12.01
9.65
6.68
3.51
0.28
-3.24
-7.50
-12.96
-19.86
-28.12
-37.31
-46.59
-54.72
-60.17
-61.49
-57.76
-48.97
-36.17
-21.10
-5.75
8.27
19.91
28.74
34.72
38.09
39.30
39.06
38.24
37.64
37.75
38.61
39.80
40.68
40.67
39.43
36.91
33.32
29.00
24.27
19.37
14.47
9.68
5.08
0.69
-3.58
-7.93
-12.61
-17.74
-23.16
-28.37
-32.68
-35.46
-36.39
-35.64
-33.68
-31.18
-28.61
-26.20
-23.92
-21.58
-19.09
-16.47
-13.86
-11.28
-8.65
-5.75
-2.42
1.27
5.06
8.61
11.67
14.32
17.03
20.40
24.86
30.40
36.45
42.29
47.20
50.67
52.60
53.26
53.16
52.82
52.69
52.98
54.12
56.15
58.49
60.11
60.05
57.88
53.91
49.01
44.37
41.80
42.25
45.14
48.71
51.01
50.81
47.95
43.11
37.39
33.05
31.37
31.75
32.32
31.22
27.54
21.66
14.53
7.32
2.62
2.14
5.69
11.86
18.86
24.98
28.37
26.54
8.40
-29.28
-77.61
-120.28
-144.32
-146.31
-131.59
-107.92
-81.95
-58.15
-36.85
-16.60
0.67
13.04
19.13
18.97
14.09
6.55
-1.49
-7.07
-8.65
-7.25
-5.21
-4.82
-6.95
-10.84
-15.24
-18.83
-19.90
-17.93
-14.34
-11.39
-11.14
-14.32
-20.01
-26.75
-32.48
-34.58
-31.20
-22.39
-9.85
3.60
14.67
20.30
17.68
6.02
-12.54
-33.66
-52.82
-66.42
-72.71
-71.75
-60.84
-40.93
-16.77
6.30
25.72
40.82
51.28
56.24
54.55
45.51
28.80
5.83
-20.28
-45.36
-66.03
-80.03
-86.41
-85.50
-78.61
-68.12
-56.17
-45.30
-35.15
-25.97
-18.23
-12.16
-7.77
-4.74
-2.70
-0.80
2.35
8.30
17.57
29.67
43.24
56.13
66.17
71.72
72.28
68.57
62.10
54.03
44.29
33.35
21.69
9.86
-1.65
-12.38
-22.02
-30.17
-36.72
-41.50
-44.20
-44.80
-43.53
-40.76
-36.77
-31.48
-24.43
-15.25
-4.03
8.48
20.81
31.43
39.45
45.07
49.42
53.94
59.65
66.71
74.60
82.53
89.99
97.06
104.32
112.42
121.70
132.05
143.04
154.33
165.72
177.06
187.83
196.85
202.42
202.89
197.64
187.63
175.30
163.65
154.97
150.03
147.95
146.98
145.60
143.30
140.84
139.53
140.45
143.58
147.53
149.85
147.82
139.43
123.97
102.23
75.89
46.73
15.84
-16.63
-51.14
-88.08
-127.02
-166.65
-204.99
-240.18
-271.09
-297.77
-321.40
-344.09
-368.54
-397.27
-431.56
-470.07
-508.35
-539.28
-554.94
-549.00
-518.77
-466.17
-397.10
-320.03
-243.87
-176.17
-121.68
-81.57
-53.74
-33.87
-17.25
-0.47
17.53
35.56
51.21
62.20
67.47
66.95
61.27
51.14
37.64
22.23
6.86
-6.43
-16.31
-22.57
-26.54
-30.39
-36.30
-45.41
-57.24
-69.87
-80.92
-88.80
-92.99
-94.20
-93.50
-91.43
-87.31
-79.54
-66.51
-47.59
-23.68
3.62
32.04
58.59
79.94
92.85
95.04
85.73
66.17
39.90
13.07
-8.52
-22.31
-30.29
-37.51
-49.03
-67.12
-89.85
-111.23
-122.17
-115.66
-90.49
-51.64
-6.98
36.73
76.16
111.07
143.40
177.75
217.98
265.29
318.01
373.31
428.11
479.37
523.17
539.93
514.63
448.38
359.54
269.66
191.73
129.09
81.78
44.15
12.90
-12.15
-31.77
-49.53
-71.45
-98.62
-129.08
-157.04
-175.79
-179.79
-165.68
-134.61
-92.41
-47.72
-8.43
20.51
37.98
45.32
45.68
43.48
42.63
45.34
51.72
60.88
71.48
82.54
93.10
102.55
110.92
118.54
125.78
132.82
139.74
146.21
151.61
154.99
155.73
154.05
150.92
147.49
144.18
140.26
133.63
121.62
101.90
73.38
36.61
-6.58
-53.62
-102.14
-150.37
-197.56
-243.77
-289.66
-336.06
-383.48
-431.74
-479.50
-524.04
-561.25
-586.20
-594.15
-581.79
-548.51
-496.76
-431.82
-360.69
-290.60
-227.67
-175.83
-136.43
-108.35
-88.69
-73.63
-59.56
-44.04
-26.24
-6.93
12.25
29.69
44.75
57.76
69.87
82.37
96.08
111.11
126.88
142.47
156.86
169.20
178.92
185.77
189.84
191.49
191.47
190.62
189.82
189.63
190.25
191.47
192.90
194.16
194.91
194.79
193.17
189.08
181.39
169.16
152.16
131.12
107.72
84.13
62.34
43.53
27.79
14.29
1.72
-11.11
-24.84
-39.47
-54.47
-69.10
-82.65
-94.53
-104.15
-110.86
-113.90
-112.72
-107.29
-98.37
-87.51
-76.64
-67.51
-61.15
-57.68
-56.47
-56.64
-57.51
-58.84
-60.67
-63.01
-65.58
-67.72
-68.68
-67.90
-65.24
-60.92
-55.38
-48.97
-41.80
-33.67
-24.22
-13.10
-0.21
14.24
29.65
45.27
60.34
74.33
86.99
98.28
108.23
116.82
123.98
129.66
133.96
137.13
139.46
141.12
142.14
142.31
141.37
139.13
135.55
130.77
125.06
118.73
112.12
105.46
98.92
92.55
86.30
80.03
73.66
67.19
60.66
54.17
47.68
41.02
33.89
25.97
16.97
6.81
-4.34
-16.10
-27.98
-39.58
-50.72
-61.49
-72.10
-82.74
-93.27
-103.05
-110.96
-115.69
-116.13
-111.85
-103.24
-91.42
-78.00
-64.51
-52.02
-41.05
-31.69
-23.76
-17.03
-11.00
-5.19
0.96
7.91
15.97
25.05
34.62
43.86
51.99
58.91
64.75
69.69
73.78
77.01
79.21
80.14
79.54
77.25
73.84
69.70
64.97
59.66
54.04
48.52
43.51
39.43
36.45
35.40
36.40
38.78
41.52
43.95
45.94
47.87
50.69
51.51
49.11
43.10
33.32
18.79
-1.62
-28.28
-59.45
-90.46
-117.39
-133.55
-133.24
-114.21
-78.54
-31.97
16.71
57.94
84.35
92.71
83.47
60.30
28.77
-5.12
-31.13
-40.15
-29.12
-2.18
32.96
70.11
105.72
138.08
166.52
188.89
205.61
216.77
222.93
225.33
225.51
224.17
220.57
212.52
201.69
188.29
172.12
153.50
133.38
112.96
93.13
74.28
56.55
40.25
25.12
10.62
-3.66
-17.99
-32.66
-47.97
-64.06
-80.70
-97.13
-112.97
-128.19
-143.24
-159.09
-177.01
-198.06
-222.49
-249.70
-278.40
-307.40
-335.95
-363.97
-392.13
-421.61
-453.61
-489.38
-530.20
-576.68
-627.44
-677.75
-719.96
-745.51
-748.01
-725.06
-679.35
-617.99
-550.00
-483.05
-421.00
-364.43
-312.46
-264.34
-218.88
-174.54
-129.98
-84.63
-38.57
8.19
55.02
100.49
142.90
182.57
221.67
262.69
306.79
354.09
404.81
458.58
514.21
559.90
580.52
568.63
530.67
480.04
428.01
380.64
339.01
301.17
265.16
230.84
199.67
172.92
154.09
140.84
131.37
123.67
115.26
104.98
93.59
83.30
76.32
73.56
76.65
87.45
107.21
129.19
150.17
169.06
186.39
203.09
205.56
187.43
152.28
109.85
68.44
32.59
3.35
-19.66
-37.14
-49.97
-57.23
-58.36
-54.34
-47.57
-40.03
-33.61
-30.49
-32.91
-42.60
-57.96
-75.69
-92.10
-104.52
-111.57
-112.92
-109.56
-103.21
-95.60
-86.63
-76.01
-64.14
-52.36
-42.08
-34.19
-28.89
-25.50
-22.82
-18.73
-11.88
-2.42
8.09
16.23
19.81
18.21
12.78
6.21
2.08
2.96
9.46
20.03
31.64
41.21
46.34
47.27
44.43
39.54
34.51
30.56
27.92
25.94
23.63
19.85
13.51
2.70
-12.54
-31.04
-50.33
-66.80
-76.41
-76.10
-65.31
-46.49
-24.19
-2.84
14.80
28.95
40.77
51.55
61.64
70.09
75.32
76.20
73.07
67.34
60.55
53.31
45.11
34.68
21.09
4.40
-13.67
-29.99
-41.78
-47.91
-49.39
-48.79
-49.14
-52.72
-60.32
-71.17
-83.61
-96.07
-107.68
-118.43
-128.68
-138.69
-148.13
-155.96
-160.69
-160.80
-155.40
-144.48
-128.92
-110.21
-89.99
-69.73
-50.52
-32.97
-17.18
-2.96
10.13
22.52
34.62
46.73
59.05
71.75
84.87
98.24
111.35
123.38
133.29
140.12
143.24
142.48
138.10
130.66
120.81
109.16
96.35
83.06
70.02
57.90
47.16
37.81
29.52
21.71
13.96
6.26
-0.97
-7.04
-11.36
-13.77
-14.53
-14.28
-13.76
-13.57
-13.93
-14.60
-14.94
-14.19
-11.93
-8.48
-5.11
-3.68
-5.94
-12.70
-23.30
-35.63
-46.84
-54.20
-56.02
-52.05
-43.42
-32.22
-20.79
-11.11
-4.30
-0.47
1.07
1.40
1.49
1.90
2.81
4.14
5.76
7.59
9.46
11.01
11.78
11.35
9.62
6.89
3.83
1.16
-0.72
-1.89
-2.85
-4.29
-6.67
-10.08
-14.16
-18.28
-21.88
-24.60
-26.41
-27.55
-28.34
-29.00
-29.57
-29.93
-29.88
-29.28
-28.06
-26.16
-23.40
-19.35
-13.49
-5.39
4.97
16.91
29.20
40.25
48.60
53.33
54.24
51.93
47.70
43.25
40.36
40.37
43.76
49.89
57.18
63.66
67.67
68.43
66.14
61.69
56.10
50.10
44.06
38.08
32.28
26.85
21.92
17.37
12.73
7.35
0.74
-7.13
-15.80
-24.43
-32.16
-38.38
-42.83
-45.53
-46.63
-46.32
-44.90
-42.80
-40.55
-38.55
-36.82
-34.79
-31.54
-26.17
-18.33
-8.50
2.17
12.27
20.68
26.94
31.21
33.96
35.63
36.46
36.51
35.90
34.87
33.78
32.80
31.76
30.10
27.20
22.67
16.64
9.75
2.87
-3.23
-8.12
-11.74
-14.36
-16.40
-18.38
-20.84
-24.26
-28.96
-34.92
-41.74
-48.71
-55.03
-60.09
-63.65
-65.87
-67.16
-68.09
-68.96
-69.51
-68.56
-64.13
-54.01
-36.74
-12.63
15.86
44.61
69.20
86.40
95.07
96.15
91.71
83.86
74.10
63.35
52.38
41.92
32.36
23.22
13.01
-0.33
-18.27
-40.82
-66.12
-91.09
-112.54
-128.21
-137.27
-140.07
-137.63
-131.13
-121.66
-110.23
-97.72
-84.84
-71.95
-59.11
-46.16
-32.99
-19.63
-6.40
6.14
17.26
26.13
32.02
34.52
33.74
30.50
26.20
22.49
20.81
21.89
25.46
30.45
35.36
38.85
40.23
39.59
37.64
35.19
32.91
30.97
29.23
27.36
25.01
21.93
17.88
12.69
6.41
-0.41
-6.62
-10.64
-11.03
-7.12
0.57
10.37
20.06
27.63
31.97
33.09
31.86
29.43
26.77
24.37
22.51
21.46
21.69
23.77
27.99
34.12
41.28
48.24
53.80
57.22
58.36
57.59
55.47
52.49
48.89
44.77
40.17
35.21
30.17
25.41
21.38
18.43
16.77
16.33
16.80
17.66
18.38
18.57
18.04
16.85
15.22
13.52
12.26
11.92
12.87
15.07
17.97
20.51
21.43
19.80
15.39
8.96
2.02
-3.71
-6.85
-6.80
-3.88
0.98
6.56
11.73
15.68
17.98
18.58
17.69
15.67
12.97
10.00
7.07
4.37
1.96
-0.24
-2.39
-4.64
-7.13
-9.80
-12.45
-14.68
-16.04
-16.19
-15.04
-12.79
-9.95
-7.10
-4.72
-3.06
-2.13
-1.71
-1.58
-1.53
-1.41
-1.12
-0.53
0.53
2.14
4.26
6.60
8.65
9.84
9.66
7.89
4.62
0.29
-4.48
-9.08
-13.04
-16.15
-18.47
-20.26
-21.85
-23.46
-25.15
-26.80
-28.21
-29.26
-29.94
-30.31
-30.42
-30.18
-29.38
-27.87
-25.60
-22.81
-19.89
-17.31
-15.37
-14.11
-13.33
-12.72
-12.01
-11.12
-10.12
-9.20
-8.55
-8.22
-8.16
-8.20
-8.18
-8.01
-7.72
-7.44
-7.29
-7.32
-7.39
-7.27
-6.74
-5.70
-4.30
-2.81
-1.54
-0.64
-0.05
0.43
0.98
1.61
2.11
2.16
1.55
0.29
-1.37
-3.07
-4.48
-5.43
-5.93
-6.04
-5.82
-5.32
-4.60
-3.80
-3.09
-2.64
-2.50
-2.60
-2.77
-2.88
-2.86
-2.77
-2.70
-2.67
-2.60
-2.28
-1.56
-0.39
1.07
2.51
3.59
4.06
3.87
3.16
2.19
1.16
0.17
-0.77
-1.73
-2.75
-3.78
-4.79
-5.73
-6.64
-7.58
-8.58
-9.57
-10.42
-10.99
-11.18
-11.03
-10.64
-10.15
-9.60
-9.01
-8.40
-7.85
-7.47
-7.35
-7.43
-7.47
-7.17
-6.28
-4.81
-3.00
-1.17
0.40
1.62
2.61
3.54
4.53
5.61
6.67
7.63
8.46
9.20
9.94
10.75
11.69
12.77
13.99
15.27
16.54
17.71
18.70
19.47
20.04
20.46
20.79
21.07
21.35
21.77
22.57
24.03
26.41
29.73
33.72
37.83
41.46
44.13
45.66
46.06
45.31
43.20
39.36
33.49
25.69
16.63
7.37
-1.00
-7.76
-12.69
-15.86
-17.41
-17.38
-15.74
-12.67
-8.68
-4.54
-1.03
1.49
3.14
4.44
5.97
8.07
10.82
14.11
17.91
22.39
27.77
34.17
41.26
48.23
53.87
56.95
56.57
52.48
45.08
35.32
24.37
13.42
3.38
-5.27
-12.60
-19.22
-26.13
-34.33
-44.35
-55.90
-67.76
-78.09
-85.06
-87.52
-85.36
-79.59
-71.95
-64.33
-58.29
-54.74
-53.99
-55.78
-59.53
-64.40
-69.40
-73.42
-75.41
-74.54
-70.41
-63.16
-53.49
-42.46
-31.27
-20.98
-12.38
-5.78
-1.16
1.78
3.59
4.87
6.26
8.30
11.46
15.97
21.83
28.73
36.06
42.96
48.55
52.17
53.49
52.68
50.23
46.77
42.89
39.03
35.55
32.73
30.86
30.13
30.47
31.54
32.77
33.56
33.50
32.52
30.83
28.86
27.03
25.70
25.13
25.31
25.97
26.50
26.12
24.11
20.18
14.74
8.81
3.75
0.73
0.39
2.73
7.26
13.38
20.62
28.70
37.37
46.29
54.97
62.90
69.81
75.72
80.85
85.36
89.23
92.22
94.20
95.45
96.73
99.09
103.48
110.27
119.20
129.58
140.68
152.11
163.92
176.37
189.60
203.29
216.56
228.04
236.18
239.58
237.27
228.95
214.92
195.97
173.08
147.16
118.96
89.13
58.42
27.79
-1.60
-28.78
-53.38
-76.02
-98.20
-121.90
-148.79
-179.53
-213.54
-249.39
-285.38
-320.46
-354.58
-388.65
-424.09
-462.63
-506.01
-555.63
-611.61
-671.52
-729.68
-777.63
-806.33
-809.21
-784.76
-737.09
-674.23
-605.02
-536.17
-471.03
-410.10
-352.73
-298.46
-247.47
-199.99
-155.66
-113.36
-71.73
-29.98
11.63
52.03
89.76
123.95
154.89
184.18
214.26
247.39
284.30
323.32
360.34
389.98
407.52
410.68
400.50
380.69
356.10
330.84
307.21
285.67
265.68
246.69
228.67
212.02
197.05
183.63
171.14
158.88
146.43
133.81
121.50
110.03
99.77
90.68
82.44
74.61
66.91
59.32
52.06
45.56
40.15
36.06
33.20
31.27
29.84
28.55
27.24
25.98
25.02
24.62
24.91
25.80
27.07
28.47
29.76
30.86
31.74
32.39
32.76
32.75
32.20
30.96
28.89
25.95
22.23
17.95
13.42
8.96
4.84
1.24
-1.81
-4.36
-6.60
-8.71
-10.81
-12.85
-14.63
-15.92
-16.54
-16.59
-16.33
-16.10
-16.00
-15.88
-15.45
-14.46
-12.98
-11.43
-10.45
-10.61
-12.00
-14.20
-16.41
-17.81
-17.93
-16.80
-14.95
-13.21
-12.38
-12.91
-14.67
-17.06
-19.25
-20.53
-20.66
-20.17
-20.28
-22.51
-27.72
-35.54
-44.35
-51.91
-56.20
-56.32
-53.16
-49.15
-47.35
-49.66
-55.82
-63.61
-69.93
-72.06
-68.64
-60.36
-49.79
-40.87
-37.29
-41.24
-52.95
-70.19
-87.82
-98.25
-94.10
-71.54
-33.26
11.97
52.02
75.22
74.29
48.70
7.56
-33.52
-57.66
-56.93
-35.36
-2.68
32.38
64.76
92.36
114.61
130.73
139.42
139.38
130.96
116.82
100.86
87.10
78.30
75.41
77.21
80.72
82.28
79.50
72.76
63.52
54.23
47.00
42.89
41.46
41.06
39.54
35.61
29.46
22.39
16.24
12.38
11.29
12.42
14.53
16.26
16.92
16.61
15.81
15.21
15.17
15.51
15.55
14.68
12.55
9.49
6.24
3.40
1.52
0.77
0.78
0.90
0.53
-0.74
-2.63
-4.67
-6.85
-9.20
-11.87
-15.23
-19.77
-26.08
-35.47
-45.95
-56.01
-65.43
-73.63
-78.30
-76.32
-65.92
-48.49
-29.06
-15.19
-9.19
-11.14
-18.71
-28.26
-36.74
-42.82
-42.72
-36.84
-26.81
-14.11
0.20
15.37
30.21
42.84
51.40
55.86
57.04
57.36
59.70
65.60
74.94
86.26
97.42
106.78
113.01
115.82
116.58
117.50
120.29
125.84
134.04
143.91
153.91
162.35
167.54
168.51
165.13
157.96
148.20
137.54
127.96
121.25
118.67
120.25
124.88
130.38
134.04
133.52
127.70
117.13
103.87
90.95
81.36
77.28
79.57
87.70
100.04
114.29
128.12
139.44
146.74
149.10
146.08
137.54
123.56
104.38
80.53
52.86
22.60
-8.79
-39.86
-69.51
-97.30
-123.57
-149.27
-175.67
-203.79
-234.03
-265.99
-298.74
-331.04
-362.06
-391.68
-420.50
-449.77
-481.21
-516.76
-558.05
-605.45
-656.94
-707.52
-749.75
-775.64
-779.34
-759.18
-718.22
-662.84
-600.25
-536.17
-473.85
-414.53
-358.67
-306.90
-260.03
-218.37
-180.97
-145.68
-109.96
-72.09
-31.98
8.86
47.96
83.31
114.18
141.49
167.30
194.10
223.92
257.77
295.17
333.96
370.34
399.48
416.87
419.96
409.45
389.26
365.23
342.77
324.85
311.34
299.87
287.64
273.01
255.98
237.58
218.78
199.76
180.16
159.83
139.56
121.11
106.64
97.72
94.62
96.25
100.51
105.12
108.31
109.12
107.48
103.87
99.02
93.53
87.75
81.65
74.93
67.07
57.34
45.03
29.63
11.18
-9.60
-31.33
-52.31
-71.02
-86.49
-98.44
-107.10
-112.88
-116.10
-117.09
-116.35
-114.80
-113.66
-114.02
-116.27
-119.59
-122.19
-121.84
-116.69
-106.01
-90.21
-70.59
-48.63
-25.55
-2.12
20.97
42.86
62.32
78.05
89.24
95.89
98.89
99.66
99.65
99.94
101.15
103.62
107.53
112.95
119.65
126.85
133.28
137.46
138.33
135.70
130.32
123.54
116.59
110.04
103.69
96.92
89.26
80.80
72.08
63.72
55.86
47.96
39.15
28.70
16.50
3.14
-10.47
-23.58
-35.88
-47.49
-58.61
-69.14
-78.48
-85.68
-89.80
-90.27
-87.13
-81.05
-73.04
-64.19
-55.37
-47.07
-39.41
-32.29
-25.49
-18.86
-12.32
-5.80
0.70
7.19
13.61
19.84
25.64
30.76
34.86
37.62
38.79
38.20
35.96
32.46
28.40
24.54
21.53
19.66
18.68
17.98
16.80
14.65
11.39
7.42
3.34
-0.33
-3.48
-6.55
-10.28
-15.33
-21.75
-28.75
-34.88
-38.58
-38.95
-36.35
-32.43
-29.63
-30.31
-35.73
-45.60
-58.02
-70.12
-78.99
-82.50
-79.90
-71.94
-60.55
-48.17
-36.89
-27.55
-19.16
-8.86
7.43
33.54
71.27
118.81
170.36
217.25
250.47
263.67
255.39
229.38
192.86
153.66
117.33
85.72
57.59
30.31
2.12
-26.90
-55.08
-80.55
-102.52
-121.52
-138.40
-152.65
-161.34
-159.51
-142.26
-107.63
-58.55
-2.95
48.50
85.91
103.36
100.29
80.70
50.77
16.26
-18.78
-52.05
-82.10
-107.44
-126.44
-138.04
-142.45
-141.43
-137.70
-133.81
-131.22
-129.87
-128.60
-125.96
-121.11
-114.19
-106.11
-97.89
-89.73
-80.58
-68.21
-50.05
-24.68
7.21
42.48
76.50
104.81
124.82
136.57
142.18
144.51
145.65
146.22
145.56
142.72
137.33
129.95
121.76
113.82
106.56
99.69
92.80
85.87
79.70
75.67
75.13
78.59
85.31
93.46
100.79
105.58
107.20
106.26
104.11
102.09
101.00
100.82
100.96
100.61
99.19
96.48
92.66
88.11
83.29
78.56
74.01
69.33
63.78
56.33
46.00
32.33
15.67
-2.95
-22.00
-39.98
-55.78
-68.78
-78.88
-86.41
-92.10
-96.96
-102.12
-108.35
-115.75
-123.51
-130.12
-134.04
-134.37
-131.37
-126.29
-120.84
-116.39
-113.58
-112.46
-112.90
-114.96
-118.79
-124.15
-129.92
-134.06
-134.37
-129.35
-119.11
-105.32
-90.51
-77.06
-66.65
-60.44
-59.48
-64.78
-76.60
-93.59
-112.39
-128.52
-138.09
-139.67
-134.88
-127.35
-120.51
-115.66
-111.39
-104.69
-93.09
-76.16
-55.81
-35.16
-16.86
-2.02
9.81
19.72
28.46
35.96
41.41
44.09
44.08
42.55
41.28
42.01
45.76
52.62
61.97
72.89
84.51
96.13
107.13
116.86
124.72
130.26
133.43
134.56
134.27
133.23
131.93
130.55
129.06
127.31
125.19
122.63
119.50
115.62
110.67
104.25
95.97
85.65
73.38
59.55
44.64
29.09
13.11
-3.19
-19.76
-36.29
-52.28
-67.06
-80.25
-92.16
-103.73
-116.05
-129.55
-143.52
-156.15
-165.17
-168.82
-166.66
-159.73
-149.82
-138.29
-125.31
-109.94
-91.04
-68.24
-42.24
-14.86
11.64
35.51
56.01
73.30
87.79
99.57
108.33
114.54
118.91
121.94
123.72
124.14
123.07
120.43
116.12
110.12
104.20
99.90
97.32
95.18
92.01
87.27
81.25
74.42
66.96
61.45
60.05
63.08
68.93
75.71
82.54
89.24
95.65
101.45
110.12
125.24
147.98
176.46
207.47
238.30
267.04
292.50
290.35
246.95
167.48
73.69
-12.50
-80.74
-131.18
-168.32
-196.44
-216.14
-226.56
-226.13
-215.81
-199.96
-183.72
-170.49
-161.21
-155.06
-151.33
-146.37
-137.07
-123.00
-106.63
-91.36
-79.50
-71.85
-68.08
-67.43
-67.40
-65.63
-60.86
-53.61
-45.22
-37.01
-29.94
-24.58
-21.35
-19.61
-18.39
-16.44
-13.04
-7.82
-0.67
8.36
18.83
29.58
38.96
42.36
36.40
21.60
3.11
-12.81
-22.16
-24.05
-19.98
-12.57
-4.48
4.29
14.31
25.69
37.50
48.19
56.38
61.46
63.87
63.66
62.23
60.70
59.30
56.96
52.29
44.47
33.71
21.12
8.36
-2.55
-10.30
-14.48
-16.02
-16.11
-15.57
-14.91
-14.59
-14.89
-15.80
-17.14
-18.56
-20.58
-23.41
-26.73
-30.06
-33.31
-36.48
-39.71
-42.90
-45.66
-48.77
-52.43
-55.77
-57.61
-57.62
-56.05
-54.04
-52.67
-52.52
-55.15
-60.81
-67.52
-72.26
-72.70
-67.35
-56.72
-42.42
-16.40
20.42
58.61
87.91
104.34
106.85
100.83
89.87
75.75
58.79
40.61
22.18
5.42
-7.69
-16.31
-20.48
-21.50
-20.72
-19.08
-18.32
-19.45
-21.85
-24.28
-25.99
-26.66
-26.81
-26.82
-26.69
-26.93
-27.82
-28.87
-29.41
-29.21
-28.23
-26.79
-25.03
-22.95
-21.01
-19.95
-20.23
-22.06
-25.34
-29.44
-33.44
-36.21
-36.92
-35.50
-32.71
-29.58
-27.06
-25.79
-25.76
-26.36
-26.60
-25.44
-22.20
-16.96
-10.70
-5.30
-3.28
-6.82
-16.67
-31.36
-47.29
-59.62
-63.86
-57.59
-41.48
-19.60
2.42
19.42
28.51
29.51
24.39
16.06
7.18
-0.62
-7.20
-12.66
-16.51
-17.61
-14.97
-8.59
0.30
9.61
17.07
20.34
18.50
12.23
3.29
-6.64
-16.49
-25.56
-33.00
-33.99
-25.39
-8.25
12.17
30.30
42.85
48.84
48.73
43.66
35.86
24.53
9.32
-8.52
-25.97
-39.35
-45.75
-44.11
-35.49
-22.65
-10.20
-1.94
0.58
-1.48
-5.36
-8.21
-8.11
-4.47
2.15
10.05
17.83
24.71
30.51
35.24
38.88
41.57
44.01
47.02
50.78
55.08
59.26
62.50
64.00
63.38
60.92
58.10
56.21
55.45
55.03
53.97
51.76
48.78
46.05
44.70
46.39
51.36
58.14
64.55
69.16
72.08
74.62
77.99
82.61
89.17
97.00
104.44
109.71
112.09
111.96
110.28
107.37
94.71
69.13
34.26
-2.16
-34.30
-60.77
-83.01
-102.76
-121.26
-138.41
-151.65
-158.76
-159.15
-154.02
-145.36
-136.67
-128.42
-121.03
-114.83
-108.98
-103.03
-97.30
-92.59
-89.32
-87.15
-85.05
-82.49
-79.36
-75.40
-70.92
-66.63
-63.63
-62.48
-62.85
-63.58
-63.62
-62.32
-59.30
-55.03
-50.69
-47.71
-46.99
-48.51
-51.27
-53.94
-55.12
-53.60
-48.69
-40.33
-28.95
-15.27
-0.25
15.06
29.47
41.96
51.95
59.38
64.73
68.88
72.81
77.31
82.75
88.79
94.51
98.63
99.82
97.20
90.68
81.13
70.23
60.01
52.21
47.80
46.80
48.38
51.24
54.12
56.13
56.92
56.62
55.56
54.01
52.05
49.56
46.34
42.30
37.54
32.33
27.01
21.83
16.98
12.55
8.68
5.59
3.51
2.57
2.72
3.75
5.37
7.41
9.81
12.58
15.68
18.90
21.78
23.81
24.53
23.76
21.67
18.66
15.19
11.49
7.50
2.88
-2.71
-9.41
-16.99
-24.85
-32.27
-38.60
-43.43
-46.72
-48.71
-49.80
-50.46
-51.00
-51.52
-51.83
-51.56
-50.32
-47.91
-44.39
-40.10
-35.45
-30.76
-26.22
-21.83
-17.56
-13.42
-9.45
-5.71
-2.26
0.88
3.66
5.99
7.74
8.83
9.28
9.21
8.85
8.49
8.53
9.42
11.63
15.53
21.15
28.07
35.45
42.25
47.60
51.05
52.75
53.28
53.35
53.59
54.42
56.10
58.85
62.81
67.91
73.71
79.33
83.73
86.09
86.22
84.62
82.16
79.66
77.41
75.14
72.41
69.06
65.38
61.95
59.03
56.17
52.22
45.92
36.75
25.53
14.40
6.13
3.14
6.69
16.46
30.74
46.86
61.77
72.47
76.54
72.50
60.22
41.05
17.58
-6.94
-29.41
-47.62
-60.63
-68.76
-73.17
-75.36
-76.62
-77.75
-78.97
-80.03
-80.45
-79.77
-77.76
-74.44
-70.09
-65.09
-59.81
-54.50
-49.37
-44.56
-40.29
-36.78
-34.30
-33.02
-33.02
-34.22
-36.39
-39.19
-42.23
-45.11
-47.58
-49.48
-50.82
-51.68
-52.15
-52.25
-52.02
-51.47
-50.65
-49.58
-48.23
-46.44
-44.01
-40.73
-36.55
-31.56
-26.05
-20.35
-14.85
-9.92
-5.93
-3.27
-2.27
-3.05
-5.34
-8.44
-11.29
-12.72
-11.77
-7.84
-0.88
8.68
19.94
31.71
42.61
51.37
57.08
59.40
58.71
55.95
52.35
49.08
46.93
46.09
46.17
46.31
45.47
42.91
38.55
33.22
28.42
25.76
26.33
30.18
36.33
43.16
49.12
53.28
55.48
56.16
55.95
55.30
54.37
53.03
51.08
48.40
45.01
41.06
36.73
32.09
27.05
21.42
15.10
8.15
1.00
-5.83
-11.82
-16.77
-20.83
-24.30
-27.33
-29.70
-30.95
-30.64
-28.73
-25.71
-22.45
-19.82
-18.39
-18.37
-19.67
-22.14
-25.56
-29.59
-33.66
-36.98
-38.82
-38.80
-37.03
-34.08
-30.72
-27.56
-24.89
-22.67
-20.76
-19.09
-17.76
-16.93
-16.76
-17.22
-18.11
-19.12
-19.94
-20.33
-20.23
-19.66
-18.73
-17.50
-15.98
-14.08
-11.67
-8.63
-4.91
-0.60
3.97
8.25
11.54
13.26
13.12
11.23
8.12
4.53
1.14
-1.65
-3.75
-5.37
-6.87
-8.53
-10.52
-12.80
-15.18
-17.35
-19.03
-19.98
-20.13
-19.56
-18.53
-17.40
-16.54
-16.24
-16.67
-17.77
-19.30
-20.85
-21.95
-22.22
-21.48
-19.83
-17.55
-15.01
-12.50
-10.19
-8.12
-6.32
-4.79
-3.63
-2.91
-2.67
-2.86
-3.35
-3.99
-4.60
-5.11
-5.53
-5.94
-6.38
-6.87
-7.30
-7.48
-7.25
-6.58
-5.66
-4.87
-4.62
-5.12
-6.26
-7.68
-8.90
-9.56
-9.53
-8.96
-8.16
-7.51
-7.31
-7.79
-9.06
-11.05
-13.49
-15.93
-17.78
-18.53
-17.91
-16.00
-13.13
-9.76
-6.26
-2.82
0.56
3.89
7.09
9.89
11.95
13.02
13.11
12.45
11.40
10.26
9.09
7.78
6.14
4.13
1.93
-0.14
-1.76
-2.75
-3.19
-3.28
-3.30
-3.43
-3.77
-4.35
-5.17
-6.25
-7.54
-8.98
-10.36
-11.46
-12.05
-11.99
-11.29
-10.16
-8.88
-7.75
-6.95
-6.50
-6.25
-6.03
-5.67
-5.15
-4.53
-3.96
-3.53
-3.25
-2.99
-2.58
-1.81
-0.57
1.11
3.04
4.84
6.15
6.63
6.22
5.09
3.70
2.66
2.58
3.89
6.73
10.73
15.04
18.42
19.48
17.16
11.07
1.78
-9.34
-20.39
-29.54
-35.39
-37.27
-35.14
-29.44
-20.85
-10.24
1.34
12.67
22.41
29.38
32.89
32.97
30.39
26.40
22.31
19.06
17.04
16.08
15.71
15.44
14.94
14.04
12.69
10.84
8.49
5.76
2.95
0.50
-1.08
-1.39
-0.19
2.57
6.79
12.35
19.08
26.79
35.22
43.99
52.66
60.78
68.01
74.19
79.45
84.19
88.97
94.40
100.84
108.32
116.35
124.17
131.02
136.55
141.08
145.56
151.26
159.15
169.33
180.78
191.66
199.97
204.36
204.84
202.75
200.24
199.36
201.10
204.95
209.11
211.27
209.55
203.11
192.15
177.35
159.21
137.61
111.95
81.54
46.01
5.38
-39.55
-86.81
-132.61
-170.77
-193.46
-193.16
-165.75
-112.84
-42.10
34.89
106.32
163.63
203.11
225.16
232.30
227.21
212.03
188.85
160.54
130.96
104.05
82.49
66.55
54.01
41.17
24.48
2.04
-25.64
-55.95
-85.39
-111.03
-132.12
-150.26
-168.83
-191.45
-220.25
-254.81
-292.31
-328.74
-360.72
-386.95
-408.72
-429.40
-453.05
-483.26
-522.18
-569.60
-622.42
-674.47
-716.99
-740.38
-737.36
-706.40
-653.66
-591.77
-535.53
-496.21
-477.34
-474.06
-476.38
-474.33
-462.24
-439.98
-411.15
-379.92
-348.55
-317.03
-284.51
-251.02
-218.37
-189.45
-166.62
-150.22
-138.37
-127.80
-115.10
-98.07
-76.54
-52.01
-26.79
-2.94
18.60
38.23
57.35
77.68
100.40
125.76
153.07
181.20
209.12
236.14
261.85
285.68
306.73
323.92
336.58
345.28
352.15
360.62
374.22
394.85
421.58
450.41
475.37
490.44
491.53
477.44
449.78
411.97
368.00
321.72
276.67
236.26
203.78
181.88
171.69
172.12
179.90
190.48
199.41
203.49
201.16
192.26
177.41
157.55
133.95
108.31
82.84
59.83
41.00
27.02
17.50
11.53
8.40
7.91
10.23
15.46
23.27
32.97
43.78
54.94
65.40
73.37
76.43
72.19
59.52
39.52
15.57
-7.90
-27.20
-40.90
-50.13
-57.63
-65.95
-76.05
-86.94
-96.37
-102.16
-103.34
-100.56
-95.77
-91.47
-89.86
-92.20
-98.44
-107.20
-116.07
-122.13
-122.66
-115.99
-102.00
-82.22
-59.44
-36.90
-17.42
-2.77
6.55
11.26
12.88
13.25
14.04
16.32
20.40
25.77
31.39
35.91
38.04
36.95
32.49
25.34
16.87
8.82
2.75
-0.32
-0.17
2.66
7.10
11.94
16.24
19.54
21.92
23.79
25.60
27.49
29.30
30.64
31.13
30.68
29.45
27.68
25.44
22.58
18.89
14.36
9.35
4.49
0.44
-2.47
-4.33
-5.62
-7.03
-9.35
-13.39
-19.97
-29.72
-42.75
-58.19
-74.00
-87.19
-94.64
-94.26
-85.87
-71.58
-55.17
-40.91
-32.23
-30.67
-35.52
-44.30
-53.60
-60.05
-61.25
-56.17
-45.20
-29.89
-12.36
5.33
21.70
36.19
49.03
61.04
73.17
86.22
100.63
116.38
133.03
149.77
165.63
179.62
190.87
198.68
202.69
202.88
199.65
193.94
187.11
180.66
175.81
173.03
171.80
170.81
168.50
163.87
157.00
149.05
141.66
136.07
132.36
129.36
125.12
117.76
106.03
89.63
68.96
44.87
18.45
-8.96
-36.00
-61.68
-86.05
-110.75
-138.83
-173.60
-216.68
-266.32
-317.10
-361.32
-391.81
-404.55
-400.20
-383.42
-360.68
-337.48
-316.62
-297.93
-279.57
-259.53
-236.66
-210.45
-180.29
-144.86
-102.43
-52.12
4.66
63.67
118.67
163.37
193.72
209.34
213.25
210.14
204.06
196.58
186.42
170.52
145.70
110.29
64.60
10.60
-49.00
-111.21
-172.75
-229.60
-276.82
-309.16
-322.34
-314.43
-286.64
-242.94
-188.51
-128.10
-64.94
-1.07
61.53
119.93
170.12
208.05
231.22
240.00
237.53
228.48
216.99
205.02
191.89
175.11
152.02
121.53
84.92
45.37
6.57
-28.99
-61.13
-91.83
-123.84
-158.66
-194.62
-226.65
-247.71
-251.46
-234.95
-200.07
-152.85
-101.24
-52.21
-9.64
26.06
56.61
83.78
107.82
127.00
138.62
140.36
131.28
111.75
82.80
45.54
1.18
-48.31
-99.66
-148.43
-190.14
-221.72
-242.42
-253.63
-257.74
-256.71
-251.31
-241.20
-225.68
-204.42
-177.68
-146.16
-110.64
-71.72
-29.83
14.42
60.01
105.31
148.05
185.66
215.88
237.34
250.00
255.09
254.63
250.66
244.65
237.28
228.64
218.79
207.99
196.79
185.77
175.11
164.45
153.04
140.21
125.81
110.48
95.44
81.96
70.81
61.89
54.50
47.70
40.97
34.40
28.58
24.20
21.56
20.48
20.35
20.53
20.55
20.27
19.77
19.14
18.46
17.68
16.75
15.62
14.32
12.91
11.44
9.94
8.43
6.93
5.48
4.15
3.04
2.28
1.92
1.92
2.10
2.18
1.90
1.08
-0.23
-1.82
-3.30
-4.27
-4.44
-3.67
-2.09
0.04
2.28
4.29
5.78
6.69
7.09
7.16
7.03
6.72
6.17
5.21
3.72
1.64
-0.93
-3.78
-6.63
-9.16
-11.17
-12.54
-13.36
-13.81
-14.14
-14.59
-15.34
-16.43
-17.73
-19.01
-19.98
-20.41
-20.22
-19.49
-18.45
-17.30
-16.15
-14.92
-13.41
-11.43
-8.90
-6.00
-3.03
-0.37
1.73
3.20
4.16
4.76
5.14
5.31
5.21
4.81
4.11
3.22
2.25
1.27
0.26
-0.86
-2.12
-3.50
-4.87
-6.09
-7.02
-7.62
-7.93
-8.06
-8.15
-8.28
-8.53
-8.85
-9.17
-9.35
-9.30
-8.97
-8.42
-7.80
-7.28
-6.98
-6.90
-6.93
-6.95
-6.85
-6.68
-6.59
-6.75
-7.23
-7.95
-8.70
-9.26
-9.53
-9.56
-9.51
-9.52
-9.65
-9.84
-9.96
-9.95
-9.74
-9.38
-8.87
-8.22
-7.42
-6.43
-5.23
-3.83
-2.32
-0.82
0.52
1.54
2.14
2.32
2.20
1.96
1.81
1.87
2.17
2.60
2.97
3.11
2.90
2.38
1.68
1.02
0.53
0.28
0.19
0.11
-0.13
-0.63
-1.36
-2.22
-3.06
-3.76
-4.23
-4.47
-4.52
-4.39
-4.09
-3.56
-2.78
-1.69
-0.30
1.37
3.19
4.99
6.51
7.54
7.95
7.80
7.31
6.80
6.55
6.76
7.40
8.35
9.40
10.40
11.25
11.95
12.49
12.86
13.05
13.04
12.85
12.45
11.86
11.00
9.82
8.26
6.30
4.07
1.75
-0.46
-2.43
-4.08
-5.46
-6.67
-7.78
-8.83
-9.78
-10.61
-11.30
-11.87
-12.33
-12.72
-13.01
-13.20
-13.32
-13.44
-13.66
-14.03
-14.53
-15.04
-15.41
-15.60
-15.65
-15.76
-16.12
-16.82
-17.79
-18.79
-19.54
-19.83
-19.58
-18.80
-17.55
-15.85
-13.71
-11.19
-8.43
-5.62
-2.97
-0.56
1.67
3.83
5.99
8.05
9.79
10.99
11.55
11.63
11.57
11.74
12.37
13.44
14.71
15.86
16.71
17.21
17.53
17.90
18.49
19.29
20.11
20.70
20.85
20.59
20.10
19.71
19.65
20.01
20.67
21.38
21.89
21.97
21.41
20.03
17.62
14.13
9.73
4.88
0.21
-3.64
-6.33
-7.84
-8.52
-8.78
-8.93
-8.98
-8.71
-7.86
-6.30
-4.20
-1.95
-0.04
1.18
1.61
1.46
1.11
0.93
1.18
1.85
2.72
3.42
3.61
3.09
1.84
0.03
-2.04
-4.08
-5.90
-7.42
-8.71
-9.89
-11.12
-12.49
-14.02
-15.62
-17.12
-18.33
-19.12
-19.44
-19.37
-19.02
-18.50
-17.84
-16.97
-15.76
-14.07
-11.79
-8.93
-5.60
-2.11
1.12
3.58
4.87
4.80
3.51
1.37
-1.14
-3.62
-5.87
-7.85
-9.65
-11.36
-13.05
-14.69
-16.23
-17.58
-18.63
-19.24
-19.30
-18.72
-17.49
-15.65
-13.35
-10.78
-8.14
-5.53
-2.98
-0.38
2.41
5.41
8.47
11.23
13.25
14.19
13.94
12.69
10.80
8.61
6.29
3.77
0.86
-2.57
-6.39
-10.18
-13.39
-15.54
-16.44
-16.28
-15.47
-14.45
-13.49
-12.56
-11.52
-10.20
-8.65
-7.06
-5.76
-5.04
-5.04
-5.74
-6.95
-8.41
-9.81
-10.85
-11.26
-10.84
-9.50
-7.34
-4.56
-1.52
1.38
3.74
5.22
5.62
4.92
3.26
0.88
-1.96
-5.04
-8.29
-11.67
-15.08
-18.30
-20.97
-22.72
-23.31
-22.81
-21.52
-19.94
-18.47
-17.31
-16.44
-15.64
-14.70
-13.45
-11.86
-9.96
-7.89
-5.77
-3.75
-1.95
-0.46
0.70
1.64
2.49
3.45
4.68
6.22
7.98
9.72
11.13
11.85
11.69
10.68
9.12
7.50
6.29
5.81
6.05
6.75
7.49
7.88
7.63
6.63
4.96
2.85
0.66
-1.21
-2.35
-2.54
-1.78
-0.33
1.38
2.94
4.02
4.49
4.37
3.83
3.14
2.56
2.38
2.78
3.75
5.05
6.30
7.06
7.13
6.62
5.95
5.69
6.30
7.93
10.29
12.83
14.96
16.23
16.50
15.86
14.54
12.77
10.74
8.63
6.57
4.64
2.76
0.76
-1.58
-4.29
-7.17
-9.80
-11.67
-12.47
-12.15
-10.90
-8.96
-6.55
-3.76
-0.68
2.43
5.24
7.32
8.45
8.66
8.25
7.67
7.30
7.31
7.65
8.11
8.41
8.34
7.76
6.64
5.09
3.28
1.46
-0.16
-1.50
-2.61
-3.66
-4.87
-6.31
-7.95
-9.65
-11.26
-12.74
-14.14
-15.55
-17.00
-18.41
-19.65
-20.57
-21.12
-21.37
-21.37
-21.07
-20.32
-18.88
-16.57
-13.42
-9.70
-5.83
-2.18
0.98
3.62
5.84
7.77
9.52
11.12
12.61
14.02
15.45
16.90
18.27
19.36
19.93
19.87
19.20
18.14
16.92
15.71
14.55
13.37
12.09
10.63
9.03
7.30
5.50
3.65
1.75
-0.15
-2.00
-3.72
-5.25
-6.63
-7.95
-9.35
-10.94
-12.70
-14.48
-16.02
-17.02
-17.30
-16.82
-15.73
-14.24
-12.60
-10.98
-9.48
-8.18
-7.09
-6.24
-5.56
-4.94
-4.14
-2.94
-1.20
1.07
3.67
6.25
8.44
9.91
10.52
10.27
9.32
7.92
6.36
4.93
3.88
3.36
3.40
3.89
4.59
5.28
5.74
5.87
5.64
5.08
4.24
3.16
1.86
0.39
-1.18
-2.75
-4.24
-5.58
-6.73
-7.65
-8.27
-8.56
-8.45
-7.97
-7.18
-6.18
-5.13
-4.12
-3.23
-2.50
-1.90
-1.43
-1.05
-0.73
-0.41
-0.03
0.49
1.21
2.13
3.21
4.39
5.58
6.74
7.85
8.97
10.11
11.28
12.42
13.44
14.29
15.05
15.81
16.70
17.69
18.60
19.12
18.95
17.93
16.19
14.04
11.84
9.87
8.17
6.63
5.07
3.37
1.58
-0.09
-1.45
-2.36
-2.80
-2.92
-2.87
-2.80
-2.79
-2.81
-2.83
-2.79
-2.69
-2.52
-2.36
-2.26
-2.24
-2.29
-2.32
-2.22
-1.93
-1.45
-0.84
-0.20
0.39
0.88
1.27
1.57
1.82
2.10
2.49
3.10
3.97
5.05
6.18
7.16
7.82
8.11
8.07
7.78
7.27
6.52
5.46
4.10
2.54
0.90
-0.71
-2.27
-3.83
-5.44
-7.02
-8.37
-9.27
-9.54
-9.22
-8.53
-7.76
-7.12
-6.62
-6.12
-5.42
-4.47
-3.37
-2.39
-1.79
-1.69
-2.00
-2.47
-2.84
-2.94
-2.73
-2.27
-1.66
-0.96
-0.22
0.53
1.17
1.58
1.63
1.26
0.50
-0.52
-1.66
-2.74
-3.69
-4.44
-5.02
-5.54
-6.06
-6.69
-7.44
-8.22
-8.93
-9.47
-9.78
-9.93
-9.99
-10.04
-10.07
-10.02
-9.79
-9.31
-8.54
-7.51
-6.22
-4.72
-3.02
-1.16
0.82
2.88
4.95
6.98
8.91
10.66
12.21
13.60
14.88
16.09
17.18
17.95
18.15
17.56
16.20
14.31
12.34
10.75
9.82
9.59
9.83
10.27
10.60
10.66
10.40
9.80
8.89
7.66
6.11
4.25
2.16
-0.02
-2.12
-4.00
-5.64
-7.13
-8.65
-10.37
-12.37
-14.58
-16.77
-18.60
-19.79
-20.19
-19.78
-18.66
-16.96
-14.89
-12.61
-10.31
-8.16
-6.37
-5.16
-4.63
-4.75
-5.32
-6.13
-6.87
-7.00
-5.86
-2.85
2.29
9.40
17.89
26.76
34.73
40.84
44.97
47.86
50.61
54.08
58.49
63.41
67.54
68.95
65.93
57.90
45.58
30.55
14.38
-1.75
-17.19
-32.24
-47.94
-65.11
-83.47
-101.46
-116.91
-127.83
-132.63
-129.83
-114.77
-85.53
-46.25
-6.38
24.72
42.22
46.57
42.17
37.40
36.45
40.29
47.48
55.46
62.08
66.55
69.75
71.36
72.54
73.83
74.39
72.13
64.82
51.67
33.93
14.82
-1.53
-10.76
-10.46
-0.42
17.59
40.60
65.22
87.88
104.98
113.33
111.06
97.68
74.44
44.08
10.20
-23.40
-53.23
-76.29
-90.14
-93.02
-84.66
-66.76
-42.92
-17.73
4.69
22.07
34.49
43.94
53.05
63.72
76.45
90.54
104.73
117.76
128.37
135.00
135.65
128.31
111.73
86.13
53.49
17.04
-19.85
-54.75
-86.71
-116.07
-143.60
-169.41
-192.18
-209.14
-216.78
-212.33
-195.21
-167.84
-135.38
-104.32
-80.40
-66.74
-63.10
-66.40
-72.37
-77.26
-79.12
-78.20
-76.49
-76.69
-81.08
-90.77
-105.25
-122.60
-140.03
-154.87
-165.26
-170.60
-171.48
-169.23
-165.32
-160.87
-156.48
-152.27
-148.14
-144.00
-139.89
-135.89
-132.10
-128.65
-125.72
-123.48
-121.94
-120.62
-118.42
-113.72
-104.84
-90.61
-70.81
-46.24
-18.61
9.84
36.64
59.35
75.95
85.34
87.96
85.94
82.73
82.01
86.34
96.27
110.24
125.39
138.84
148.68
154.38
156.47
155.88
153.36
149.33
144.17
138.65
134.02
131.72
132.69
136.71
142.20
146.71
147.96
144.95
138.51
130.94
124.95
122.31
123.08
125.49
126.67
123.60
113.85
95.92
69.34
34.78
-5.66
-48.35
-88.37
-120.45
-140.35
-146.12
-138.74
-121.57
-99.25
-76.15
-55.38
-38.53
-25.93
-17.31
-12.06
-9.34
-7.90
-6.07
-2.08
5.17
15.52
27.35
38.09
45.27
47.56
45.36
40.53
35.54
32.45
32.21
34.60
38.66
43.31
47.68
51.30
53.98
55.70
56.46
56.34
55.51
54.17
52.53
50.79
49.10
47.60
46.34
45.36
44.66
44.38
44.68
45.81
47.83
50.49
53.12
54.84
54.94
53.25
50.23
46.80
43.83
41.75
40.31
38.72
36.11
32.00
26.48
20.12
13.61
7.65
2.88
-0.12
-0.80
1.19
5.89
12.84
21.04
29.18
35.96
40.58
42.63
42.08
39.24
35.01
30.51
26.76
24.28
22.99
22.55
22.23
21.13
18.41
14.06
8.57
2.49
-3.78
-9.97
-15.34
-19.43
-22.28
-24.61
-26.71
-28.87
-31.39
-34.43
-37.71
-39.83
-39.55
-36.50
-31.78
-26.50
-22.05
-19.69
-19.99
-26.35
-38.13
-50.89
-56.99
-56.28
-50.84
-43.35
-35.39
-27.62
-19.98
-11.54
-2.03
7.68
15.68
21.03
23.69
24.40
24.23
24.18
25.22
27.26
29.15
28.95
25.65
18.98
9.24
-2.94
-16.68
-30.58
-43.17
-53.17
-59.70
-61.85
-59.19
-52.14
-41.71
-29.11
-15.41
-1.79
10.41
19.84
25.72
28.13
27.73
25.79
23.77
22.83
23.47
25.45
28.19
31.27
34.45
37.32
39.58
41.23
42.42
43.41
44.42
45.70
47.51
49.93
51.61
51.25
48.13
42.18
33.63
22.93
11.01
-0.63
-10.24
-18.58
-26.32
-33.50
-40.06
-47.19
-57.39
-73.29
-96.21
-125.33
-161.08
-200.97
-239.39
-269.85
-288.52
-295.81
-295.66
-293.62
-294.94
-307.33
-333.49
-369.20
-405.43
-433.63
-449.15
-451.67
-443.77
-399.92
-311.65
-191.98
-67.05
42.58
128.84
191.45
232.77
256.20
267.80
269.98
265.90
261.01
261.13
268.88
282.51
298.02
312.12
317.99
309.70
285.97
250.66
210.51
171.33
136.21
106.22
81.62
62.67
47.97
36.35
27.29
20.36
14.28
7.16
-2.40
-14.50
-28.04
-41.90
-54.78
-65.28
-72.33
-75.65
-75.86
-73.80
-70.14
-65.09
-58.57
-50.24
-39.84
-27.59
-14.55
-2.53
6.54
11.28
11.35
7.73
2.36
-2.45
-4.59
-2.57
4.22
15.38
29.77
45.71
61.58
76.17
88.60
98.22
104.62
107.49
106.78
102.79
96.14
87.53
77.71
66.94
55.08
42.05
28.19
14.45
2.23
-7.20
-14.82
-21.10
-26.80
-32.62
-38.61
-43.98
-47.41
-47.73
-44.70
-39.21
-32.51
-25.93
-20.09
-14.75
-9.39
-3.66
2.53
8.83
14.70
19.99
24.93
30.09
36.13
43.50
50.96
57.21
60.62
59.86
54.56
45.38
33.84
21.64
10.08
-0.34
-9.45
-17.17
-22.98
-25.72
-24.20
-17.96
-7.81
4.14
15.09
22.71
25.81
24.79
21.22
17.02
13.52
11.02
9.04
6.84
4.20
1.49
-0.55
-1.35
-0.88
0.32
1.46
1.92
1.40
-0.09
-2.53
-6.03
-10.65
-16.33
-22.72
-29.34
-35.78
-41.89
-47.65
-52.92
-57.42
-60.69
-62.41
-62.64
-61.86
-60.77
-59.93
-59.48
-59.16
-58.49
-56.97
-54.34
-50.53
-45.73
-40.27
-34.56
-29.06
-24.12
-19.95
-16.58
-13.92
-11.85
-10.19
-8.69
-6.93
-4.41
-0.69
4.35
10.44
16.94
23.09
28.33
32.42
35.54
38.09
40.65
43.81
47.97
53.06
58.25
62.02
62.52
58.48
49.85
38.08
25.65
15.11
8.06
4.74
4.28
5.35
6.89
8.36
9.65
10.78
11.66
12.05
11.63
10.05
7.03
2.45
-3.57
-10.58
-17.82
-24.41
-29.66
-33.28
-35.40
-36.44
-37.03
-37.82
-39.53
-42.76
-47.80
-54.31
-61.24
-67.08
-70.44
-70.71
-68.43
-65.07
-62.39
-61.81
-63.94
-68.64
-75.40
-83.63
-92.80
-102.25
-110.95
-117.45
-120.06
-117.16
-107.70
-91.48
-69.25
-42.60
-13.68
15.06
41.38
63.43
80.13
91.20
97.10
98.85
97.63
94.60
90.58
86.01
80.93
75.13
68.38
60.61
52.08
43.35
35.16
28.20
22.93
19.50
17.76
17.37
17.88
18.82
19.68
20.02
19.53
18.12
16.03
13.67
11.48
9.71
8.32
7.10
5.81
4.37
2.92
1.72
1.00
0.89
1.27
1.86
2.32
2.28
1.54
-0.00
-2.21
-4.79
-7.27
-9.17
-10.18
-10.21
-9.50
-8.42
-7.36
-6.55
-5.97
-5.47
-4.85
-3.94
-2.64
-0.94
1.16
3.59
6.22
8.83
11.12
12.85
13.90
14.28
14.10
13.44
12.29
10.54
8.13
5.09
1.67
-1.74
-4.65
-6.66
-7.58
-7.45
-6.55
-5.28
-4.10
-3.34
-3.24
-3.86
-5.12
-6.89
-9.00
-11.35
-13.87
-16.49
-19.08
-21.43
-23.33
-24.60
-25.28
-25.56
-25.74
-26.08
-26.59
-27.03
-26.91
-25.75
-23.24
-19.45
-14.86
-10.20
-6.20
-3.36
-1.74
-1.01
-0.64
-0.10
0.95
2.61
4.78
7.30
9.93
12.47
14.66
16.31
17.40
18.17
18.99
20.25
21.97
23.82
25.12
25.25
23.98
21.57
18.77
16.45
15.29
15.54
16.95
18.95
20.85
22.08
22.23
21.12
18.70
15.03
10.29
4.79
-0.85
-5.88
-9.57
-11.44
-11.49
-10.18
-8.24
-6.38
-4.97
-4.08
-3.72
-3.75
-3.95
-4.09
-3.95
-3.28
-1.93
0.10
2.52
4.66
5.95
6.11
5.34
4.34
4.07
5.52
9.44
15.89
23.84
32.00
39.27
45.00
49.09
51.98
54.23
56.66
59.36
60.67
58.83
52.64
41.43
25.56
6.56
-13.13
-29.81
-40.69
-46.54
-48.91
-49.19
-49.07
-49.75
-51.51
-53.70
-53.53
-48.53
-40.20
-29.54
-16.41
-1.59
13.43
26.95
37.72
47.66
59.41
71.64
84.53
99.71
117.24
135.74
153.16
154.19
130.63
104.62
85.08
67.20
49.58
31.10
11.16
-9.98
-31.31
-49.36
-61.44
-70.36
-78.09
-84.38
-89.03
-91.67
-91.96
-89.87
-84.21
-74.49
-64.45
-56.47
-50.71
-47.04
-45.06
-44.15
-43.64
-41.87
-37.40
-32.37
-28.22
-25.44
-24.42
-25.23
-27.49
-30.43
-32.31
-30.92
-26.64
-19.41
-9.26
3.01
16.04
28.27
38.55
47.02
55.00
61.66
66.44
68.36
66.41
60.11
49.99
37.50
20.82
8.11
-1.07
-7.63
-12.97
-17.91
-22.27
-25.00
-24.75
-19.70
-8.49
7.00
24.47
41.45
56.38
68.85
79.28
83.23
78.14
66.38
52.39
39.96
29.05
17.12
1.50
-18.48
-40.43
-59.27
-70.44
-72.90
-68.02
-59.14
-49.79
-42.43
-37.80
-34.74
-31.18
-25.47
-17.67
-8.48
0.63
7.72
9.91
2.97
-15.59
-44.15
-76.65
-105.41
-124.45
-131.48
-127.88
-117.11
-105.16
-91.83
-75.75
-56.13
-33.75
-10.90
9.76
26.61
39.99
52.13
65.36
81.02
98.94
117.23
132.84
142.83
145.48
140.80
130.33
116.83
102.81
89.94
78.77
68.53
58.27
47.69
37.27
27.99
20.91
16.23
13.25
10.63
6.32
-0.86
-10.77
-22.20
-33.71
-44.37
-54.28
-64.21
-75.07
-88.03
-102.86
-117.63
-129.56
-136.31
-136.96
-132.35
-124.53
-110.78
-91.37
-69.29
-48.69
-32.36
-20.74
-12.78
-6.87
-1.28
5.53
13.76
23.20
33.36
43.51
52.62
60.19
65.60
68.63
69.56
68.40
65.64
62.00
58.13
54.08
49.36
43.18
35.14
25.44
14.61
3.73
-5.78
-12.64
-16.54
-18.17
-18.92
-20.18
-22.80
-26.82
-31.21
-34.39
-35.10
-32.96
-28.57
-23.27
-18.58
-15.73
-15.03
-15.79
-16.66
-16.20
-13.09
-6.21
5.13
21.11
39.04
54.01
61.56
60.26
51.70
39.33
26.72
16.18
8.03
0.67
-7.79
-18.22
-29.75
-40.79
-48.85
-51.99
-49.44
-42.03
-31.87
-21.13
-11.33
-3.18
2.96
6.83
7.86
6.11
2.32
-2.21
-5.59
-5.99
-2.35
4.90
14.15
23.26
30.45
35.46
38.24
39.24
38.89
37.25
33.94
28.69
21.81
14.28
7.35
1.90
-1.74
-3.95
-5.43
-6.97
-8.91
-10.88
-12.35
-12.86
-12.31
-10.80
-8.67
-6.39
-4.59
-3.76
-4.07
-5.32
-7.04
-8.73
-10.02
-10.86
-10.80
-9.94
-8.81
-7.87
-7.02
-5.66
-3.30
0.12
4.25
8.66
12.82
16.83
20.93
25.09
29.04
32.33
34.62
35.83
36.18
35.96
35.09
33.72
31.97
30.02
27.99
26.03
24.18
22.39
20.47
18.23
15.63
12.68
9.41
5.78
1.70
-2.80
-7.50
-11.90
-15.31
-17.03
-16.71
-14.48
-10.92
-6.83
-2.87
0.57
3.36
5.55
7.15
8.03
8.00
6.96
5.01
2.54
0.01
-2.19
-3.92
-5.26
-6.41
-7.59
-8.93
-10.49
-12.33
-14.53
-17.12
-20.06
-23.12
-25.94
-28.14
-29.43
-29.75
-29.18
-27.91
-26.08
-23.74
-20.84
-17.37
-13.44
-9.29
-5.28
-1.79
0.85
2.43
2.88
2.24
0.68
-1.60
-4.37
-7.40
-10.58
-13.75
-16.77
-19.39
-21.31
-22.34
-22.42
-21.83
-20.97
-20.29
-20.03
-20.18
-20.53
-20.83
-20.90
-20.67
-20.15
-19.33
-18.21
-16.81
-15.26
-13.68
-12.26
-11.01
-9.78
-8.30
-6.26
-3.53
-0.22
3.25
6.37
8.64
9.85
10.12
9.83
9.53
9.59
10.12
10.97
11.81
12.36
12.53
12.46
12.35
12.37
12.50
12.55
12.28
11.56
10.42
9.08
7.81
6.81
6.09
5.54
4.98
4.31
3.47
2.52
1.49
0.41
-0.66
-1.53
-1.93
-1.59
-0.35
1.69
4.22
6.80
9.07
10.79
11.87
12.25
11.73
10.11
7.17
2.96
-2.23
-7.86
-13.36
-18.25
-22.23
-25.16
-26.98
-27.67
-27.30
-26.05
-24.36
-22.81
-21.97
-22.17
-23.33
-25.03
-26.57
-27.20
-26.36
-23.79
-19.68
-14.64
-9.63
-5.74
-3.91
-4.61
-7.75
-12.82
-19.25
-26.78
-35.61
-46.11
-58.35
-71.62
-84.38
-94.72
-100.91
-102.00
-97.80
-88.59
-74.74
-56.58
-34.61
-9.80
16.26
41.63
64.54
83.75
98.61
108.88
114.38
115.07
111.30
104.18
95.53
87.36
81.09
76.93
73.89
70.36
65.07
57.77
49.32
41.25
35.00
31.38
30.40
31.55
34.20
37.85
42.23
47.00
51.70
55.58
57.79
57.61
54.70
49.30
42.08
34.06
26.21
19.15
12.95
7.19
1.15
-5.81
-13.90
-22.81
-31.82
-40.08
-46.83
-51.58
-54.09
-54.30
-52.33
-48.46
-43.21
-37.28
-31.39
-26.14
-21.84
-18.49
-15.82
-13.50
-11.24
-8.90
-6.39
-3.65
-0.62
2.74
6.36
10.12
13.85
17.36
20.39
22.75
24.38
25.32
25.77
25.93
26.01
26.14
26.18
25.61
23.89
20.61
15.76
9.84
3.65
-1.85
-5.82
-7.89
-8.54
-8.47
-8.32
-8.54
-9.20
-10.31
-11.47
-11.94
-10.94
-8.72
-5.61
-1.86
2.30
6.97
12.03
17.62
23.97
30.99
36.87
40.07
39.47
33.88
21.79
0.44
-32.10
-74.98
-123.66
-171.79
-211.21
-234.93
-240.06
-228.29
-205.89
-179.54
-153.77
-121.03
-80.27
-36.76
1.12
25.05
37.64
42.53
42.87
41.10
38.23
33.23
26.14
18.39
12.72
12.48
18.81
31.20
48.00
67.08
85.46
101.40
114.21
120.53
118.32
107.45
90.57
71.19
51.85
33.22
17.05
2.71
-9.82
-19.70
-26.72
-31.15
-33.49
-34.06
-33.36
-31.62
-29.10
-25.79
-21.40
-16.11
-10.39
-4.87
-0.04
3.77
6.58
8.44
9.72
10.91
12.23
13.57
14.68
15.41
15.77
15.94
16.02
16.13
16.41
16.84
17.24
17.36
16.99
15.94
14.11
11.44
8.08
4.37
0.78
-2.22
-4.30
-5.28
-5.18
-4.18
-2.57
-0.61
1.45
3.38
4.99
6.10
6.59
6.45
5.79
4.83
3.85
3.09
2.66
2.57
2.71
2.91
3.02
2.87
2.35
1.40
0.08
-1.44
-2.88
-3.98
-4.51
-4.40
-3.75
-2.74
-1.61
-0.52
0.42
1.22
1.89
2.50
3.14
3.88
4.75
5.69
6.52
6.98
6.76
5.71
3.84
1.43
-1.07
-3.23
-4.73
-5.51
-5.74
-5.71
-5.73
-6.02
-6.68
-7.75
-9.19
-10.97
-13.04
-15.33
-17.75
-20.19
-22.52
-24.66
-26.62
-28.42
-30.13
-31.78
-33.33
-34.67
-35.73
-36.48
-37.02
-37.43
-37.74
-37.83
-37.42
-36.12
-33.62
-29.75
-24.60
-18.48
-11.88
-5.36
0.59
5.60
9.57
12.59
14.85
16.57
17.84
18.61
18.81
18.37
17.37
15.99
14.48
13.07
11.97
11.35
11.41
12.28
14.00
16.51
19.62
23.12
26.80
30.54
34.23
37.74
40.85
43.33
44.92
45.51
45.12
43.85
41.80
38.98
35.33
30.91
25.92
20.83
16.21
12.56
10.06
8.51
7.52
6.69
5.80
4.84
3.88
2.89
1.71
0.11
-2.02
-4.49
-6.80
-8.29
-8.40
-6.85
-3.78
0.39
5.14
10.02
14.80
19.39
23.75
27.68
30.76
32.49
32.51
30.86
28.08
25.02
22.53
21.10
20.68
20.84
21.04
21.06
21.17
21.99
24.18
28.02
33.27
39.26
45.26
50.81
55.90
60.89
66.18
71.94
77.97
83.86
89.16
93.73
97.79
101.87
106.55
112.13
118.49
124.97
130.70
134.81
136.91
137.28
136.60
136.03
136.80
139.73
144.82
151.39
158.34
164.52
168.86
170.21
167.33
159.08
144.46
122.86
94.34
59.65
19.81
-24.40
-72.89
-124.94
-178.05
-227.56
-267.51
-292.38
-299.23
-289.04
-266.59
-239.78
-215.33
-196.51
-183.05
-172.86
-163.90
-155.36
-147.84
-142.60
-142.85
-149.13
-158.63
-167.14
-171.94
-172.96
-172.40
-173.26
-177.74
-189.91
-209.49
-231.72
-250.55
-262.88
-269.39
-272.96
-276.42
-280.81
-289.72
-302.19
-312.62
-314.51
-305.07
-285.87
-261.20
-236.39
-185.93
-106.73
-17.84
56.23
105.79
136.35
158.86
181.96
209.03
238.66
261.84
272.05
268.34
255.01
235.37
211.12
183.86
155.92
130.44
106.91
86.17
70.80
63.32
63.61
69.25
77.15
84.28
88.30
85.80
76.11
61.76
46.96
35.10
27.90
25.63
27.65
32.95
39.37
45.63
51.87
58.96
67.43
76.91
86.74
96.53
106.13
114.80
121.60
125.60
126.19
123.16
116.17
105.80
94.05
83.83
77.57
75.94
77.53
79.49
78.88
72.93
61.32
46.90
33.96
25.31
20.57
16.64
9.61
-3.29
-24.32
-53.83
-89.65
-128.38
-166.73
-201.79
-230.42
-249.03
-245.05
-211.92
-155.63
-91.70
-35.06
6.53
32.02
44.18
47.27
45.54
42.13
37.45
32.89
30.39
31.14
34.71
39.62
44.25
47.54
48.24
44.64
37.75
29.76
22.51
16.51
11.30
6.13
0.37
-6.77
-15.04
-22.29
-26.73
-28.78
-30.84
-35.55
-44.00
-55.44
-67.70
-78.02
-83.61
-83.07
-76.91
-67.11
-56.12
-45.71
-37.85
-32.72
-30.47
-30.47
-31.23
-30.31
-24.76
-12.13
8.73
35.92
64.99
89.93
105.63
109.56
102.67
88.93
70.34
51.14
34.44
21.43
11.53
3.60
-3.08
-8.43
-11.77
-12.57
-10.33
-5.56
0.83
8.01
15.53
23.37
31.59
39.95
47.64
53.74
56.93
56.18
51.34
43.36
34.01
25.23
18.36
13.75
11.08
9.50
8.30
7.39
7.41
9.39
14.24
22.19
32.53
43.74
53.53
59.15
57.93
48.02
29.27
3.84
-23.97
-48.77
-65.80
-72.68
-70.18
-61.58
-51.02
-41.56
-34.15
-27.99
-21.81
-15.52
-10.92
-11.33
-20.39
-40.29
-70.20
-105.74
-139.76
-164.08
-171.58
-158.12
-123.96
-74.10
-17.42
35.85
76.85
100.25
105.29
95.42
76.85
56.10
37.84
23.94
14.35
8.26
4.59
1.96
-1.24
-6.51
-14.67
-25.41
-36.93
-45.61
-46.92
-37.20
-15.30
17.19
56.57
97.69
134.53
157.73
158.02
132.68
89.31
41.75
2.18
-23.62
-36.35
-40.70
-41.92
-42.78
-42.93
-40.67
-35.28
-27.88
-20.71
-15.92
-14.60
-16.46
-19.64
-21.63
-20.60
-16.51
-10.85
-5.60
-2.25
-1.33
-2.41
-4.15
-4.92
-3.62
-0.35
3.85
7.65
10.14
11.00
10.57
9.77
9.67
10.97
13.69
17.17
20.46
22.78
23.79
23.68
23.22
23.40
24.96
27.98
31.78
35.15
36.76
35.59
31.67
25.87
19.56
14.02
9.77
6.36
2.50
-3.22
-11.08
-20.89
-30.93
-38.81
-42.68
-41.99
-37.82
-32.46
-28.20
-26.64
-28.23
-32.44
-38.22
-43.87
-46.54
-42.32
-27.65
-1.66
31.83
64.43
86.09
90.00
75.44
48.49
19.01
-4.17
-16.99
-20.87
-20.33
-19.45
-19.62
-19.70
-17.88
-13.63
-8.42
-4.67
-4.27
-7.33
-12.20
-16.54
-18.37
-17.23
-14.07
-10.68
-8.76
-9.14
-11.51
-14.73
-17.53
-19.14
-19.63
-19.63
-19.93
-21.00
-22.75
-24.72
-26.47
-27.94
-29.51
-31.77
-35.13
-39.45
-44.02
-48.08
-50.98
-52.72
-53.85
-55.24
-57.86
-62.58
-70.14
-80.64
-92.83
-103.58
-108.41
-103.02
-85.52
-57.99
-26.26
2.28
21.61
29.53
27.89
21.00
13.11
6.44
0.94
-4.60
-10.86
-17.26
-22.09
-23.52
-20.58
-13.43
-3.02
9.21
22.14
35.35
49.02
63.84
80.05
96.83
113.24
127.77
139.01
146.36
149.96
150.15
146.66
138.77
125.37
105.91
82.13
57.59
36.15
20.06
8.90
0.00
-10.17
-23.28
-38.92
-55.01
-69.32
-80.74
-89.56
-96.79
-103.08
-108.11
-110.85
-110.26
-105.92
-98.03
-87.53
-75.39
-62.34
-48.60
-34.03
-18.33
-1.57
15.73
31.87
45.78
56.49
63.50
66.97
67.59
66.41
64.36
62.09
60.26
58.54
56.55
54.02
50.96
47.59
44.39
41.79
40.01
39.06
38.66
38.33
37.56
36.09
34.04
31.90
30.35
29.89
30.72
32.45
34.23
35.10
34.39
32.13
29.01
26.44
25.08
25.14
25.90
26.06
24.25
19.83
13.30
6.26
0.70
-1.91
-1.02
2.94
8.85
15.26
20.49
22.60
19.57
9.84
-6.83
-28.75
-52.55
-74.47
-92.01
-104.84
-114.40
-122.39
-129.00
-132.19
-128.47
-114.85
-90.93
-59.81
-26.99
2.05
23.86
38.09
46.90
53.45
60.39
68.01
74.01
74.71
67.07
50.47
27.36
2.35
-19.81
-35.30
-44.02
-49.67
-57.94
-73.51
-97.71
-127.88
-158.64
-184.10
-198.21
-198.05
-184.15
-159.37
-127.08
-89.72
-48.23
-2.82
44.69
93.86
143.33
190.48
231.98
265.05
288.41
302.48
308.72
297.56
265.99
217.96
162.45
108.18
60.36
20.83
-10.37
-33.93
-50.94
-60.78
-63.68
-61.24
-56.13
-50.76
-46.89
-45.20
-45.51
-47.28
-48.36
-47.16
-43.34
-37.67
-31.30
-25.55
-22.58
-24.44
-32.65
-46.20
-62.14
-76.49
-85.53
-86.96
-80.87
-69.79
-57.66
-48.49
-44.55
-46.23
-52.14
-59.80
-65.96
-67.47
-61.90
-48.15
-27.04
-1.02
26.18
50.52
68.64
78.77
80.66
75.50
65.51
53.32
41.31
31.28
24.38
19.64
16.51
14.27
12.27
10.07
7.61
5.24
3.51
2.80
3.05
3.91
4.62
4.41
2.82
-0.12
-3.88
-7.58
-10.29
-11.35
-10.43
-7.90
-4.62
-1.73
-0.26
-0.76
-3.16
-6.94
-11.30
-15.28
-18.23
-19.72
-19.61
-17.83
-14.44
-9.52
-3.35
3.65
10.97
18.01
24.28
29.41
33.23
35.69
36.79
36.56
35.10
32.55
29.23
25.57
22.12
19.46
18.03
18.05
19.39
21.67
24.32
26.83
28.91
30.53
31.79
32.81
33.63
34.18
34.45
34.43
34.06
33.08
30.92
26.91
20.54
11.88
1.78
-8.25
-16.41
-21.25
-21.97
-18.72
-12.31
-3.83
5.76
15.97
26.80
38.61
51.81
66.63
82.72
99.22
114.88
128.52
139.51
148.27
156.16
164.90
175.55
187.44
197.90
202.85
198.02
180.35
148.84
105.14
53.65
1.22
-43.91
-73.97
-84.10
-74.48
-50.96
-23.57
-3.07
2.80
-8.31
-33.51
-66.96
-102.74
-136.67
-166.42
-190.81
-208.97
-220.50
-226.07
-227.86
-229.04
-232.33
-238.70
-246.40
-251.53
-249.46
-236.76
-212.72
-179.84
-143.17
-108.74
-81.49
-63.53
-53.67
-48.14
-42.57
-34.07
-22.39
-9.69
0.96
7.43
9.63
9.35
9.09
10.63
14.23
18.82
22.82
25.06
25.23
23.82
21.60
19.10
16.28
12.82
8.55
3.77
-0.59
-3.30
-3.37
-0.56
4.44
10.28
15.41
18.73
19.80
18.91
16.78
14.25
12.02
10.53
10.07
10.76
12.61
15.44
18.91
22.58
26.00
28.87
30.97
32.22
32.59
32.07
30.66
28.44
25.46
21.78
17.41
12.36
6.72
0.64
-5.68
-12.02
-18.24
-24.13
-29.46
-33.80
-36.64
-37.57
-36.43
-33.48
-29.32
-24.75
-20.52
-17.13
-14.76
-13.27
-12.28
-11.32
-9.92
-7.77
-4.77
-1.13
2.73
6.34
9.31
11.47
12.93
13.95
14.74
15.39
15.79
15.75
15.11
13.93
12.43
10.96
9.85
9.24
9.10
9.28
9.61
9.98
10.35
10.62
10.73
10.56
10.04
9.17
7.98
6.48
4.69
2.65
0.39
-1.86
-3.82
-5.17
-5.64
-5.32
-4.44
-3.30
-2.15
-1.13
-0.21
0.74
1.88
3.33
4.77
5.79
6.04
5.33
3.72
1.53
-0.79
-2.71
-3.79
-4.25
-4.57
-5.42
-7.59
-11.95
-18.97
-28.60
-39.73
-50.28
-58.38
-62.44
-61.81
-57.01
-49.65
-41.53
-34.43
-29.31
-22.70
-13.03
-0.90
11.28
21.26
28.12
32.47
34.67
34.87
33.28
30.13
27.17
27.41
34.19
49.12
71.88
98.35
122.56
138.90
143.77
137.20
122.14
103.04
81.27
61.24
45.09
32.65
22.62
13.47
4.38
-5.06
-14.86
-24.72
-33.74
-41.57
-47.83
-51.99
-54.61
-55.05
-53.20
-49.41
-44.37
-38.55
-32.80
-27.69
-23.29
-19.36
-15.49
-11.58
-7.77
-4.36
-1.46
0.63
1.73
1.98
1.68
1.34
1.20
1.29
1.57
1.98
2.23
2.01
1.24
0.03
-1.18
-2.05
-2.30
-1.92
-1.12
-0.28
0.25
0.37
0.19
0.03
0.14
0.62
1.41
2.33
3.10
3.46
3.28
2.57
1.54
0.53
-0.11
-0.11
0.61
1.87
3.32
4.64
5.60
6.23
6.72
7.25
7.89
8.50
8.82
8.70
8.16
7.49
7.05
7.17
7.89
9.05
10.37
11.58
12.60
13.50
14.38
15.31
16.22
16.95
17.28
17.06
16.26
15.01
13.47
11.81
10.13
8.42
6.62
4.67
2.56
0.36
-1.84
-3.90
-5.66
-6.98
-7.69
-7.65
-6.84
-5.33
-3.34
-1.12
1.06
3.04
4.70
5.99
6.86
7.25
7.08
6.27
4.84
2.89
0.61
-1.73
-3.87
-5.64
-7.00
-8.00
-8.76
-9.40
-9.96
-10.40
-10.68
-10.73
-10.59
-10.34
-10.09
-9.89
-9.74
-9.59
-9.41
-9.25
-9.21
-9.48
-10.19
-11.38
-12.89
-14.44
-15.64
-16.11
-15.63
-14.23
-12.14
-9.75
-7.41
-5.35
-3.57
-1.96
-0.38
1.20
2.66
3.78
4.38
4.42
4.03
3.48
3.04
2.89
3.08
3.55
4.22
5.07
6.11
7.36
8.76
10.18
11.41
12.29
12.71
12.73
12.49
12.18
11.93
11.79
11.69
11.50
11.10
10.35
9.25
7.80
6.14
4.46
2.98
1.89
1.28
1.11
1.25
1.56
1.93
2.33
2.86
3.59
4.56
5.73
6.95
8.10
9.11
9.99
10.81
11.68
12.69
13.79
14.80
15.44
15.53
15.04
14.03
12.65
11.15
9.70
8.38
7.09
5.69
4.12
2.37
0.48
-1.59
-3.78
-6.08
-8.63
-11.77
-15.91
-21.29
-27.85
-35.22
-42.67
-49.05
-53.05
-53.65
-50.48
-43.84
-34.45
-23.31
-11.22
0.04
8.58
13.66
15.81
15.98
14.81
12.54
9.32
5.43
1.40
-1.93
-3.78
-3.74
-2.13
0.45
3.41
6.57
10.00
13.93
18.53
24.12
30.19
35.84
40.29
43.08
44.04
43.07
40.21
35.71
28.98
21.18
13.17
5.22
-2.89
-11.35
-20.58
-30.22
-39.12
-46.00
-49.81
-50.34
-47.98
-43.49
-37.68
-31.37
-25.28
-19.84
-15.54
-12.55
-10.83
-9.94
-9.16
-7.86
-5.81
-3.31
-0.67
1.27
1.75
0.27
-2.85
-6.30
-8.03
-6.24
-0.25
9.58
21.50
33.40
43.83
52.72
61.25
70.86
82.06
90.82
94.82
92.45
83.19
67.71
47.39
23.98
-0.49
-23.59
-42.20
-52.59
-52.69
-43.42
-28.98
-15.64
-9.73
-13.86
-27.42
-46.70
-65.86
-79.65
-84.71
-80.11
-66.87
-47.24
-24.00
-0.32
20.68
36.55
45.59
47.16
41.92
31.61
18.46
4.88
-6.97
-15.69
-20.77
-22.63
-22.28
-20.77
-18.84
-16.80
-14.52
-11.80
-8.48
-4.46
0.21
5.40
10.99
16.97
23.42
30.56
38.49
47.20
56.43
65.66
74.21
81.36
86.60
89.64
90.67
90.17
88.79
87.16
85.61
84.14
82.38
79.83
76.05
70.72
63.52
54.00
41.78
26.79
9.49
-9.23
-28.72
-49.31
-72.71
-101.59
-138.20
-182.68
-232.08
-280.62
-321.31
-348.06
-357.29
-348.34
-322.72
-282.89
-231.57
-171.90
-108.04
-45.36
10.14
53.32
81.58
95.70
99.28
97.15
93.45
90.30
87.75
84.66
79.92
73.34
65.81
58.74
53.44
50.50
49.71
50.25
50.97
50.81
49.01
45.23
39.58
32.60
25.21
18.57
13.92
12.22
13.89
18.69
25.69
33.51
40.62
45.67
47.72
46.36
41.73
34.32
24.93
14.45
3.83
-5.98
-14.10
-19.92
-23.21
-24.27
-23.86
-23.04
-22.84
-23.96
-26.57
-30.35
-34.50
-37.86
-38.86
-35.61
-26.32
-10.04
12.45
38.32
63.05
81.75
90.80
89.00
77.73
60.04
39.31
18.22
-1.48
-18.61
-31.98
-40.34
-42.76
-39.30
-31.39
-21.57
-12.60
-6.66
-4.71
-6.53
-11.23
-17.78
-25.40
-33.56
-41.84
-49.71
-56.40
-60.99
-62.56
-60.51
-54.72
-45.62
-33.99
-20.84
-7.26
5.72
17.20
26.56
33.47
38.02
40.79
42.78
45.06
48.43
53.00
58.20
62.96
65.92
65.96
62.36
55.28
45.37
33.53
20.69
7.86
-3.82
-13.48
-20.51
-25.03
-27.24
-28.09
-29.07
-31.80
-37.17
-44.88
-53.62
-61.12
-65.19
-63.04
-52.97
-34.81
-9.92
19.66
51.82
84.18
114.81
141.46
163.47
180.60
193.06
201.35
206.71
210.97
215.37
220.93
217.67
198.93
164.32
120.34
75.43
35.43
4.73
-19.84
-40.74
-59.49
-75.21
-87.08
-93.93
-96.42
-96.49
-96.69
-100.05
-108.41
-123.14
-143.62
-168.28
-195.05
-221.99
-247.26
-269.36
-287.61
-300.85
-308.35
-308.73
-300.50
-282.39
-253.94
-215.65
-168.95
-116.08
-58.50
1.92
62.83
120.65
171.03
209.66
233.69
242.77
239.14
228.04
214.85
203.55
195.72
191.13
188.65
186.93
184.69
174.03
150.11
112.66
66.59
19.17
-22.96
-54.99
-74.49
-81.59
-79.01
-70.24
-59.09
-48.47
-39.66
-32.20
-24.84
-16.80
-8.41
-0.90
5.30
10.34
14.75
18.76
22.05
24.31
24.36
21.80
17.14
12.14
8.66
7.70
8.97
11.20
12.83
12.57
9.98
5.36
-0.27
-5.68
-9.52
-10.69
-8.38
-2.53
5.73
14.35
21.04
24.17
23.29
19.42
13.97
8.05
1.77
-5.61
-14.86
-25.94
-37.83
-49.18
-58.96
-67.04
-73.96
-80.20
-85.36
-88.02
-86.45
-79.80
-69.06
-56.56
-45.04
-36.46
-31.38
-28.79
-26.75
-23.32
-17.49
-9.76
-1.27
6.80
13.44
17.76
19.02
16.80
11.12
2.55
-8.30
-20.05
-30.80
-38.68
-42.41
-41.19
-34.54
-22.06
-1.06
27.24
58.23
86.54
108.72
123.17
129.09
125.75
112.93
91.58
63.66
32.92
3.91
-19.41
-35.07
-43.19
-45.53
-44.42
-41.94
-39.95
-39.29
-39.87
-41.02
-42.66
-43.66
-43.20
-40.78
-36.43
-30.89
-24.95
-19.18
-13.91
-9.38
-5.72
-3.03
-1.03
0.60
2.14
3.97
6.46
9.69
13.25
16.37
18.26
18.78
18.15
16.43
14.26
12.41
11.44
11.60
12.52
14.04
16.39
18.47
17.95
12.65
2.19
-10.83
-21.43
-24.41
-16.78
0.99
25.44
51.72
75.71
95.03
108.96
117.37
119.71
110.54
90.15
62.08
31.71
4.33
-16.59
-30.12
-37.56
-42.08
-45.65
-48.14
-49.25
-48.81
-47.02
-44.56
-42.34
-41.20
-41.93
-44.79
-48.06
-50.88
-52.96
-54.38
-55.49
-56.54
-55.73
-51.93
-44.85
-35.00
-24.02
-13.50
-4.41
2.89
8.61
13.31
17.57
21.97
26.79
31.44
34.74
35.64
33.55
29.36
23.83
18.01
12.89
9.02
6.31
4.39
3.10
2.25
1.57
0.60
-1.10
-3.54
-6.12
-7.69
-6.93
-2.72
4.95
14.72
24.40
31.95
36.35
37.98
38.28
37.53
37.14
38.97
44.13
51.77
58.89
61.58
56.60
42.83
22.02
-1.54
-22.92
-38.66
-47.69
-51.40
-52.29
-52.50
-52.88
-53.13
-52.32
-50.13
-47.90
-46.31
-45.89
-46.35
-46.64
-45.46
-42.03
-36.26
-28.93
-21.36
-14.58
-9.21
-5.13
-1.68
1.87
5.92
10.44
15.01
19.04
22.10
23.98
24.19
22.67
19.58
15.21
9.91
4.17
-1.53
-6.60
-10.63
-13.31
-14.42
-13.93
-12.00
-9.02
-5.49
-1.96
1.10
3.36
4.68
5.16
4.99
4.38
3.54
2.58
1.59
0.58
-0.46
-1.58
-2.78
-4.13
-5.70
-7.58
-9.75
-12.09
-14.28
-15.89
-16.52
-15.88
-14.00
-11.23
-8.14
-5.29
-3.13
-1.83
-1.36
-1.61
-2.48
-3.89
-5.76
-7.95
-10.27
-12.54
-14.62
-16.47
-18.18
-19.82
-21.37
-22.60
-23.20
-22.77
-21.02
-17.88
-13.53
-8.30
-2.63
3.11
8.62
13.72
18.29
22.17
25.19
27.12
27.77
27.07
25.12
22.22
18.87
15.65
13.11
11.62
11.27
11.91
13.20
14.76
16.29
17.61
18.61
19.16
19.15
18.48
17.14
15.23
12.95
10.55
8.28
6.32
4.83
3.91
3.63
3.93
4.65
5.54
6.31
6.75
6.80
6.51
6.01
5.41
4.73
3.93
2.92
1.69
0.28
-1.25
-2.88
-4.65
-6.61
-8.67
-10.57
-11.84
-12.01
-10.76
-8.13
-4.51
-0.50
3.28
6.43
8.87
10.77
12.37
13.85
15.19
16.16
16.52
16.08
14.85
13.01
10.85
8.64
6.57
4.76
3.27
2.16
1.43
1.03
0.82
0.68
0.49
0.21
-0.15
-0.57
-1.04
-1.56
-2.12
-2.73
-3.37
-4.08
-4.92
-5.89
-6.87
-7.58
-7.65
-6.77
-4.90
-2.28
0.62
3.30
5.41
6.82
7.62
8.02
8.22
8.33
8.33
8.18
7.85
7.38
6.87
6.45
6.21
6.13
6.12
6.05
5.86
5.55
5.23
4.93
4.63
4.12
3.22
1.78
-0.14
-2.30
-4.43
-6.30
-7.90
-9.36
-10.90
-12.70
-14.82
-17.21
-19.69
-22.07
-24.14
-25.75
-26.75
-27.04
-26.62
-25.59
-24.08
-22.23
-20.13
-17.78
-15.07
-11.87
-8.05
-3.56
1.54
7.05
12.69
18.08
22.85
26.72
29.55
31.34
32.26
32.56
32.42
31.91
31.00
29.61
27.69
25.33
22.75
20.24
18.04
16.23
14.71
13.24
11.58
9.58
7.23
4.57
1.68
-1.36
-4.43
-7.30
-9.60
-10.94
-11.10
-10.17
-8.59
-6.93
-5.63
-4.82
-4.33
-3.84
-3.16
-2.33
-1.54
-0.99
-0.67
-0.33
0.32
1.53
3.24
5.17
6.91
8.14
8.79
8.99
9.04
9.19
9.55
10.02
10.34
10.22
9.51
8.23
6.64
5.03
3.64
2.53
1.50
0.21
-1.63
-4.11
-7.03
-9.93
-12.29
-13.67
-13.87
-12.95
-11.16
-8.86
-6.37
-3.96
-1.85
-0.17
0.98
1.58
1.72
1.59
1.43
1.47
1.84
2.52
3.43
4.42
5.33
6.07
6.57
6.81
6.81
6.64
6.39
6.19
6.12
6.16
6.21
6.11
5.69
4.87
3.70
2.30
0.77
-0.84
-2.55
-4.42
-6.40
-8.31
-9.81
-10.53
-10.21
-8.82
-6.61
-3.97
-1.34
0.97
2.85
4.34
5.51
6.39
6.93
7.05
6.75
6.13
5.41
4.83
4.48
4.34
4.24
4.00
3.53
2.83
1.99
1.16
0.40
-0.35
-1.17
-2.17
-3.35
-4.65
-5.95
-7.20
-8.39
-9.58
-10.90
-12.45
-14.25
-16.14
-17.82
-18.94
-19.22
-18.49
-16.85
-14.68
-12.53
-10.87
-9.91
-9.56
-9.49
-9.34
-8.65
-7.22
-5.27
-3.35
-2.01
-1.53
-1.97
-2.96
-4.06
-4.30
-2.96
0.02
4.08
8.35
12.11
14.82
16.58
17.64
19.21
22.18
26.57
31.53
35.85
38.70
39.68
39.45
38.99
40.45
45.46
54.39
66.34
79.60
92.42
103.06
110.98
108.42
91.12
60.90
25.65
-5.53
-27.66
-38.27
-41.64
-41.05
-38.10
-32.04
-21.94
-9.84
1.34
8.18
7.83
-1.46
-18.93
-42.18
-67.08
-89.56
-106.36
-115.07
-112.55
-97.02
-71.31
-42.11
-17.11
-0.88
5.79
4.74
-1.00
-8.61
-16.32
-23.27
-28.32
-30.05
-27.15
-19.49
-8.45
3.60
14.11
21.51
24.62
23.75
20.26
15.86
11.89
8.93
6.96
5.63
4.41
2.87
1.21
-0.06
-0.47
0.07
1.26
2.59
3.58
3.83
2.98
1.05
-1.71
-4.99
-8.53
-12.06
-15.27
-17.85
-19.55
-20.28
-20.06
-19.00
-17.30
-15.16
-12.86
-10.58
-8.52
-6.77
-5.36
-4.26
-3.42
-2.81
-2.50
-2.59
-3.17
-4.28
-5.77
-7.35
-8.58
-9.03
-8.45
-6.91
-4.77
-2.53
-0.62
0.75
1.70
2.55
3.63
5.14
6.92
8.59
9.74
10.06
9.39
7.79
5.46
2.78
0.20
-1.97
-3.55
-4.47
-4.79
-4.64
-4.15
-3.37
-2.33
-1.08
0.07
0.70
0.50
-0.52
-2.08
-3.69
-4.93
-5.56
-4.58
-1.62
2.87
7.82
12.00
14.36
14.15
11.07
5.48
-1.53
-8.54
-14.34
-18.24
-20.33
-21.20
-21.48
-21.32
-20.27
-18.22
-14.52
-9.29
-3.28
2.56
7.47
11.25
14.09
16.22
17.59
17.75
16.09
12.29
6.62
0.11
-5.74
-9.70
-11.33
-10.83
-9.37
-8.61
-9.91
-13.84
-19.75
-25.84
-29.91
-30.07
-25.50
-16.53
-4.56
8.60
19.45
23.97
19.68
7.05
-10.53
-28.76
-43.57
-52.50
-55.14
-52.70
-46.82
-38.59
-28.40
-15.95
-1.61
13.87
29.17
42.61
52.50
57.76
58.33
55.39
52.63
52.29
56.52
66.35
80.89
97.23
111.22
118.76
114.66
99.34
75.51
47.59
20.16
-3.42
-21.55
-34.41
-43.02
-48.44
-50.93
-50.93
-48.87
-45.53
-42.19
-40.05
-39.84
-41.34
-43.53
-44.87
-44.61
-42.73
-39.87
-37.25
-35.20
-33.57
-31.73
-28.78
-23.88
-16.94
-8.39
0.96
10.06
17.82
23.08
25.00
23.31
18.75
12.76
7.12
3.28
1.76
2.09
3.11
3.70
3.37
2.41
1.46
0.98
0.96
0.96
0.44
-0.87
-2.82
-4.84
-6.29
-6.70
-6.01
-4.57
-2.97
-1.79
-1.39
-2.22
-4.54
-8.28
-12.77
-16.80
-18.98
-18.26
-14.44
-8.27
-1.15
5.52
10.80
14.30
15.96
15.74
13.46
9.01
2.61
-5.04
-12.81
-19.55
-24.38
-26.97
-27.56
-26.78
-25.48
-24.46
-24.28
-24.98
-26.11
-26.76
-25.93
-22.96
-17.79
-11.08
-3.98
2.34
7.02
9.85
11.10
11.37
11.18
10.83
10.37
9.66
8.59
7.16
5.47
3.74
2.24
1.29
1.23
2.33
4.62
7.94
11.81
15.65
18.89
21.12
22.16
21.97
20.69
18.57
15.95
13.27
10.97
9.43
8.82
9.05
9.79
10.67
11.28
11.44
11.12
10.45
9.64
8.86
8.22
7.71
7.28
6.80
6.13
5.16
3.90
2.47
1.02
-0.25
-1.24
-1.87
-2.24
-2.48
-2.79
-3.38
-4.34
-5.72
-7.38
-8.99
-10.08
-10.19
-9.10
-6.92
-4.09
-1.21
1.17
2.80
4.00
5.40
7.54
10.50
13.76
16.45
17.79
17.44
15.69
13.68
12.82
13.95
16.79
20.11
22.26
22.07
19.27
14.64
10.14
7.94
9.25
13.53
18.91
22.83
23.34
19.56
11.92
2.69
-4.84
-7.55
-3.60
7.46
24.19
43.69
61.77
69.79
60.26
31.67
-8.62
-47.87
-74.31
-82.63
-74.19
-55.28
-34.19
-17.01
-6.13
-0.74
1.70
5.79
13.48
25.39
40.77
56.96
71.22
80.97
84.07
75.47
56.21
30.26
2.22
-24.47
-48.92
-70.82
-88.69
-100.65
-105.74
-103.87
-96.50
-86.15
-71.85
-55.57
-38.80
-22.06
-5.06
12.38
30.36
48.87
67.00
83.40
96.28
105.43
111.76
116.70
121.04
120.83
114.39
101.19
81.95
57.78
31.77
5.70
-18.07
-37.57
-51.88
-61.26
-68.12
-72.98
-77.96
-84.42
-92.49
-100.87
-107.65
-110.92
-108.84
-100.69
-86.69
-68.40
-47.57
-26.18
-5.97
11.49
25.05
34.45
39.94
42.18
41.66
39.06
34.98
29.99
24.42
18.39
12.08
5.67
-0.58
-6.52
-11.89
-16.41
-19.80
-21.82
-22.36
-21.32
-18.71
-14.70
-9.68
-4.12
1.46
6.59
10.85
13.95
15.69
16.07
15.22
13.41
11.03
8.52
6.21
4.31
2.80
1.52
0.24
-1.22
-2.91
-4.72
-6.43
-7.78
-8.51
-8.41
-7.34
-5.27
-2.25
1.53
5.75
10.01
13.87
16.99
19.15
20.27
20.39
19.64
18.19
16.28
14.14
12.00
9.99
8.12
6.29
4.37
2.30
0.17
-1.71
-2.97
-3.36
-2.84
-1.67
-0.34
0.67
1.01
0.60
-0.46
-1.98
-3.81
-5.90
-8.26
-10.82
-13.41
-15.75
-17.60
-18.86
-19.60
-20.07
-20.56
-21.30
-22.43
-23.96
-25.82
-27.89
-30.02
-32.02
-33.76
-35.12
-36.12
-36.75
-36.93
-36.44
-35.01
-32.38
-28.38
-23.10
-16.80
-9.97
-3.07
3.59
9.85
15.65
20.87
25.30
28.68
30.85
31.80
31.81
31.46
31.33
31.70
32.39
32.94
32.79
31.63
29.19
25.71
21.93
18.70
16.57
15.55
15.18
14.67
13.26
9.78
3.82
-3.97
-12.22
-19.51
-25.05
-28.78
-31.45
-34.29
-39.68
-49.06
-62.16
-77.20
-91.83
-103.93
-111.96
-115.16
-113.60
-109.34
-104.26
-99.12
-93.82
-88.09
-81.83
-74.76
-66.37
-48.34
-18.49
18.06
51.99
76.11
88.16
89.82
84.57
75.93
66.50
56.36
44.50
31.62
19.58
10.14
4.19
1.93
2.99
6.54
10.43
12.87
12.89
11.09
8.13
3.62
-2.15
-7.30
-8.74
-4.44
5.98
20.93
37.46
51.93
61.29
64.18
60.97
53.18
42.56
31.07
20.71
13.38
10.14
10.98
15.25
21.99
30.19
38.82
47.58
55.34
61.11
63.98
63.15
58.44
50.27
39.76
28.76
19.64
14.71
14.96
20.51
28.81
36.00
38.53
34.65
24.98
11.93
-1.74
-13.74
-22.81
-28.73
-31.78
-32.64
-32.38
-32.34
-33.62
-36.63
-40.64
-44.16
-45.93
-45.42
-43.09
-39.94
-36.90
-34.34
-32.18
-30.17
-28.25
-27.02
-26.45
-26.33
-26.02
-24.69
-21.70
-16.90
-10.67
-3.85
2.50
7.57
10.88
12.42
12.61
12.06
11.31
10.70
10.25
9.72
8.85
7.43
5.47
3.16
0.75
-1.55
-3.62
-5.38
-6.76
-7.54
-7.49
-6.47
-4.58
-2.21
0.08
1.79
2.60
2.48
1.65
0.40
-0.99
-2.36
-3.58
-4.80
-5.92
-6.77
-7.18
-7.12
-6.73
-6.27
-6.00
-6.09
-6.54
-7.18
-7.81
-8.32
-8.74
-9.18
-9.76
-10.51
-11.43
-12.44
-13.53
-14.69
-15.96
-17.30
-18.45
-19.07
-18.71
-17.08
-14.12
-10.05
-5.32
-0.55
3.70
7.01
9.14
10.10
10.02
9.16
7.77
6.05
4.16
2.25
0.52
-0.88
-1.88
-2.52
-3.00
-3.50
-4.15
-4.89
-5.56
-5.99
-6.17
-6.30
-6.73
-7.78
-9.63
-12.17
-15.07
-17.82
-19.86
-20.63
-19.75
-17.11
-12.91
-7.60
-1.75
4.11
9.54
14.28
18.28
21.60
24.32
26.47
28.03
29.03
29.49
29.48
29.04
28.42
27.80
27.34
27.02
26.78
26.53
26.24
25.87
25.40
25.15
25.33
25.84
26.22
25.92
24.63
22.32
19.24
15.75
13.07
12.26
13.80
17.29
21.88
26.78
31.33
35.08
37.89
41.11
46.10
53.32
61.86
70.09
76.57
80.51
81.70
80.50
79.23
80.19
84.77
93.04
104.41
117.98
132.14
143.88
139.57
109.86
55.16
-13.12
-79.76
-133.71
-170.50
-190.42
-196.01
-190.08
-173.79
-148.96
-119.60
-91.68
-70.73
-59.15
-54.46
-51.86
-45.91
-31.56
-7.13
24.74
57.88
84.98
99.80
98.60
80.52
47.79
5.89
-38.28
-78.22
-109.58
-129.40
-136.13
-130.39
-114.90
-93.17
-68.15
-41.90
-15.91
8.61
30.67
49.32
63.99
74.00
78.62
77.40
70.61
59.43
46.10
33.60
24.73
21.63
24.54
31.79
40.58
48.32
53.19
54.43
52.14
44.03
30.28
13.57
-2.31
-14.76
-22.87
-27.39
-30.05
-32.65
-36.55
-41.73
-47.28
-51.85
-55.21
-56.27
-54.45
-50.12
-44.13
-37.82
-32.09
-27.59
-24.56
-23.06
-22.75
-23.36
-25.33
-28.63
-34.04
-42.40
-54.41
-68.10
-80.21
-86.28
-82.28
-66.66
-40.67
-8.12
25.68
55.31
76.72
87.98
89.63
85.89
79.18
71.60
65.19
61.74
62.27
66.77
73.61
77.56
74.63
62.41
40.92
12.98
-17.09
-44.92
-67.41
-83.29
-92.80
-98.39
-100.68
-100.11
-96.68
-90.54
-82.14
-72.16
-61.38
-50.37
-39.06
-25.80
-11.24
3.91
18.59
31.67
41.41
46.27
45.89
41.56
35.81
29.78
25.32
23.46
23.93
25.66
27.49
28.76
29.33
29.43
28.88
27.74
25.96
23.55
20.80
18.24
16.52
16.06
16.89
18.43
20.14
21.41
21.87
21.47
20.52
19.54
18.96
18.98
19.46
20.19
20.81
20.97
20.47
19.28
17.57
15.57
13.50
11.43
9.36
7.16
4.74
2.12
-0.50
-2.82
-4.66
-6.08
-7.34
-8.72
-10.26
-11.74
-12.69
-12.71
-11.67
-9.86
-7.77
-5.90
-4.49
-3.48
-2.66
-1.84
-1.02
-0.31
0.14
0.25
0.08
-0.23
-0.55
-0.83
-1.11
-1.45
-1.85
-2.20
-2.36
-2.22
-1.78
-1.18
-0.62
-0.30
-0.29
-0.62
-1.26
-2.19
-3.40
-4.86
-6.39
-7.75
-8.70
-9.15
-9.18
-9.04
-9.00
-9.22
-9.71
-10.34
-10.98
-11.51
-11.84
-11.90
-11.62
-10.93
-9.80
-8.28
-6.49
-4.59
-2.75
-1.09
0.33
1.51
2.50
3.31
3.94
4.28
4.25
3.78
2.97
2.03
1.28
0.97
1.23
1.98
2.98
3.88
4.40
4.39
3.87
2.99
1.96
0.95
0.08
-0.66
-1.34
-2.13
-3.15
-4.43
-5.86
-7.23
-8.28
-8.78
-8.70
-8.17
-7.44
-6.72
-6.16
-5.77
-5.44
-5.04
-4.45
-3.60
-2.50
-1.22
0.05
1.16
1.92
2.25
2.14
1.72
1.13
0.52
-0.00
-0.36
-0.48
-0.29
0.27
1.19
2.35
3.55
4.58
5.24
5.46
5.33
5.02
4.72
4.48
4.28
3.99
3.52
2.86
2.07
1.26
0.54
-0.07
-0.60
-1.13
-1.72
-2.44
-3.30
-4.25
-5.21
-6.12
-6.95
-7.76
-8.65
-9.65
-10.66
-11.48
-11.85
-11.58
-10.66
-9.21
-7.45
-5.51
-3.47
-1.35
0.80
2.80
4.40
5.38
5.61
5.14
4.19
3.01
1.84
0.86
0.16
-0.14
-0.03
0.43
1.06
1.56
1.62
1.15
0.28
-0.68
-1.42
-1.77
-1.82
-1.83
-2.11
-2.81
-3.78
-4.67
-5.26
-5.52
-5.68
-6.07
-6.89
-8.20
-9.78
-11.31
-12.54
-13.53
-14.51
-15.74
-17.30
-18.98
-20.71
-22.24
-23.22
-23.36
-22.57
-21.01
-19.06
-17.16
-15.74
-15.71
-17.47
-20.65
-24.39
-27.81
-30.39
-32.03
-32.98
-33.76
-35.86
-40.09
-46.05
-52.31
-57.17
-59.29
-58.31
-54.88
-50.57
-48.43
-50.15
-55.13
-60.77
-63.86
-62.24
-55.63
-45.37
-26.15
2.12
34.19
61.87
78.61
81.56
71.27
51.25
27.85
8.82
-0.33
3.04
18.00
40.44
64.91
86.72
102.79
112.28
115.80
113.68
106.74
96.96
85.76
74.96
66.70
61.79
59.48
57.48
52.15
40.74
22.64
-0.14
-23.41
-42.14
-54.55
-62.88
-71.82
-85.42
-103.86
-122.44
-133.20
-128.01
-97.59
-41.70
30.95
105.79
167.31
203.93
210.65
189.56
142.48
80.91
21.29
-23.22
-48.85
-59.52
-61.16
-57.89
-51.37
-42.03
-29.86
-17.06
-7.11
-2.47
-3.19
-7.07
-11.09
-12.96
-11.79
-7.27
-0.76
5.45
9.64
11.31
11.07
9.93
8.74
8.11
8.85
11.03
13.40
14.98
14.62
11.47
5.14
-4.47
-17.16
-32.54
-49.16
-66.02
-80.06
-86.59
-81.15
-62.14
-32.63
0.25
28.15
45.05
49.53
44.89
36.59
28.99
23.47
18.69
12.47
3.66
-7.10
-18.23
-28.13
-36.20
-42.65
-47.94
-52.36
-55.57
-56.89
-55.68
-51.52
-44.33
-34.92
-24.07
-13.42
-4.80
0.64
2.98
3.64
4.71
7.95
13.87
21.52
28.94
34.28
36.78
37.10
36.69
36.92
38.32
40.35
41.80
41.41
38.59
33.65
27.65
21.84
17.23
14.17
12.29
10.81
8.96
6.38
3.31
0.31
-2.01
-3.35
-3.77
-3.52
-2.89
-2.15
-1.40
-0.74
-0.35
-0.41
-1.04
-2.07
-3.13
-3.74
-3.58
-2.61
-1.10
0.55
2.00
2.82
2.95
2.61
2.12
1.71
1.46
1.24
0.85
0.08
-1.16
-2.77
-4.56
-6.25
-7.57
-8.24
-8.11
-7.16
-5.47
-3.29
-0.84
1.60
3.78
5.42
6.31
6.34
5.62
4.44
3.20
2.26
1.81
1.78
1.96
2.18
2.41
2.72
3.20
3.85
4.50
4.97
5.19
5.23
5.34
5.75
6.51
7.52
8.53
9.34
9.86
10.11
10.18
10.13
9.94
9.58
9.02
8.24
7.32
6.38
5.54
4.93
4.59
4.51
4.59
4.74
4.82
4.73
4.37
3.64
2.56
1.24
-0.05
-0.99
-1.32
-0.97
-0.10
0.94
1.82
2.40
2.82
3.45
4.60
6.34
8.30
9.89
10.49
9.86
8.20
6.13
4.40
3.54
3.66
4.40
5.21
5.62
5.56
5.33
5.41
6.17
7.68
9.59
11.39
12.52
12.57
11.26
8.50
4.37
-0.59
-5.28
-7.98
-6.86
-0.58
10.91
26.08
42.16
56.03
65.28
68.76
66.62
59.70
48.85
34.60
17.27
-2.50
-23.41
-43.53
-60.84
-73.81
-81.94
-85.71
-86.20
-84.49
-81.25
-76.71
-70.89
-63.88
-56.00
-47.77
-39.76
-32.36
-25.69
-19.59
-13.70
-7.65
-1.18
5.68
12.61
19.02
24.31
28.05
30.18
31.03
31.15
30.97
30.68
30.07
28.80
26.60
23.52
19.99
16.58
13.80
11.88
10.74
10.07
9.58
9.12
8.72
8.44
8.31
8.17
7.79
6.94
5.55
3.72
1.70
-0.30
-2.14
-3.86
-5.59
-7.50
-9.65
-11.96
-14.26
-16.32
-18.02
-19.33
-20.37
-21.22
-21.94
-22.50
-22.82
-22.88
-22.75
-22.57
-22.42
-22.32
-22.26
-22.13
-21.92
-21.64
-21.25
-20.68
-19.78
-18.41
-16.55
-14.37
-12.12
-10.11
-8.52
-7.38
-6.61
-6.13
-5.93
-6.07
-6.63
-7.58
-8.77
-9.96
-10.87
-11.27
-11.05
-10.26
-9.09
-7.85
-6.88
-6.43
-6.55
-7.08
-7.65
-7.88
-7.53
-6.63
-5.42
-4.24
-3.37
-2.86
-2.58
-2.35
-2.05
-1.71
-1.47
-1.44
-1.62
-1.77
-1.50
-0.38
1.82
5.10
9.13
13.41
17.43
20.82
23.44
25.29
26.46
27.00
26.92
26.26
25.10
23.64
22.12
20.76
19.69
18.95
18.45
18.11
17.81
17.48
17.05
16.44
15.66
14.72
13.71
12.71
11.71
10.63
9.31
7.57
5.26
2.36
-1.09
-4.97
-9.07
-13.10
-16.71
-19.51
-21.21
-21.72
-21.16
-19.86
-18.22
-16.61
-15.27
-14.29
-13.66
-13.23
-12.84
-12.33
-11.56
-10.51
-9.27
-7.99
-6.84
-5.96
-5.34
-4.93
-4.64
-4.43
-4.25
-4.09
-3.93
-3.73
-3.51
-3.32
-3.19
-3.17
-3.19
-3.15
-3.01
-2.81
-2.71
-2.94
-3.65
-4.85
-6.35
-7.88
-9.14
-9.89
-10.00
-9.41
-8.19
-6.49
-4.50
-2.47
-0.57
1.13
2.67
4.11
5.49
6.70
7.62
8.12
8.19
7.94
7.53
7.10
6.69
6.26
5.76
5.25
4.81
4.59
4.65
4.90
5.14
5.19
4.92
4.35
3.63
2.90
2.24
1.64
0.98
0.17
-0.80
-1.86
-2.87
-3.72
-4.34
-4.82
-5.26
-5.76
-6.32
-6.77
-6.89
-6.44
-5.35
-3.67
-1.61
0.54
2.57
4.32
5.71
6.71
7.30
7.48
7.31
6.90
6.40
5.96
5.66
5.50
5.45
5.42
5.34
5.20
4.96
4.64
4.23
3.73
3.14
2.51
1.87
1.26
0.72
0.23
-0.21
-0.66
-1.12
-1.60
-2.13
-2.72
-3.41
-4.18
-5.01
-5.84
-6.68
-7.62
-8.75
-10.20
-11.91
-13.63
-14.91
-15.34
-14.67
-13.01
-10.80
-8.60
-6.88
-5.76
-5.04
-4.42
-3.67
-2.85
-2.23
-2.14
-2.74
-3.86
-5.11
-6.04
-6.41
-6.25
-5.84
-5.44
-5.17
-4.86
-4.10
-2.47
0.25
3.96
8.22
12.48
16.28
19.43
22.00
24.31
26.72
29.51
32.78
36.41
39.89
42.36
42.71
39.92
33.53
23.89
12.25
0.30
-10.33
-18.60
-24.27
-27.76
-29.88
-31.39
-32.77
-33.94
-34.35
-33.13
-29.55
-23.52
-15.95
-8.57
-3.27
-1.17
-1.99
-4.14
-5.50
-4.62
-1.39
2.91
6.47
7.95
7.20
5.18
3.40
2.93
3.86
5.35
6.15
5.38
3.01
-0.07
-2.57
-3.54
-2.90
-1.49
-0.74
-1.92
-5.56
-11.23
-17.70
-23.45
-27.21
-28.27
-26.56
-22.56
-17.14
-11.43
-6.62
-3.69
-3.11
-4.64
-7.30
-9.72
-10.67
-9.52
-6.50
-2.53
1.30
4.30
6.33
7.80
9.22
10.82
12.44
13.68
14.22
14.04
13.52
13.16
13.43
14.54
16.53
19.33
22.84
26.95
31.38
35.67
39.13
41.01
40.64
37.60
31.91
24.07
15.04
6.03
-1.75
-7.53
-11.21
-13.45
-15.46
-18.54
-23.61
-30.90
-39.95
-49.77
-59.14
-66.75
-71.40
-72.12
-68.41
-60.51
-49.47
-36.85
-24.19
-12.39
-1.41
9.50
21.15
33.64
46.04
56.77
64.35
68.12
68.51
66.61
63.55
59.94
55.87
51.22
46.06
40.84
36.12
32.22
28.94
25.65
21.67
16.57
10.34
3.30
-4.15
-11.63
-18.78
-25.21
-30.46
-34.09
-35.81
-35.62
-33.82
-30.94
-27.67
-24.80
-23.13
-23.37
-25.94
-30.82
-37.38
-44.46
-50.54
-54.16
-54.41
-51.29
-45.77
-39.59
-34.63
-32.34
-33.35
-37.36
-43.49
-50.61
-57.61
-63.57
-67.77
-69.74
-69.32
-66.91
-63.52
-60.60
-59.75
-62.18
-68.40
-78.24
-91.07
-106.31
-123.57
-142.43
-161.71
-179.12
-191.17
-194.01
-184.79
-162.72
-129.41
-88.22
-43.13
2.29
45.25
83.69
116.03
141.19
158.92
170.00
176.04
178.89
179.86
179.18
176.21
170.06
160.38
147.83
134.11
121.45
111.89
106.60
105.52
107.46
110.54
112.90
113.30
111.34
107.35
102.00
95.91
89.47
82.87
76.23
69.75
63.68
58.25
53.57
49.55
45.94
42.47
38.94
35.34
31.80
28.55
25.74
23.36
21.23
19.08
16.68
13.96
11.01
7.99
5.09
2.35
-0.30
-2.94
-5.64
-8.27
-10.56
-12.18
-12.90
-12.75
-12.09
-11.49
-11.58
-12.79
-15.22
-18.62
-22.48
-26.23
-29.39
-31.70
-33.06
-33.47
-32.99
-31.64
-29.48
-26.63
-23.27
-19.64
-16.02
-12.71
-9.98
-8.17
-7.57
-8.43
-10.75
-14.28
-18.51
-22.78
-26.61
-29.77
-32.40
-34.84
-37.40
-40.20
-43.08
-45.79
-48.11
-50.07
-51.96
-54.25
-57.39
-61.62
-66.87
-72.69
-78.39
-83.15
-86.29
-87.40
-86.57
-84.33
-81.55
-79.22
-78.23
-79.12
-81.92
-86.06
-90.35
-93.20
-93.01
-88.72
-80.25
-68.63
-55.69
-43.29
-32.66
-23.90
-16.20
-8.36
0.51
10.67
21.79
33.40
45.24
57.34
69.82
82.50
94.69
105.30
113.24
117.94
119.56
118.95
117.23
115.40
113.92
112.74
111.48
109.72
107.29
104.24
100.84
97.40
94.27
91.85
90.60
90.99
93.27
97.36
102.59
107.93
112.17
114.42
114.35
112.26
108.84
104.82
100.72
96.77
93.08
89.87
87.58
86.72
87.59
89.94
92.98
95.54
96.58
95.57
92.64
88.41
83.59
78.68
73.67
68.16
61.51
53.09
42.58
29.99
15.78
0.76
-14.05
-27.74
-39.74
-50.11
-59.58
-69.24
-80.01
-91.98
-104.11
-114.45
-120.97
-122.57
-119.65
-114.07
-108.21
-103.95
-101.81
-100.81
-99.20
-95.49
-89.46
-82.46
-76.98
-75.48
-79.20
-87.38
-97.47
-105.97
-109.78
-107.26
-98.60
-85.31
-69.29
-52.05
-34.41
-16.85
0.03
15.23
27.48
35.87
40.20
41.16
39.96
37.89
35.78
33.94
32.20
30.25
27.86
25.08
22.09
19.16
16.57
14.53
13.14
12.38
12.01
11.67
10.98
9.68
7.82
5.73
3.84
2.49
1.72
1.31
0.92
0.29
-0.67
-1.82
-2.95
-3.89
-4.56
-5.01
-5.30
-5.50
-5.68
-5.87
-6.11
-6.41
-6.75
-7.09
-7.43
-7.80
-8.24
-8.73
-9.19
-9.45
-9.36
-8.90
-8.21
-7.57
-7.21
-7.24
-7.57
-7.98
-8.28
-8.39
-8.36
-8.24
-8.09
-7.87
-7.55
-7.12
-6.66
-6.30
-6.11
-6.07
-6.11
-6.12
-6.05
-5.91
-5.77
-5.71
-5.77
-5.94
-6.21
-6.53
-6.89
-7.23
-7.52
-7.67
-7.67
-7.51
-7.25
-7.01
-6.88
-6.91
-7.09
-7.34
-7.59
-7.77
-7.88
-7.94
-7.99
-8.07
-8.21
-8.42
-8.70
-9.05
-9.41
-9.68
-9.72
-9.41
-8.65
-7.53
-6.20
-4.84
-3.62
-2.56
-1.63
-0.78
-0.03
0.51
0.71
0.50
-0.06
-0.77
-1.40
-1.79
-1.92
-1.90
-1.85
-1.88
-2.02
-2.26
-2.58
-3.03
-3.63
-4.41
-5.34
-6.33
-7.24
-7.99
-8.53
-8.90
-9.18
-9.43
-9.66
-9.84
-9.94
-9.98
-10.03
-10.13
-10.23
-10.22
-9.91
-9.18
-8.03
-6.62
-5.14
-3.75
-2.47
-1.25
0.02
1.38
2.72
3.85
4.58
4.81
4.59
4.07
3.45
2.86
2.39
2.03
1.73
1.48
1.29
1.19
1.27
1.57
2.11
2.85
3.69
4.47
5.01
5.24
5.13
4.77
4.25
3.67
3.05
2.45
1.97
1.70
1.72
1.99
2.37
2.66
2.75
2.62
2.36
2.10
1.88
1.67
1.43
1.14
0.89
0.82
0.98
1.29
1.56
1.52
1.07
0.23
-0.78
-1.72
-2.42
-2.84
-3.10
-3.30
-3.51
-3.71
-3.83
-3.84
-3.72
-3.53
-3.32
-3.15
-3.05
-3.06
-3.19
-3.46
-3.84
-4.28
-4.74
-5.19
-5.62
-6.02
-6.31
-6.47
-6.49
-6.44
-6.44
-6.60
-6.91
-7.30
-7.65
-7.84
-7.82
-7.62
-7.25
-6.71
-5.95
-4.92
-3.65
-2.27
-0.96
0.07
0.68
0.83
0.60
0.17
-0.22
-0.40
-0.27
0.15
0.69
1.19
1.46
1.46
1.22
0.89
0.65
0.59
0.68
0.81
0.84
0.62
0.15
-0.53
-1.32
-2.14
-2.93
-3.66
-4.33
-4.90
-5.35
-5.68
-5.94
-6.25
-6.68
-7.30
-8.04
-8.79
-9.37
-9.63
-9.44
-8.74
-7.55
-5.98
-4.23
-2.49
-0.96
0.26
1.17
1.81
2.21
2.40
2.40
2.23
1.95
1.69
1.56
1.65
1.99
2.54
3.14
3.67
3.96
3.94
3.65
3.16
2.60
2.10
1.73
1.53
1.52
1.63
1.76
1.80
1.62
1.21
0.62
-0.01
-0.58
-1.07
-1.55
-2.15
-2.90
-3.79
-4.68
-5.46
-6.03
-6.35
-6.35
-5.99
-5.22
-4.04
-2.57
-0.97
0.53
1.78
2.65
3.10
3.15
2.91
2.54
2.19
2.00
1.99
2.08
2.17
2.22
2.32
2.55
2.98
3.51
3.93
4.03
3.76
3.26
2.77
2.51
2.55
2.76
2.92
2.86
2.55
2.09
1.65
1.32
1.08
0.82
0.43
-0.14
-0.84
-1.54
-2.14
-2.59
-2.86
-2.94
-2.77
-2.32
-1.60
-0.73
0.14
0.89
1.48
1.95
2.39
2.77
3.02
3.04
2.77
2.30
1.80
1.44
1.30
1.36
1.48
1.58
1.63
1.64
1.66
1.71
1.72
1.61
1.29
0.75
0.08
-0.56
-1.03
-1.23
-1.18
-0.99
-0.80
-0.75
-0.90
-1.23
-1.69
-2.26
-2.91
-3.62
-4.39
-5.17
-5.83
-6.23
-6.21
-5.66
-4.64
-3.30
-1.91
-0.74
0.03
0.41
0.54
0.61
0.75
0.98
1.21
1.31
1.22
0.96
0.64
0.38
0.23
0.18
0.17
0.11
-0.05
-0.29
-0.60
-0.91
-1.16
-1.29
-1.27
-1.07
-0.75
-0.40
-0.16
-0.13
-0.33
-0.67
-0.98
-1.14
-1.08
-0.89
-0.71
-0.69
-0.89
-1.28
-1.73
-2.10
-2.24
-2.06
-1.48
-0.48
0.88
2.40
3.88
5.09
5.89
6.30
6.40
6.31
6.11
5.84
5.52
5.20
4.91
4.67
4.47
4.28
4.07
3.86
3.74
3.77
3.98
4.29
4.55
4.60
4.30
3.64
2.66
1.53
0.38
-0.62
-1.39
-1.91
-2.23
-2.46
-2.71
-3.07
-3.56
-4.14
-4.73
-5.26
-5.75
-6.24
-6.76
-7.23
-7.48
-7.28
-6.49
-5.14
-3.43
-1.73
-0.34
0.62
1.21
1.64
2.10
2.64
3.21
3.63
3.78
3.65
3.33
3.01
2.85
2.94
3.26
3.73
4.21
4.64
4.96
5.16
5.20
5.09
4.81
4.39
3.91
3.48
3.22
3.16
3.25
3.35
3.35
3.12
2.66
2.01
1.27
0.54
-0.07
-0.53
-0.92
-1.38
-2.07
-3.08
-4.31
-5.53
-6.36
-6.52
-5.89
-4.60
-2.95
-1.28
0.17
1.34
2.20
2.81
3.16
3.25
3.09
2.77
2.45
2.24
2.19
2.23
2.21
2.02
1.69
1.38
1.29
1.57
2.18
2.96
3.64
3.98
3.86
3.34
2.53
1.61
0.75
0.04
-0.46
-0.77
-0.91
-0.97
-0.98
-1.01
-1.09
-1.29
-1.68
-2.33
-3.24
-4.37
-5.55
-6.58
-7.26
-7.49
-7.23
-6.56
-5.57
-4.40
-3.15
-1.94
-0.84
0.09
0.85
1.46
1.92
2.24
2.42
2.43
2.28
2.01
1.65
1.27
0.95
0.74
0.69
0.81
1.07
1.43
1.82
2.19
2.50
2.70
2.76
2.68
2.43
2.00
1.42
0.75
0.08
-0.50
-0.97
-1.39
-1.83
-2.38
-3.03
-3.72
-4.33
-4.80
-5.12
-5.36
-5.54
-5.61
-5.43
-4.87
-3.88
-2.58
-1.17
0.10
1.10
1.80
2.28
2.60
2.82
2.94
2.93
2.79
2.56
2.28
2.01
1.76
1.55
1.34
1.16
1.00
0.91
0.91
0.98
1.07
1.09
0.99
0.70
0.21
-0.44
-1.19
-1.94
-2.60
-3.13
-3.55
-3.96
-4.48
-5.16
-5.94
-6.65
-7.09
-7.13
-6.76
-6.11
-5.30
-4.41
-3.45
-2.40
-1.30
-0.24
0.62
1.24
1.61
1.83
2.02
2.25
2.54
2.89
3.24
3.57
3.86
4.08
4.25
4.37
4.48
4.57
4.64
4.68
4.69
4.66
4.56
4.34
3.90
3.24
2.39
1.47
0.61
-0.11
-0.73
-1.36
-2.11
-3.02
-4.06
-5.10
-6.04
-6.80
-7.28
-7.45
-7.24
-6.66
-5.78
-4.67
-3.40
-1.99
-0.39
1.39
3.27
5.06
6.48
7.31
7.49
7.16
6.58
6.08
5.87
6.05
6.60
7.39
8.22
8.91
9.29
9.28
8.88
8.15
7.25
6.32
5.49
4.82
4.28
3.79
3.26
2.61
1.80
0.88
-0.07
-0.93
-1.67
-2.32
-2.98
-3.76
-4.72
-5.85
-7.02
-8.07
-8.82
-9.09
-8.81
-7.94
-6.55
-4.78
-2.82
-0.89
0.79
2.09
2.96
3.42
3.56
3.49
3.31
3.08
2.86
2.69
2.59
2.60
2.75
3.04
3.45
3.90
4.32
4.60
4.66
4.44
3.96
3.25
2.38
1.44
0.46
-0.54
-1.53
-2.49
-3.41
-4.25
-5.03
-5.80
-6.62
-7.55
-8.57
-9.60
-10.48
-11.09
-11.35
-11.25
-10.85
-10.20
-9.37
-8.37
-7.20
-5.89
-4.51
-3.15
-1.89
-0.83
-0.02
0.50
0.73
0.74
0.67
0.71
1.00
1.56
2.31
3.06
3.63
4.00
4.24
4.50
4.82
5.16
5.34
5.18
4.62
3.73
2.70
1.71
0.87
0.17
-0.40
-0.81
-1.02
-1.00
-0.90
-0.95
-1.44
-2.47
-3.90
-5.38
-6.50
-7.02
-6.90
-6.28
-5.32
-4.11
-2.68
-1.10
0.46
1.77
2.61
2.94
2.86
2.62
2.42
2.38
2.52
2.83
3.26
3.78
4.34
4.83
5.15
5.26
5.18
5.03
4.89
4.80
4.70
4.48
4.08
3.48
2.76
2.00
1.24
0.43
-0.51
-1.61
-2.86
-4.17
-5.49
-6.75
-7.96
-9.13
-10.21
-11.12
-11.68
-11.73
-11.18
-10.04
-8.43
-6.60
-4.74
-3.03
-1.56
-0.33
0.65
1.39
1.86
2.03
1.94
1.66
1.38
1.28
1.50
2.04
2.77
3.53
4.15
4.53
4.65
4.55
4.32
4.06
3.87
3.76
3.71
3.62
3.39
2.97
2.39
1.73
1.10
0.55
0.05
-0.50
-1.19
-2.03
-2.99
-3.99
-4.96
-5.86
-6.63
-7.20
-7.45
-7.25
-6.56
-5.42
-3.97
-2.42
-0.97
0.26
1.21
1.93
2.47
2.90
3.28
3.65
4.04
4.48
4.93
5.35
5.63
5.71
5.59
5.33
5.08
4.96
5.01
5.18
5.35
5.42
5.34
5.15
4.87
4.48
3.91
3.13
2.19
1.27
0.56
0.13
-0.08
-0.28
-0.68
-1.36
-2.26
-3.23
-4.14
-4.96
-5.70
-6.34
-6.80
-6.91
-6.54
-5.66
-4.34
-2.78
-1.14
0.43
1.83
2.95
3.72
4.08
4.08
3.82
3.45
3.14
3.01
3.11
3.44
3.94
4.56
5.23
5.86
6.37
6.63
6.58
6.22
5.62
4.92
4.18
3.43
2.60
1.60
0.48
-0.61
-1.46
-1.91
-1.97
-1.86
-1.92
-2.39
-3.33
-4.57
-5.84
-6.86
-7.47
-7.61
-7.33
-6.68
-5.71
-4.50
-3.12
-1.67
-0.25
1.06
2.19
3.09
3.75
4.22
4.52
4.71
4.79
4.71
4.47
4.07
3.60
3.15
2.81
2.64
2.66
2.84
3.14
3.49
3.75
3.77
3.38
2.56
1.37
0.03
-1.20
-2.13
-2.70
-3.03
-3.30
-3.70
-4.33
-5.18
-6.13
-7.03
-7.73
-8.12
-8.10
-7.63
-6.69
-5.38
-3.89
-2.43
-1.18
-0.23
0.49
1.08
1.64
2.17
2.60
2.87
2.96
2.95
2.94
3.06
3.35
3.78
4.25
4.64
4.86
4.87
4.70
4.38
4.00
3.58
3.14
2.69
2.22
1.74
1.26
0.78
0.27
-0.29
-0.92
-1.65
-2.50
-3.46
-4.51
-5.58
-6.53
-7.20
-7.41
-7.06
-6.11
-4.64
-2.78
-0.70
1.45
3.54
5.48
7.21
8.70
9.95
10.93
11.63
12.03
12.14
12.05
11.86
11.70
11.64
11.64
11.59
11.30
10.68
9.65
8.29
6.69
4.97
3.25
1.61
0.17
-0.99
-1.78
-2.20
-2.38
-2.51
-2.79
-3.32
-4.04
-4.77
-5.30
-5.50
-5.41
-5.17
-4.92
-4.78
-4.70
-4.59
-4.29
-3.69
-2.75
-1.49
0.05
1.79
3.63
5.49
7.29
8.99
10.61
12.13
13.58
14.92
16.13
17.21
18.26
19.43
20.85
22.56
24.39
25.98
26.91
26.86
25.75
23.80
21.31
18.54
15.50
11.95
7.52
1.89
-5.08
-13.25
-22.17
-31.25
-39.84
-47.44
-53.87
-59.26
-64.06
-68.90
-74.48
-81.34
-89.59
-98.71
-107.44
-113.95
-116.27
-112.88
-103.31
-88.32
-69.66
-49.45
-29.48
-10.86
6.03
21.27
35.13
47.83
59.54
70.43
80.73
90.65
100.22
109.17
116.87
122.52
125.01
123.19
116.18
103.65
86.08
64.67
41.13
17.37
-4.66
-23.50
-38.25
-48.57
-54.64
-56.95
-56.22
-53.20
-48.64
-42.79
-35.21
-25.95
-15.74
-5.52
4.10
12.67
19.58
23.92
26.25
27.45
29.39
34.25
43.75
58.38
76.93
96.69
111.04
114.21
103.14
79.59
48.99
17.72
-9.40
-30.38
-45.59
-56.34
-63.15
-67.49
-68.51
-65.65
-59.61
-51.91
-44.20
-37.73
-33.05
-29.89
-28.06
-27.68
-28.73
-32.27
-39.02
-48.76
-60.24
-71.86
-82.02
-89.85
-94.92
-97.33
-97.16
-94.02
-87.47
-77.62
-65.52
-52.70
-40.56
-29.42
-18.64
-7.14
6.01
20.69
35.51
48.35
57.30
61.41
61.05
57.31
51.44
44.54
37.31
30.29
23.93
18.85
15.59
14.58
15.69
18.21
21.04
23.05
23.39
21.62
17.97
12.91
7.02
0.62
-6.11
-12.78
-18.62
-22.58
-23.89
-22.04
-17.30
-10.45
-2.59
5.34
12.95
20.16
27.16
33.97
41.10
47.75
53.28
57.23
59.38
59.86
58.60
57.69
56.77
55.50
53.97
52.94
53.53
55.72
60.03
66.69
75.31
84.26
91.38
94.13
90.50
79.70
62.79
42.71
23.20
7.52
-2.82
-8.01
-9.62
-9.69
-9.96
-11.50
-14.57
-19.08
-24.72
-31.03
-36.96
-41.19
-42.45
-40.10
-34.40
-26.29
-16.99
-7.47
1.63
9.72
15.82
18.65
17.04
10.78
1.24
-9.02
-16.96
-20.49
-19.48
-15.80
-12.27
-11.46
-14.71
-21.80
-31.57
-42.23
-52.31
-61.32
-69.83
-78.97
-89.89
-103.42
-119.44
-137.35
-155.56
-172.24
-186.14
-196.71
-203.34
-205.03
-200.53
-188.47
-168.53
-140.83
-106.15
-65.83
-21.70
24.50
70.15
111.06
143.63
160.53
157.20
136.40
107.48
80.39
61.44
51.12
43.95
36.02
25.55
13.68
2.49
-6.62
-14.11
-20.79
-26.04
-30.31
-34.14
-38.15
-39.66
-36.68
-28.43
-19.38
-10.79
-2.64
7.37
21.74
42.76
72.33
110.40
154.38
196.85
229.25
244.27
238.88
215.23
178.59
135.36
91.43
52.54
19.49
-6.87
-26.27
-39.35
-47.43
-51.94
-54.06
-53.20
-49.70
-44.61
-38.29
-31.13
-23.52
-15.86
-8.59
-2.29
2.25
3.94
1.84
-3.66
-11.34
-19.51
-26.56
-31.61
-34.87
-37.46
-40.98
-46.38
-53.13
-59.77
-64.76
-67.38
-68.19
-68.59
-70.01
-73.01
-77.04
-80.81
-83.22
-83.84
-82.72
-79.88
-74.93
-67.09
-55.58
-40.45
-23.28
-7.15
4.38
8.94
6.57
-0.12
-6.72
-8.38
-1.64
14.25
37.18
63.16
87.97
108.24
121.96
126.36
119.80
103.48
81.81
60.55
43.89
33.47
28.77
28.01
29.95
34.22
40.97
50.26
61.54
72.91
82.10
86.76
85.02
76.13
61.02
42.08
22.38
4.59
-9.66
-19.78
-26.06
-29.25
-30.24
-29.85
-28.87
-28.19
-28.76
-31.29
-35.81
-41.62
-47.55
-52.37
-55.18
-55.66
-54.13
-51.41
-48.51
-46.22
-44.92
-44.64
-45.13
-45.94
-46.41
-45.70
-43.06
-38.18
-31.32
-23.41
-15.87
-10.23
-7.58
-8.08
-10.73
-13.79
-15.46
-14.59
-10.88
-4.99
1.88
8.41
13.54
16.44
16.12
11.77
3.44
-6.23
-12.11
-8.51
6.97
31.08
56.45
75.67
85.29
86.87
85.39
85.83
90.23
96.94
102.35
104.37
102.34
97.69
92.60
88.62
85.82
82.85
78.10
70.69
61.00
50.06
38.97
28.08
16.77
5.13
-6.82
-18.53
-28.89
-36.70
-41.42
-43.33
-43.25
-41.89
-39.30
-34.99
-28.26
-18.73
-6.78
6.25
18.54
28.18
33.70
34.40
30.41
22.64
12.63
2.01
-8.12
-17.61
-27.47
-39.45
-55.36
-76.13
-101.08
-127.73
-152.40
-171.36
-181.99
-183.63
-177.73
-166.99
-154.27
-141.62
-129.87
-119.24
-109.87
-102.06
-95.84
-90.11
-82.11
-67.80
-43.30
-7.02
38.94
88.66
134.27
168.71
188.39
194.15
190.33
182.16
173.18
163.91
152.44
136.46
115.39
91.28
67.95
49.03
36.17
28.39
23.04
17.40
10.07
1.27
-7.66
-15.51
-22.08
-28.42
-36.36
-47.60
-62.81
-81.19
-100.71
-118.92
-133.90
-145.07
-153.38
-160.76
-169.31
-180.29
-193.79
-208.85
-223.96
-237.64
-248.64
-255.89
-258.18
-254.05
-241.64
-219.62
-187.70
-147.25
-101.09
-52.79
-5.65
38.37
78.76
116.17
150.73
181.16
204.96
219.93
225.73
224.35
219.43
214.02
209.55
204.68
196.48
182.58
163.31
141.84
122.46
108.76
101.84
101.40
105.86
113.41
122.37
131.56
140.08
146.84
151.24
147.02
130.67
102.41
66.10
26.73
-11.32
-43.23
-68.44
-86.68
-98.42
-104.13
-105.19
-102.57
-97.81
-92.19
-86.44
-81.13
-76.56
-73.13
-70.26
-66.97
-62.24
-55.48
-46.31
-34.43
-19.79
-2.94
15.09
33.67
52.40
71.15
89.77
108.31
127.05
146.04
163.76
178.07
187.69
192.98
195.33
195.67
193.01
184.00
163.77
126.48
68.91
-7.07
-94.38
-183.42
-265.58
-335.54
-391.79
-424.78
-427.18
-397.63
-343.50
-277.58
-212.07
-154.45
-106.71
-67.01
-31.73
0.75
29.96
53.45
70.25
79.72
81.64
76.63
66.09
52.13
35.46
15.98
-6.78
-32.11
-59.50
-88.29
-115.92
-137.58
-147.33
-142.08
-123.28
-96.64
-70.55
-49.42
-34.76
-25.05
-17.45
-9.23
-0.16
8.23
14.55
19.25
25.00
35.21
52.97
76.15
101.11
122.53
135.51
137.57
129.60
115.21
98.69
83.39
70.53
59.94
50.63
42.26
35.74
32.47
32.93
35.46
36.75
33.33
23.66
8.30
-10.91
-32.33
-55.54
-80.67
-106.99
-131.35
-148.51
-153.04
-142.40
-118.70
-87.97
-57.61
-33.12
-16.29
-5.38
2.98
11.73
21.98
33.16
44.00
53.58
61.98
70.03
78.60
87.78
96.54
103.00
105.36
102.98
96.91
89.76
84.69
84.13
88.97
98.18
109.31
119.37
125.78
127.01
122.89
114.40
103.11
90.81
78.89
67.99
57.86
47.67
36.36
23.25
8.19
-8.58
-26.41
-44.69
-62.92
-80.71
-97.86
-114.92
-133.17
-154.56
-180.78
-210.96
-241.32
-265.62
-277.05
-270.61
-245.15
-202.89
-148.96
-89.77
-30.05
26.53
76.83
117.85
147.20
163.33
168.10
165.42
159.87
157.48
162.48
175.77
194.88
215.45
232.07
242.88
248.11
249.13
250.27
255.27
265.32
278.92
293.12
303.80
310.61
314.65
299.90
256.54
184.23
93.68
1.16
-69.67
-118.71
-150.35
-169.03
-178.28
-180.38
-175.49
-164.57
-149.96
-134.75
-123.07
-115.56
-111.70
-110.62
-109.14
-104.05
-94.02
-79.79
-63.66
-49.40
-38.46
-31.43
-28.16
-26.41
-23.41
-17.89
-9.94
-0.60
8.26
16.07
22.28
26.45
29.32
32.28
35.81
40.31
44.84
48.35
51.12
50.78
42.87
24.04
-6.70
-48.61
-97.95
-149.27
-197.23
-238.58
-273.52
-304.72
-334.78
-355.81
-360.46
-344.29
-308.44
-258.10
-198.55
-132.98
-63.16
8.74
77.88
135.81
174.68
191.00
187.60
172.56
156.63
146.04
143.43
148.02
155.66
161.61
162.26
155.83
142.64
124.43
103.46
82.27
62.92
45.86
30.64
18.05
8.28
1.06
-4.39
-9.37
-14.98
-21.83
-30.05
-38.87
-46.78
-52.34
-54.61
-53.57
-50.25
-45.99
-42.03
-39.13
-37.27
-35.78
-33.91
-31.08
-27.16
-22.61
-18.11
-14.32
-11.61
-9.92
-8.95
-8.48
-8.56
-9.52
-11.81
-15.76
-21.33
-28.05
-35.25
-42.36
-49.11
-55.49
-61.44
-66.56
-69.94
-70.44
-67.09
-59.53
-48.24
-34.47
-19.89
-6.30
4.67
11.74
13.91
10.60
1.59
-12.80
-31.73
-53.83
-77.32
-100.22
-120.64
-137.03
-148.17
-153.07
-150.75
-140.33
-121.37
-94.31
-60.72
-23.16
15.53
52.91
87.25
117.42
142.34
160.73
171.21
172.91
166.14
152.58
134.82
115.60
97.02
80.39
66.36
55.30
47.46
42.80
40.75
40.11
39.36
37.20
33.08
27.26
20.46
13.36
6.21
-1.10
-8.94
-17.67
-27.51
-38.53
-50.85
-64.40
-78.80
-93.01
-105.26
-113.48
-115.75
-110.79
-98.20
-78.68
-53.87
-26.38
0.56
23.76
40.58
49.53
50.77
46.78
40.88
36.39
34.92
35.89
37.78
39.25
39.69
38.90
36.48
31.64
23.68
12.61
-1.10
-15.03
-26.37
-33.01
-34.24
-30.85
-24.57
-17.27
-10.43
-4.75
-0.18
3.50
6.36
8.99
11.24
12.85
13.63
13.61
13.04
12.33
11.79
11.47
11.23
10.78
9.95
8.83
7.69
6.85
6.62
7.05
7.98
9.18
10.31
11.17
11.66
11.70
11.11
9.65
6.98
2.81
-2.97
-10.17
-18.19
-26.16
-33.06
-37.98
-40.36
-40.14
-37.91
-34.78
-31.99
-30.48
-30.47
-31.27
-31.46
-29.42
-23.94
-14.68
-2.22
12.10
26.75
40.41
52.22
61.79
68.95
73.55
75.40
74.45
70.99
65.79
60.02
54.78
50.62
47.21
43.37
37.33
27.01
10.35
-14.42
-48.47
-91.66
-141.82
-194.26
-242.28
-278.98
-299.40
-302.15
-289.50
-266.01
-236.31
-203.52
-168.92
-132.84
-95.92
-59.70
-26.11
3.49
29.12
51.96
73.40
93.89
112.45
127.14
136.27
139.32
137.20
131.90
125.63
120.02
115.71
112.45
109.47
106.01
101.57
96.05
89.83
83.50
77.71
73.03
69.80
68.16
68.02
69.17
71.25
73.76
76.07
77.41
77.08
74.61
69.96
63.58
56.23
48.69
41.48
34.73
28.35
22.26
16.67
12.04
8.85
7.31
7.15
7.72
8.34
8.65
8.74
9.06
10.04
11.86
14.27
16.73
18.71
19.91
20.30
20.08
19.46
18.57
17.40
15.91
14.09
12.08
10.24
9.16
9.47
11.65
15.72
21.06
26.52
30.73
32.58
31.55
27.84
22.19
15.57
8.93
2.94
-1.92
-5.43
-7.57
-8.56
-8.82
-8.93
-9.43
-10.75
-13.04
-16.23
-20.09
-24.26
-28.36
-31.97
-34.77
-36.55
-37.33
-37.33
-36.86
-36.26
-35.79
-35.50
-35.40
-35.41
-35.47
-35.54
-35.67
-35.90
-36.26
-36.83
-37.61
-38.63
-39.83
-41.16
-42.52
-43.80
-44.78
-45.16
-44.58
-42.73
-39.52
-35.16
-30.16
-25.13
-20.62
-16.92
-14.04
-11.84
-10.16
-8.91
-8.11
-7.78
-7.90
-8.38
-9.01
-9.56
-9.72
-9.29
-8.19
-6.53
-4.63
-2.89
-1.61
-0.87
-0.56
-0.37
-0.06
0.47
1.16
1.87
2.55
3.26
4.09
5.09
6.17
7.13
7.77
8.03
8.11
8.38
9.22
10.80
12.93
15.15
16.96
17.94
17.99
17.29
16.20
15.13
14.24
13.49
12.69
11.67
10.36
8.77
7.13
5.85
5.37
5.86
7.07
8.44
9.32
9.11
7.46
4.56
1.19
-1.54
-2.87
-2.69
-1.43
0.09
0.91
0.13
-2.67
-7.12
-11.91
-15.41
-15.78
-11.27
-0.83
15.48
34.56
50.51
57.30
52.21
36.39
13.72
-11.18
-34.55
-54.10
-68.91
-78.48
-83.64
-83.46
-77.40
-66.14
-51.55
-36.07
-22.03
-10.88
-2.77
3.38
9.36
16.36
24.41
32.60
39.56
44.10
45.60
44.21
40.82
36.67
32.56
28.67
24.81
20.70
16.20
11.38
6.44
1.62
-2.92
-7.24
-11.54
-15.81
-19.75
-22.85
-24.61
-24.73
-23.23
-20.38
-16.64
-12.59
-8.68
-5.26
-2.53
-0.56
0.74
1.58
2.32
3.29
4.73
6.68
8.96
11.23
13.18
14.57
15.32
15.50
15.24
14.65
13.82
12.73
11.39
9.81
8.10
6.42
4.94
3.78
2.95
2.29
1.54
0.43
-1.22
-3.48
-6.24
-9.28
-12.37
-15.53
-19.25
-24.65
-33.25
-46.48
-64.99
-88.15
-113.99
-139.61
-161.92
-178.19
-186.50
-185.79
-175.97
-158.04
-134.21
-107.78
-82.52
-61.77
-47.48
-39.64
-36.57
-35.69
-34.51
-31.46
-26.09
-18.74
-10.08
-0.55
9.73
20.87
32.77
44.97
56.56
66.63
74.57
80.37
84.53
87.68
90.30
92.51
94.22
95.33
95.79
95.46
93.94
90.53
84.57
75.90
65.35
54.68
45.96
40.85
39.88
42.42
47.00
52.01
56.22
59.00
60.22
59.88
58.00
54.62
49.88
44.17
38.03
32.04
26.60
21.79
17.45
13.26
9.02
4.81
1.02
-1.74
-2.85
-2.01
0.63
4.37
8.23
11.23
12.76
12.76
11.73
10.46
9.69
9.87
11.04
12.95
15.15
17.25
18.99
20.30
21.24
21.93
22.45
22.79
22.86
22.52
21.73
20.59
19.29
18.09
17.20
16.62
16.25
15.87
15.28
14.33
12.97
11.28
9.49
7.99
7.33
8.10
10.70
15.21
21.21
27.94
34.54
40.32
45.08
49.09
52.97
57.35
62.53
68.33
74.10
78.95
82.06
82.80
80.79
75.88
67.95
57.06
43.43
27.59
10.40
-7.05
-23.69
-38.77
-51.92
-63.20
-72.87
-81.21
-88.37
-94.31
-98.91
-102.08
-103.78
-104.13
-103.24
-101.26
-98.30
-94.51
-90.06
-85.14
-79.89
-74.34
-68.40
-61.96
-54.98
-47.64
-40.27
-33.27
-26.95
-21.39
-16.52
-12.16
-8.25
-4.84
-2.05
0.03
1.44
2.42
3.22
4.05
4.97
5.87
6.60
7.08
7.28
7.24
7.04
6.68
6.19
5.58
4.89
4.19
3.58
3.06
2.55
1.90
0.98
-0.25
-1.77
-3.49
-5.30
-7.13
-8.92
-10.54
-11.85
-12.66
-12.84
-12.36
-11.34
-9.99
-8.51
-7.04
-5.63
-4.26
-2.91
-1.59
-0.35
0.81
1.89
2.92
3.89
4.79
5.63
6.45
7.29
8.22
9.17
9.97
10.40
10.29
9.61
8.47
7.08
5.61
4.07
2.37
0.44
-1.70
-3.83
-5.67
-7.00
-7.80
-8.23
-8.58
-9.03
-9.59
-10.01
-9.97
-9.18
-7.54
-5.19
-2.47
0.30
2.83
5.00
6.82
8.32
9.54
10.46
11.08
11.47
11.80
12.31
13.17
14.43
15.95
17.45
18.70
19.56
20.03
20.23
20.25
20.05
19.48
18.41
16.75
14.65
12.28
9.90
7.68
5.73
4.09
2.81
1.90
1.28
0.80
0.27
-0.44
-1.31
-2.11
-2.53
-2.28
-1.18
0.72
3.18
5.88
8.47
10.69
12.37
13.53
14.22
14.52
14.42
13.85
12.78
11.28
9.63
8.17
7.18
6.69
6.51
6.30
5.77
4.80
3.43
1.79
-0.07
-2.13
-4.36
-6.66
-8.81
-10.64
-12.08
-13.21
-14.26
-15.48
-17.03
-18.92
-21.06
-23.22
-25.20
-26.76
-27.67
-27.76
-26.95
-25.25
-22.83
-19.93
-16.86
-13.90
-11.25
-9.04
-7.29
-5.98
-5.05
-4.44
-4.13
-4.04
-4.10
-4.19
-4.19
-4.02
-3.68
-3.19
-2.65
-2.11
-1.65
-1.31
-1.18
-1.25
-1.51
-1.87
-2.23
-2.58
-2.95
-3.43
-4.07
-4.86
-5.70
-6.52
-7.31
-8.10
-8.91
-9.66
-10.13
-10.01
-9.07
-7.26
-4.79
-2.00
0.68
2.96
4.69
5.91
6.73
7.27
7.55
7.59
7.35
6.88
6.27
5.69
5.28
5.06
5.00
4.97
4.91
4.81
4.68
4.51
4.23
3.70
2.84
1.64
0.25
-1.11
-2.23
-2.99
-3.40
-3.56
-3.57
-3.58
-3.68
-3.99
-4.56
-5.37
-6.20
-6.67
-6.37
-5.04
-2.74
0.12
2.90
5.00
6.13
6.34
5.96
5.40
4.89
4.52
4.25
4.05
3.98
4.20
4.84
5.84
6.99
7.93
8.33
8.05
7.17
5.90
4.47
3.00
1.47
-0.20
-2.02
-3.83
-5.39
-6.45
-6.87
-6.76
-6.37
-6.01
-5.94
-6.23
-6.85
-7.60
-8.27
-8.60
-8.37
-7.51
-6.07
-4.24
-2.28
-0.44
1.13
2.37
3.29
3.89
4.19
4.14
3.75
3.08
2.22
1.34
0.60
0.14
0.03
0.27
0.77
1.38
1.92
2.29
2.44
2.37
2.10
1.61
0.91
0.01
-1.01
-2.09
-3.16
-4.16
-5.11
-6.02
-6.86
-7.62
-8.20
-8.53
-8.51
-8.06
-7.11
-5.66
-3.77
-1.62
0.56
2.53
4.13
5.26
5.88
5.99
5.58
4.69
3.42
1.97
0.54
-0.68
-1.57
-2.12
-2.40
-2.47
-2.39
-2.23
-2.05
-1.94
-2.02
-2.37
-3.03
-3.97
-5.09
-6.26
-7.38
-8.39
-9.33
-10.28
-11.35
-12.62
-14.06
-15.50
-16.68
-17.32
-17.24
-16.36
-14.84
-12.93
-11.01
-9.46
-8.60
-8.58
-9.36
-10.70
-12.24
-13.53
-14.21
-14.04
-12.99
-11.11
-8.56
-5.42
-1.71
2.59
7.51
12.94
18.62
24.17
29.14
33.10
35.75
36.98
36.88
35.78
34.20
32.72
31.93
32.14
33.33
35.13
37.01
38.47
39.25
39.33
38.84
37.94
36.62
34.84
32.50
29.63
26.36
22.94
19.59
16.40
13.36
10.36
7.31
4.25
1.37
-1.04
-2.70
-3.46
-3.43
-2.98
-2.57
-2.59
-3.15
-4.05
-4.96
-5.58
-5.84
-5.93
-6.10
-6.56
-7.25
-7.95
-8.45
-8.68
-8.77
-8.93
-9.24
-9.57
-9.59
-8.94
-7.47
-5.31
-2.81
-0.45
1.41
2.57
3.01
2.84
2.24
1.38
0.41
-0.59
-1.58
-2.57
-3.53
-4.38
-4.99
-5.24
-5.14
-4.85
-4.60
-4.59
-4.87
-5.32
-5.75
-6.02
-6.14
-6.23
-6.47
-6.96
-7.69
-8.58
-9.58
-10.70
-11.98
-13.37
-14.70
-15.64
-15.82
-15.04
-13.33
-10.98
-8.42
-6.04
-4.06
-2.53
-1.37
-0.52
0.05
0.29
0.18
-0.24
-0.88
-1.58
-2.22
-2.74
-3.10
-3.35
-3.57
-3.83
-4.23
-4.86
-5.75
-6.88
-8.20
-9.57
-10.86
-11.98
-12.88
-13.59
-14.19
-14.78
-15.39
-16.04
-16.65
-17.10
-17.21
-16.81
-15.82
-14.19
-12.06
-9.62
-7.18
-4.98
-3.17
-1.77
-0.68
0.16
0.76
1.05
0.92
0.36
-0.47
-1.30
-1.81
-1.74
-1.09
-0.03
1.06
1.82
2.05
1.74
1.11
0.43
-0.12
-0.52
-0.87
-1.32
-2.00
-2.86
-3.81
-4.72
-5.53
-6.26
-6.91
-7.40
-7.54
-7.08
-5.78
-3.61
-0.78
2.32
5.21
7.51
9.02
9.75
9.84
9.44
8.63
7.44
5.87
4.06
2.27
0.86
0.14
0.24
1.03
2.19
3.33
4.17
4.56
4.56
4.24
3.69
2.91
1.84
0.50
-1.04
-2.62
-4.09
-5.40
-6.55
-7.64
-8.71
-9.74
-10.57
-10.96
-10.69
-9.62
-7.79
-5.43
-2.85
-0.36
1.81
3.52
4.74
5.49
5.82
5.80
5.56
5.21
4.84
4.45
4.06
3.64
3.26
3.04
3.12
3.53
4.18
4.84
5.28
5.33
5.00
4.37
3.61
2.83
2.08
1.35
0.63
-0.11
-0.88
-1.69
-2.59
-3.57
-4.58
-5.48
-6.07
-6.13
-5.54
-4.28
-2.47
-0.36
1.77
3.63
5.02
5.86
6.21
6.18
5.90
5.49
5.02
4.55
4.20
4.09
4.32
4.93
5.85
6.89
7.82
8.44
8.67
8.52
8.06
7.35
6.46
5.42
4.26
3.03
1.75
0.44
-0.90
-2.27
-3.67
-5.07
-6.40
-7.57
-8.51
-9.09
-9.15
-8.52
-7.09
-4.92
-2.22
0.66
3.36
5.64
7.38
8.60
9.30
9.47
9.09
8.21
7.00
5.75
4.72
4.08
3.80
3.79
3.94
4.21
4.63
5.19
5.78
6.22
6.31
5.97
5.20
4.16
3.01
1.88
0.82
-0.20
-1.22
-2.25
-3.29
-4.29
-5.25
-6.15
-7.02
-7.80
-8.42
-8.68
-8.39
-7.40
-5.76
-3.68
-1.49
0.48
2.01
3.00
3.50
3.61
3.47
3.19
2.86
2.53
2.22
1.92
1.59
1.23
0.83
0.45
0.15
-0.04
-0.11
-0.09
0.00
0.10
0.15
0.03
-0.31
-0.88
-1.65
-2.54
-3.50
-4.54
-5.67
-6.91
-8.11
-9.04
-9.40
-8.94
-7.60
-5.52
-3.00
-0.39
2.00
4.03
5.66
6.95
7.89
8.42
8.44
7.92
6.93
5.70
4.53
3.68
3.26
3.25
3.54
3.99
4.47
4.86
5.04
4.90
4.36
3.44
2.29
1.12
0.11
-0.69
-1.35
-2.02
-2.82
-3.75
-4.78
-5.79
-6.68
-7.28
-7.43
-6.94
-5.69
-3.71
-1.21
1.51
4.12
6.39
8.23
9.61
10.51
10.87
10.60
9.74
8.47
7.10
5.93
5.13
4.63
4.25
3.79
3.22
2.67
2.33
2.32
2.58
2.85
2.84
2.39
1.51
0.41
-0.68
-1.60
-2.40
-3.26
-4.40
-5.95
-7.84
-9.82
-11.54
-12.64
-12.84
-11.96
-10.00
-7.07
-3.47
0.40
4.06
7.04
9.06
9.98
9.93
9.12
7.82
6.28
4.67
3.12
1.73
0.63
-0.10
-0.45
-0.44
-0.18
0.22
0.66
1.10
1.49
1.82
2.08
2.25
2.35
2.37
2.27
1.98
1.40
0.48
-0.74
-2.09
-3.37
-4.38
-5.06
-5.40
-5.46
-5.22
-4.64
-3.65
-2.25
-0.52
1.38
3.26
4.98
6.40
7.44
7.95
7.84
7.11
5.93
4.59
3.40
2.55
2.08
1.90
1.88
1.95
2.11
2.33
2.54
2.60
2.35
1.70
0.73
-0.40
-1.46
-2.30
-2.95
-3.51
-4.16
-5.00
-6.03
-7.19
-8.36
-9.44
-10.33
-10.96
-11.24
-11.08
-10.45
-9.39
-8.06
-6.71
-5.60
-4.93
-4.73
-4.92
-5.36
-5.90
-6.47
-7.07
-7.73
-8.48
-9.30
-10.15
-11.00
-11.86
-12.78
-13.87
-15.23
-16.93
-18.93
-21.08
-23.19
-25.10
-26.74
-28.14
-29.43
-30.74
-32.11
-33.55
-34.92
-36.02
-36.62
-36.46
-35.34
-33.18
-30.06
-26.26
-22.09
-17.80
-13.46
-9.02
-4.43
0.28
4.87
9.08
12.67
15.58
17.91
19.85
21.60
23.38
25.44
28.05
31.37
35.22
39.06
42.09
43.62
43.39
41.68
39.25
36.89
35.20
34.34
34.17
34.47
35.01
35.66
36.19
36.31
35.64
33.96
31.31
28.07
24.78
21.97
19.94
18.70
18.01
17.60
17.18
16.65
15.97
15.21
14.42
13.62
12.78
11.88
10.93
9.99
9.20
8.70
8.62
9.00
9.72
10.55
11.21
11.45
11.16
10.39
9.32
8.15
7.06
6.11
5.30
4.55
3.77
2.87
1.79
0.50
-0.96
-2.48
-3.86
-4.88
-5.35
-5.21
-4.56
-3.59
-2.60
-1.83
-1.41
-1.39
-1.77
-2.51
-3.59
-4.94
-6.46
-7.98
-9.30
-10.28
-10.80
-10.84
-10.42
-9.62
-8.59
-7.51
-6.60
-6.04
-5.92
-6.21
-6.79
-7.50
-8.25
-9.05
-9.96
-11.02
-12.16
-13.17
-13.80
-13.83
-13.22
-12.11
-10.77
-9.45
-8.29
-7.23
-6.16
-4.98
-3.76
-2.74
-2.20
-2.33
-3.07
-4.15
-5.22
-5.97
-6.34
-6.45
-6.48
-6.56
-6.67
-6.65
-6.41
-5.95
-5.43
-4.99
-4.69
-4.48
-4.21
-3.80
-3.30
-2.93
-2.88
-3.26
-3.98
-4.79
-5.35
-5.41
-4.83
-3.69
-2.23
-0.74
0.53
1.46
2.09
2.57
2.98
3.34
3.51
3.36
2.87
2.16
1.44
0.90
0.57
0.39
0.22
0.00
-0.23
-0.42
-0.52
-0.61
-0.79
-1.15
-1.70
-2.33
-2.94
-3.45
-3.88
-4.33
-4.82
-5.32
-5.67
-5.73
-5.41
-4.74
-3.85
-2.87
-1.91
-1.04
-0.29
0.29
0.65
0.71
0.48
0.04
-0.51
-1.07
-1.56
-1.95
-2.22
-2.36
-2.36
-2.23
-2.06
-1.95
-2.03
-2.36
-2.92
-3.62
-4.32
-4.91
-5.35
-5.70
-6.07
-6.59
-7.32
-8.22
-9.09
-9.66
-9.70
-9.05
-7.75
-5.96
-3.95
-1.97
-0.23
1.13
2.05
2.55
2.69
2.65
2.64
2.84
3.33
4.08
4.91
5.58
5.83
5.52
4.63
3.27
1.62
-0.16
-1.90
-3.53
-5.03
-6.43
-7.81
-9.27
-10.87
-12.53
-14.09
-15.25
-15.76
-15.42
-14.26
-12.48
-10.36
-8.15
-6.04
-4.08
-2.31
-0.78
0.44
1.30
1.80
2.04
2.13
2.21
2.31
2.40
2.36
2.09
1.55
0.77
-0.13
-1.01
-1.72
-2.18
-2.37
-2.36
-2.24
-2.13
-2.16
-2.41
-2.90
-3.53
-4.05
-4.13
-3.50
-2.00
0.32
3.19
6.21
9.04
11.42
13.25
14.56
15.45
16.00
16.33
16.54
16.74
17.02
17.45
18.02
18.67
19.33
19.95
20.53
21.09
21.62
22.09
22.38
22.40
22.03
21.23
19.96
18.24
16.13
13.72
11.17
8.64
6.28
4.23
2.52
1.13
-0.06
-1.17
-2.35
-3.70
-5.27
-7.09
-9.15
-11.45
-14.01
-16.80
-19.69
-22.47
-24.84
-26.53
-27.41
-27.55
-27.21
-26.70
-26.29
-26.07
-26.00
-25.97
-25.91
-25.84
-25.85
-26.01
-26.32
-26.72
-27.08
-27.29
-27.33
-27.26
-27.21
-27.34
-27.71
-28.18
-28.48
-28.25
-27.15
-25.03
-21.94
-18.11
-13.84
-9.33
-4.71
-0.04
4.58
8.95
12.74
15.62
17.39
18.07
17.89
17.20
16.36
15.60
15.00
14.52
14.08
13.65
13.22
12.82
12.40
11.86
11.10
10.09
8.90
7.71
6.67
5.87
5.21
4.51
3.54
2.15
0.35
-1.68
-3.64
-5.17
-6.00
-5.93
-4.93
-3.14
-0.78
1.82
4.34
6.49
8.07
9.00
9.35
9.26
8.91
8.46
7.99
7.49
6.92
6.26
5.51
4.72
3.92
3.15
2.40
1.63
0.84
0.05
-0.70
-1.36
-1.93
-2.45
-3.00
-3.62
-4.34
-5.14
-5.97
-6.76
-7.49
-8.13
-8.65
-8.99
-9.04
-8.67
-7.72
-6.10
-3.79
-0.89
2.33
5.56
8.43
10.67
12.15
12.93
13.19
13.17
13.07
12.95
12.81
12.59
12.29
11.97
11.72
11.58
11.51
11.39
11.07
10.50
9.73
8.89
8.12
7.49
6.93
6.32
5.55
4.56
3.39
2.11
0.78
-0.60
-2.09
-3.69
-5.31
-6.75
-7.74
-8.01
-7.40
-5.94
-3.83
-1.37
1.10
3.31
5.11
6.44
7.37
8.02
8.52
8.95
9.30
9.52
9.54
9.30
8.86
8.34
7.89
7.66
7.68
7.87
8.06
8.06
7.79
7.27
6.59
5.86
5.14
4.39
3.57
2.65
1.65
0.65
-0.29
-1.20
-2.14
-3.14
-4.18
-5.07
-5.63
-5.66
-5.14
-4.15
-2.84
-1.37
0.14
1.62
3.00
4.18
5.06
5.56
5.69
5.51
5.16
4.82
4.61
4.58
4.68
4.82
4.89
4.81
4.60
4.32
4.00
3.67
3.30
2.85
2.29
1.69
1.10
0.58
0.13
-0.30
-0.78
-1.38
-2.10
-2.91
-3.71
-4.42
-5.00
-5.40
-5.61
-5.59
-5.28
-4.63
-3.58
-2.14
-0.42
1.41
3.15
4.58
5.58
6.10
6.12
5.71
5.01
4.22
3.58
3.29
3.37
3.71
4.09
4.29
4.21
3.93
3.58
3.28
3.09
2.94
2.79
2.59
2.38
2.15
1.89
1.54
1.01
0.27
-0.63
-1.66
-2.77
-4.02
-5.44
-7.04
-8.69
-10.12
-11.07
-11.32
-10.84
-9.74
-8.18
-6.32
-4.29
-2.20
-0.22
1.46
2.60
3.08
2.96
2.43
1.76
1.16
0.73
0.42
0.11
-0.34
-0.99
-1.79
-2.57
-3.14
-3.39
-3.33
-3.16
-3.15
-3.51
-4.28
-5.28
-6.27
-7.06
-7.64
-8.13
-8.73
-9.53
-10.50
-11.52
-12.42
-13.10
-13.54
-13.73
-13.72
-13.55
-13.28
-13.00
-12.81
-12.80
-12.99
-13.34
-13.81
-14.36
-15.06
-16.06
-17.51
-19.51
-21.95
-24.57
-26.93
-28.61
-29.23
