1515732563.00
64.000000
-0.00
-0.00
-0.00
-0.00
-0.00
-0.00
-0.00
-0.00
-0.00
-0.00
0.00
0.01
0.01
-0.00
-0.03
-0.05
-0.05
0.00
0.13
0.36
0.66
1.01
1.37
1.72
2.06
2.40
2.79
3.24
3.80
4.42
5.06
5.66
6.20
6.68
7.15
7.68
8.31
9.14
10.09
11.04
11.88
12.56
13.14
13.76
14.65
15.96
17.91
20.32
22.90
25.38
27.58
29.57
31.68
34.32
37.81
42.54
48.15
54.10
59.83
64.97
69.58
74.14
79.34
85.71
93.76
103.00
112.62
121.73
129.77
136.75
143.30
150.75
157.77
166.64
177.95
191.79
206.97
220.57
228.25
225.36
208.53
176.87
132.76
80.05
23.07
-34.94
-92.44
-149.16
-205.23
-260.37
-313.74
-363.87
-409.83
-450.91
-486.50
-515.74
-537.23
-549.22
-549.96
-538.37
-514.21
-478.67
-433.88
-382.45
-327.02
-269.84
-212.63
-156.66
-102.95
-52.37
-5.90
35.58
71.43
101.35
125.50
144.38
158.69
169.15
176.37
180.75
182.57
182.07
179.51
175.23
169.65
163.18
156.15
148.81
141.30
133.69
126.02
118.33
110.69
103.16
95.80
88.68
81.83
75.25
68.95
62.95
57.25
51.86
46.78
42.03
37.59
33.45
29.61
26.07
22.81
19.83
17.11
14.67
12.48
10.54
8.83
7.35
6.07
4.97
4.05
3.27
2.62
2.09
1.65
1.30
1.01
0.79
0.61
0.47
0.37
0.28
0.22
0.18
0.14
0.12
0.10
0.10
0.10
0.11
0.12
0.14
0.17
0.20
0.23
0.26
0.31
0.35
0.39
0.43
0.48
0.53
0.58
0.63
0.69
0.75
0.82
0.89
0.97
1.05
1.15
1.25
1.37
1.50
1.65
1.82
2.00
2.21
2.43
2.68
2.96
3.26
3.60
3.96
4.36
4.80
5.27
5.77
6.31
6.90
7.53
8.19
8.91
9.66
10.47
11.31
12.20
13.14
14.14
15.19
16.32
17.49
18.71
19.95
21.16
22.27
23.19
23.83
24.08
23.82
22.98
21.50
19.35
16.58
13.27
9.51
5.47
1.34
-2.71
-6.51
-9.90
-12.77
-15.06
-16.72
-17.78
-18.25
-18.20
-17.71
-16.86
-15.73
-14.40
-12.94
-11.42
-9.85
-8.21
-6.55
-4.86
-3.13
-1.34
0.47
2.32
4.19
6.10
8.15
10.28
12.50
14.82
17.24
19.74
22.28
24.85
27.49
30.38
33.40
36.57
39.92
43.42
46.99
50.48
53.81
57.04
60.45
63.92
67.57
71.50
75.66
79.82
83.63
86.78
89.22
91.26
92.73
93.77
94.42
94.37
92.86
88.72
80.46
66.20
49.03
30.14
10.55
-9.03
-28.34
-47.52
-66.99
-87.29
-108.96
-132.41
-158.35
-186.40
-214.82
-240.58
-260.07
-270.32
-270.05
-260.06
-242.72
-221.33
-198.40
-175.10
-151.70
-128.25
-105.19
-83.43
-63.91
-47.10
-33.12
-21.45
-11.44
-2.66
5.03
11.49
16.57
20.29
22.89
24.66
25.96
27.12
28.32
29.53
30.55
31.12
31.04
30.21
28.68
26.55
23.94
20.96
17.60
13.88
9.74
5.20
0.30
-4.94
-10.55
-16.67
-23.43
-30.90
-38.90
-46.83
-53.63
-58.01
-58.75
-55.15
-47.27
-35.85
-22.15
-7.41
7.26
21.17
33.92
45.38
55.57
64.62
72.74
80.13
86.94
93.29
99.26
104.95
110.40
115.53
119.99
123.31
125.03
125.05
123.67
121.50
119.12
116.75
114.13
110.71
106.05
100.09
93.24
86.10
79.22
72.89
67.10
61.73
56.43
50.77
44.07
35.69
25.26
13.04
0.03
-12.29
-22.45
-29.63
-33.85
-35.93
-37.01
-38.09
-39.85
-42.59
-46.46
-51.47
-57.49
-64.02
-70.29
-75.30
-78.16
-78.46
-76.29
-72.39
-67.75
-63.43
-60.15
-58.19
-57.51
-57.78
-58.75
-60.11
-61.58
-62.69
-62.84
-61.32
-57.70
-52.05
-45.15
-38.38
-33.26
-30.92
-31.61
-34.58
-38.36
-41.31
-42.17
-40.42
-36.39
-30.97
-25.24
-20.04
-15.76
-12.30
-9.21
-5.99
-2.29
1.94
6.45
10.79
14.46
17.03
18.25
18.16
17.05
15.44
13.94
13.07
13.02
13.60
14.29
14.49
13.77
11.90
8.92
4.93
0.05
-5.48
-11.28
-16.82
-21.61
-25.32
-28.06
-30.12
-31.86
-33.31
-34.08
-33.48
-30.84
-25.90
-18.93
-10.77
-2.43
5.13
11.28
15.81
18.80
20.52
21.18
20.93
19.74
17.53
14.28
10.11
5.33
0.37
-4.33
-8.51
-12.00
-14.77
-16.79
-18.01
-18.37
-17.98
-17.31
-17.08
-18.21
-21.43
-27.15
-35.35
-45.63
-57.47
-70.36
-83.95
-98.04
-112.48
-127.05
-141.25
-154.26
-164.93
-171.96
-174.19
-170.93
-162.23
-148.96
-132.67
-115.15
-98.02
-82.23
-68.05
-55.24
-43.47
-32.65
-23.01
-14.90
-8.49
-3.65
-0.00
2.67
4.28
4.50
3.17
0.80
-1.22
-0.72
4.73
17.30
38.38
68.19
105.53
147.68
190.59
229.37
259.23
276.39
278.86
266.83
242.43
209.26
171.64
134.19
101.31
76.77
62.93
60.26
67.22
80.67
96.96
112.88
126.27
135.90
140.91
140.42
133.53
120.18
101.94
82.46
66.79
59.85
64.52
80.49
104.34
130.78
154.59
172.23
182.52
186.24
185.09
180.59
173.57
164.48
153.88
142.76
132.34
123.42
115.66
107.66
97.39
83.21
64.68
42.74
19.32
-3.52
-24.43
-43.15
-60.45
-77.45
-94.86
-112.34
-128.45
-141.19
-148.88
-150.98
-148.44
-143.22
-137.42
-132.41
-128.49
-125.21
-122.03
-118.88
-116.25
-114.70
-114.43
-115.02
-115.64
-115.56
-114.53
-112.82
-111.07
-109.78
-109.13
-109.01
-109.20
-109.71
-110.73
-112.43
-114.58
-116.13
-115.48
-111.10
-102.47
-90.66
-78.07
-67.52
-61.04
-59.15
-60.81
-64.23
-67.56
-69.47
-69.09
-65.87
-59.57
-50.44
-39.51
-28.48
-19.24
-13.30
-11.28
-13.13
-18.37
-26.50
-37.05
-49.16
-61.16
-70.29
-72.87
-65.00
-43.68
-8.04
39.97
95.52
151.69
201.15
237.64
257.00
257.76
241.43
212.46
177.74
145.14
121.18
108.72
106.07
108.13
109.31
106.27
99.30
91.38
85.89
84.26
85.27
86.01
83.80
77.64
68.30
57.57
46.98
37.13
27.69
17.91
6.98
-5.38
-18.67
-31.77
-43.06
-51.20
-55.60
-56.84
-56.26
-55.35
-55.10
-55.57
-56.10
-55.99
-55.15
-54.46
-55.42
-59.43
-66.87
-76.60
-86.13
-92.57
-93.79
-89.36
-80.78
-70.85
-62.62
-58.36
-58.92
-63.68
-71.10
-79.27
-86.46
-91.28
-92.69
-89.89
-82.43
-70.43
-54.73
-36.92
-18.95
-2.58
11.12
22.02
30.86
38.76
46.60
54.57
62.08
68.02
71.28
71.33
68.47
63.75
58.53
53.83
49.91
46.21
41.69
35.46
27.30
17.77
7.90
-1.36
-9.65
-17.30
-25.06
-33.64
-43.38
-54.12
-65.36
-76.43
-86.55
-94.82
-100.29
-102.01
-99.49
-92.86
-83.02
-71.35
-59.21
-47.46
-36.18
-24.82
-12.64
0.71
14.88
28.70
40.58
49.07
53.43
53.87
51.44
47.61
43.64
40.26
37.61
35.47
33.57
31.81
30.19
28.64
26.90
24.52
21.07
16.37
10.64
4.48
-1.46
-6.73
-11.37
-15.78
-20.61
-26.29
-32.83
-39.60
-45.56
-49.50
-50.43
-47.99
-42.42
-34.58
-25.62
-16.56
-8.16
-0.70
5.75
11.23
15.63
18.81
20.75
21.73
22.37
23.37
25.27
28.20
31.92
35.98
39.93
43.44
46.31
48.46
49.91
50.83
51.43
51.86
52.09
51.85
50.88
49.22
47.39
46.16
46.13
47.20
48.42
48.40
45.81
39.92
30.65
18.38
3.73
-12.60
-29.53
-45.51
-58.66
-67.26
-70.48
-68.72
-63.46
-56.65
-49.96
-44.28
-39.74
-35.92
-32.17
-27.87
-22.52
-15.90
-8.07
0.47
9.00
16.76
23.18
28.09
31.55
33.82
35.10
35.61
35.60
35.51
35.81
36.89
38.84
41.35
43.87
45.72
46.40
45.65
43.40
39.79
35.01
29.30
22.92
16.14
9.10
1.83
-5.74
-13.63
-21.66
-29.36
-35.97
-40.71
-43.01
-42.74
-40.20
-35.94
-30.59
-24.60
-18.27
-11.79
-5.41
0.52
5.55
9.39
12.06
14.00
16.06
19.11
23.67
29.54
35.66
40.45
42.36
40.47
34.91
26.81
17.82
9.62
3.37
-0.49
-2.22
-2.56
-2.46
-2.79
-4.10
-6.56
-10.02
-14.18
-18.71
-23.33
-27.76
-31.52
-34.15
-35.37
-35.41
-35.13
-35.59
-37.46
-40.41
-43.19
-44.28
-42.78
-38.74
-32.78
-25.21
-15.43
-2.08
15.90
38.22
62.86
86.78
107.22
122.90
134.17
142.22
147.82
150.65
149.60
143.74
133.24
119.69
105.48
92.94
83.67
78.27
76.53
77.74
80.85
84.34
86.37
84.91
78.26
65.53
46.94
23.94
-1.26
-26.28
-49.08
-68.29
-83.27
-93.91
-100.56
-103.84
-104.62
-103.66
-101.47
-98.13
-93.47
-87.59
-81.28
-76.11
-73.81
-75.23
-79.50
-83.92
-84.96
-79.94
-68.45
-52.64
-36.42
-23.75
-17.12
-16.80
-21.16
-27.61
-33.76
-38.00
-39.59
-38.46
-34.66
-28.27
-19.46
-8.81
2.48
12.73
20.24
23.98
23.91
21.07
17.09
13.50
11.18
10.15
9.71
8.79
6.39
1.83
-4.99
-13.55
-22.79
-31.39
-38.20
-42.66
-44.93
-45.64
-45.47
-44.69
-43.09
-40.32
-36.23
-31.20
-25.89
-20.86
-16.16
-11.35
-5.86
0.49
7.22
13.33
17.85
20.35
21.13
20.99
20.73
20.69
20.72
20.47
19.76
18.84
18.32
18.74
20.18
22.06
23.34
23.08
21.04
17.98
15.26
14.06
14.54
15.49
14.79
10.35
1.18
-12.20
-27.89
-43.55
-57.22
-67.80
-75.04
-79.12
-80.27
-78.60
-74.32
-67.87
-60.14
-52.23
-45.31
-40.15
-36.89
-34.88
-32.65
-28.23
-19.74
-6.05
12.64
34.77
57.75
78.82
95.82
107.67
114.34
116.45
114.82
110.21
103.39
95.33
87.18
79.83
73.34
66.64
57.71
44.52
25.95
2.54
-23.67
-49.90
-73.66
-93.42
-108.65
-119.34
-125.53
-127.18
-124.41
-117.91
-109.03
-99.46
-90.68
-83.44
-77.72
-72.98
-68.65
-64.30
-59.64
-54.18
-47.03
-37.15
-23.89
-7.62
10.04
26.68
39.96
48.67
53.11
54.92
56.19
58.58
62.79
68.52
74.90
80.89
85.61
88.36
88.66
86.28
81.30
74.17
65.53
55.99
45.98
35.79
25.71
16.17
7.60
0.28
-5.91
-11.38
-16.47
-21.16
-24.91
-27.01
-27.10
-25.55
-23.46
-22.08
-22.16
-23.48
-24.98
-25.32
-23.63
-19.93
-15.12
-10.42
-6.77
-4.42
-2.82
-1.04
1.79
5.98
11.16
16.49
20.95
23.83
24.85
24.24
22.52
20.30
18.14
16.41
15.27
14.52
13.63
11.81
8.29
2.74
-4.51
-12.39
-19.43
-24.19
-25.86
-24.42
-20.59
-15.50
-10.20
-5.42
-1.44
1.80
4.46
6.64
8.35
9.58
10.39
11.02
11.81
13.16
15.32
18.42
22.48
27.50
33.49
40.36
47.71
54.82
60.70
64.45
65.52
63.93
60.10
54.65
48.07
40.73
32.94
25.18
18.04
11.86
6.29
0.02
-8.81
-21.73
-38.83
-58.30
-76.76
-90.49
-96.88
-95.17
-86.59
-73.50
-58.49
-43.78
-30.93
-20.94
-14.27
-10.86
-10.08
-10.89
-12.21
-13.38
-14.39
-15.81
-18.37
-22.56
-28.37
-35.24
-42.11
-47.66
-50.58
-49.87
-45.17
-36.97
-26.54
-15.79
-6.99
-2.22
-2.86
-9.21
-20.41
-34.82
-50.53
-65.78
-79.01
-88.95
-94.54
-95.08
-90.45
-81.21
-68.40
-53.15
-36.29
-18.38
0.02
17.93
33.97
46.76
55.58
60.76
63.51
65.29
67.27
70.04
73.72
78.10
82.73
86.96
89.99
91.12
90.05
87.09
83.10
79.11
75.81
73.22
70.63
66.94
61.04
52.17
40.11
25.28
8.74
-8.02
-23.39
-36.10
-45.42
-51.11
-53.12
-51.20
-44.90
-33.95
-18.88
-1.41
15.77
29.85
38.97
43.01
43.45
42.48
41.94
42.61
44.21
45.88
46.81
46.58
45.12
42.51
38.88
34.34
29.19
23.95
19.19
15.36
12.54
10.54
8.99
7.66
6.52
5.69
5.15
4.62
3.64
1.78
-1.19
-5.29
-10.33
-16.13
-22.46
-28.88
-34.58
-38.46
-39.43
-36.82
-30.87
-22.65
-13.76
-5.77
0.27
3.97
5.59
5.66
4.73
3.15
1.06
-1.45
-4.22
-6.85
-8.82
-9.66
-9.13
-7.40
-4.97
-2.44
-0.26
1.42
2.73
3.87
4.98
6.13
7.39
8.88
10.72
12.83
14.95
16.68
17.59
17.43
16.25
14.53
13.16
13.23
15.73
21.07
28.83
37.84
46.51
53.47
57.98
59.99
59.81
57.81
54.35
50.03
46.00
43.83
44.75
48.79
54.40
58.94
59.99
56.64
49.86
41.95
35.10
30.18
26.44
22.12
15.59
6.21
-5.65
-19.07
-33.26
-47.68
-61.78
-74.62
-84.82
-91.06
-92.75
-90.40
-85.38
-79.11
-72.33
-64.80
-55.55
-43.68
-28.96
-12.06
5.65
22.42
36.41
46.00
50.23
49.24
44.59
38.86
34.62
33.19
33.72
33.37
28.71
17.46
-0.13
-21.22
-41.59
-57.38
-66.56
-69.43
-68.06
-65.12
-62.74
-61.89
-62.45
-63.61
-64.54
-64.90
-64.86
-64.95
-65.46
-66.03
-65.53
-62.57
-56.30
-47.07
-36.62
-27.35
-21.33
-19.17
-19.97
-21.75
-22.60
-21.55
-18.84
-15.62
-13.11
-11.88
-11.56
-11.09
-9.15
-4.87
1.79
9.93
17.85
23.75
26.33
25.28
21.23
15.38
8.81
2.11
-4.69
-11.71
-18.67
-24.71
-28.57
-29.14
-25.99
-19.59
-11.14
-2.13
5.97
12.08
15.45
15.77
13.09
7.85
0.89
-6.61
-13.33
-18.05
-19.88
-18.54
-14.33
-7.96
-0.31
7.93
16.34
24.62
32.28
38.52
42.28
42.64
39.20
32.17
22.10
9.60
-4.96
-21.37
-39.25
-57.51
-74.20
-86.46
-91.13
-85.64
-69.08
-43.05
-11.64
19.40
44.61
60.56
66.99
66.32
62.04
57.01
52.38
47.89
42.95
37.47
32.09
27.49
23.71
19.98
15.33
9.49
3.40
-1.03
-1.99
1.12
7.21
13.80
18.13
18.61
15.71
11.72
9.40
10.17
13.24
15.96
15.48
10.31
1.00
-10.48
-22.09
-32.87
-43.05
-53.31
-63.76
-73.54
-81.27
-85.87
-87.21
-85.94
-83.01
-79.06
-74.36
-69.21
-63.95
-59.01
-54.59
-50.64
-46.92
-43.28
-39.80
-36.72
-34.26
-32.39
-30.68
-28.35
-24.60
-18.94
-11.58
-3.56
3.41
7.50
7.43
2.98
-4.79
-13.95
-22.53
-29.42
-34.74
-39.82
-46.41
-55.89
-68.37
-82.59
-96.05
-105.63
-108.28
-101.74
-85.08
-59.05
-26.09
10.17
45.55
76.37
100.32
116.91
127.38
133.87
138.48
142.23
144.84
145.08
141.55
133.44
120.91
104.86
86.49
66.97
47.30
28.55
11.90
-1.73
-12.40
-21.65
-32.27
-47.17
-67.74
-92.75
-118.35
-139.41
-151.58
-152.95
-144.58
-129.57
-111.53
-93.07
-75.30
-58.21
-41.57
-25.75
-11.70
-0.53
7.26
12.14
15.52
19.21
24.58
32.07
41.02
50.24
58.50
65.24
70.54
74.76
78.05
79.97
79.74
76.72
70.93
63.16
54.56
46.05
38.06
30.66
23.88
17.99
13.37
10.09
7.73
5.57
3.02
0.13
-2.42
-3.62
-2.69
0.73
6.64
14.87
25.30
37.64
51.20
64.78
76.94
86.47
92.89
96.50
98.14
98.67
98.62
97.95
96.07
92.14
85.40
75.61
63.14
49.05
34.76
21.45
9.63
-1.16
-12.14
-24.75
-39.95
-57.79
-77.23
-96.45
-113.50
-126.90
-136.01
-141.00
-142.54
-141.28
-137.61
-131.59
-123.24
-112.95
-101.51
-90.02
-79.64
-71.33
-65.79
-63.40
-63.95
-66.39
-68.55
-67.22
-58.78
-40.13
-9.71
31.66
80.49
131.15
177.07
212.29
233.05
238.61
230.97
213.82
190.97
165.16
137.70
109.04
79.51
50.01
21.86
-3.79
-26.42
-46.21
-63.52
-78.25
-89.61
-96.34
-97.39
-92.57
-82.63
-68.95
-52.80
-34.76
-14.63
8.10
33.47
60.42
86.59
108.84
124.27
131.19
129.74
121.80
110.22
97.89
86.83
77.90
70.86
64.89
59.03
52.52
44.90
36.03
26.05
15.47
5.18
-3.81
-10.73
-15.41
-18.42
-20.80
-23.67
-27.71
-33.03
-39.15
-45.20
-50.10
-52.73
-52.06
-47.38
-38.56
-26.20
-11.62
3.41
17.18
28.44
36.68
41.99
44.75
45.25
43.53
39.50
33.14
24.74
14.96
4.65
-5.50
-15.20
-24.64
-34.24
-44.31
-54.73
-64.77
-73.37
-79.55
-82.73
-83.03
-81.17
-78.21
-75.14
-72.71
-71.28
-70.96
-71.82
-74.05
-77.87
-83.31
-89.96
-96.85
-102.61
-105.84
-105.53
-101.46
-94.15
-84.69
-74.26
-63.74
-53.46
-43.31
-33.04
-22.57
-12.18
-2.42
6.12
13.07
18.40
22.42
25.58
28.20
30.40
32.05
32.85
32.51
30.91
28.14
24.49
20.44
16.45
12.88
9.87
7.45
5.60
4.39
4.03
4.72
6.49
9.07
11.94
14.48
16.26
16.98
16.41
14.20
9.88
3.15
-5.73
-15.70
-24.92
-31.29
-33.07
-29.47
-20.92
-8.86
4.75
18.01
29.56
38.70
45.26
49.37
51.20
50.90
48.63
44.73
39.83
34.67
29.99
26.08
22.75
19.31
15.03
9.49
2.78
-4.60
-12.28
-20.34
-29.47
-40.65
-54.58
-71.09
-88.96
-106.26
-120.97
-131.67
-137.78
-139.43
-137.10
-131.23
-122.07
-109.55
-93.49
-73.73
-50.48
-24.51
2.76
29.51
54.05
75.06
91.97
104.82
114.08
120.40
124.61
127.88
131.62
137.40
146.22
158.04
171.42
183.92
192.95
196.56
194.10
186.00
173.56
158.40
142.47
127.92
117.01
111.73
112.99
119.99
130.05
139.40
144.42
142.92
134.86
122.07
107.52
94.21
84.53
79.85
80.60
86.35
95.84
107.11
117.70
125.21
127.91
125.33
118.42
109.18
99.93
92.37
87.11
83.47
80.10
75.45
68.63
59.72
49.80
40.65
34.15
31.80
34.03
40.10
48.05
55.29
59.49
59.28
54.82
47.47
39.20
31.62
25.28
19.48
12.55
2.76
-10.99
-28.59
-48.82
-69.81
-89.80
-107.61
-122.77
-135.28
-145.06
-151.75
-154.75
-153.63
-148.68
-141.12
-133.05
-126.74
-124.05
-125.80
-131.73
-140.67
-151.10
-161.60
-171.22
-179.64
-187.04
-193.89
-200.69
-207.76
-215.15
-222.51
-228.96
-232.96
-232.34
-224.49
-207.04
-178.61
-139.60
-92.68
-42.57
4.98
44.58
72.73
88.55
93.68
91.33
84.96
77.25
69.80
63.32
58.15
54.56
52.70
52.37
52.76
52.79
51.53
48.75
45.08
41.70
39.73
39.64
41.06
42.84
43.55
41.79
36.70
28.22
17.20
5.36
-5.12
-12.32
-15.41
-15.12
-13.58
-13.68
-18.03
-28.19
-44.47
-66.19
-92.14
-120.89
-150.75
-179.61
-205.12
-225.13
-238.40
-245.09
-246.62
-245.15
-242.66
-240.40
-238.68
-237.20
-235.39
-232.76
-228.72
-222.42
-212.45
-196.79
-173.30
-140.18
-96.76
-43.96
15.58
77.94
138.69
193.73
240.18
276.61
303.12
320.87
331.51
336.70
337.57
334.81
328.54
318.66
304.94
287.16
265.33
239.85
211.98
184.00
159.25
141.42
133.69
137.53
152.21
175.02
201.86
228.46
251.01
266.75
273.87
271.54
259.83
239.53
212.16
179.57
143.86
107.01
70.73
36.12
3.50
-27.50
-57.65
-87.43
-116.65
-144.08
-168.00
-186.79
-199.68
-207.11
-210.39
-211.26
-211.07
-210.59
-209.88
-208.49
-205.82
-201.17
-194.08
-184.27
-171.89
-157.43
-141.77
-125.88
-110.66
-96.88
-85.07
-75.64
-68.83
-64.66
-62.84
-62.64
-63.07
-63.11
-62.06
-59.77
-56.64
-53.33
-50.39
-48.03
-46.08
-44.25
-42.34
-40.46
-38.94
-38.23
-38.63
-40.22
-42.88
-46.35
-50.47
-55.17
-60.41
-66.05
-71.66
-76.43
-79.37
-79.63
-76.83
-71.28
-63.87
-55.79
-48.07
-41.34
-35.72
-30.95
-26.75
-22.94
-19.53
-16.70
-14.58
-13.19
-12.33
-11.75
-11.15
-10.32
-9.23
-7.99
-6.87
-6.19
-6.21
-7.08
-8.71
-10.80
-12.91
-14.67
-15.86
-16.59
-17.25
-18.35
-20.38
-23.58
-27.88
-32.86
-37.84
-41.99
-44.45
-44.54
-41.94
-36.82
-29.76
-21.64
-13.35
-5.56
1.35
7.33
12.45
16.82
20.47
23.37
25.49
26.92
27.82
28.45
29.06
29.77
30.55
31.18
31.48
31.30
30.71
29.90
29.02
28.11
26.99
25.39
23.11
20.20
16.90
13.55
10.40
7.41
4.30
0.68
-3.63
-8.40
-12.99
-16.43
-17.84
-16.63
-12.82
-6.94
0.14
7.49
14.46
20.69
26.10
30.71
34.44
37.11
38.58
38.88
38.30
37.31
36.36
35.70
35.28
34.91
34.35
33.55
32.62
31.69
30.81
29.86
28.65
26.97
24.79
22.22
19.45
16.67
13.93
11.22
8.45
5.50
2.23
-1.50
-5.78
-10.53
-15.34
-19.52
-22.17
-22.54
-20.31
-15.73
-9.61
-2.99
3.17
8.34
12.40
15.58
18.17
20.37
22.27
23.80
24.95
25.75
26.30
26.71
27.07
27.42
27.74
28.01
28.18
28.28
28.32
28.38
28.52
28.84
29.41
30.21
31.22
32.43
34.02
36.30
39.65
44.39
50.49
57.66
65.34
72.94
79.97
86.13
91.25
95.22
98.02
99.79
100.94
102.23
104.52
108.50
114.36
121.60
129.14
135.73
140.24
141.99
140.80
136.72
129.77
119.78
106.55
90.06
70.87
50.08
29.04
8.88
-9.82
-26.95
-42.68
-57.03
-69.64
-79.76
-86.53
-89.36
-88.34
-84.45
-79.33
-74.82
-72.23
-71.92
-73.12
-74.36
-74.10
-71.36
-66.01
-58.55
-49.78
-40.44
-31.12
-22.47
-15.18
-9.92
-6.99
-6.13
-6.61
-7.49
-8.12
-8.17
-7.75
-7.06
-6.33
-5.76
-5.61
-6.35
-8.39
-12.07
-17.23
-23.40
-29.79
-35.68
-40.68
-44.65
-47.76
-50.14
-51.91
-53.00
-53.29
-52.63
-50.83
-47.85
-43.66
-38.39
-32.12
-25.06
-17.45
-9.78
-2.81
2.52
5.33
5.29
2.78
-1.09
-4.85
-7.15
-7.04
-4.10
1.76
10.18
20.35
30.81
39.72
45.45
47.25
45.92
43.46
42.35
44.31
49.56
56.80
63.94
69.36
72.60
74.51
76.40
79.20
82.77
86.01
87.38
85.34
78.62
66.05
46.68
20.10
-13.01
-50.36
-88.43
-123.38
-152.48
-174.77
-191.15
-203.34
-212.74
-219.73
-223.67
-223.71
-219.32
-210.80
-199.04
-185.10
-169.75
-153.11
-134.84
-114.15
-90.56
-64.17
-35.99
-7.83
18.23
40.42
57.94
70.80
79.72
85.45
88.45
88.79
86.38
81.43
74.62
67.12
60.29
55.37
53.15
53.83
57.13
62.38
68.96
76.51
85.21
95.62
108.33
123.43
139.95
155.89
168.38
174.66
172.73
161.86
142.60
116.20
84.30
48.64
11.23
-25.54
-59.01
-86.75
-107.31
-120.56
-127.93
-131.59
-133.78
-135.85
-138.03
-139.60
-139.37
-136.47
-130.54
-121.93
-111.36
-99.72
-87.81
-76.26
-65.59
-56.05
-47.72
-40.14
-32.47
-23.42
-11.53
4.46
25.41
51.45
82.06
115.80
150.59
183.77
212.54
234.60
248.53
254.21
252.48
244.91
233.24
219.02
203.54
187.77
172.69
159.06
147.58
138.49
131.47
125.63
119.76
112.86
104.38
94.48
83.63
72.39
60.92
48.85
35.48
19.99
1.91
-18.90
-41.97
-66.37
-90.59
-112.75
-130.93
-143.60
-150.11
-150.80
-146.83
-139.67
-130.74
-121.25
-112.04
-103.91
-97.35
-92.62
-89.50
-87.31
-85.16
-82.32
-78.50
-73.99
-69.55
-65.99
-63.92
-63.51
-64.51
-66.46
-68.83
-71.26
-73.53
-75.61
-77.51
-79.18
-80.51
-81.23
-81.08
-79.85
-77.53
-74.33
-70.75
-67.43
-65.03
-64.07
-64.69
-66.61
-69.11
-71.19
-71.80
-70.15
-65.95
-59.46
-51.36
-42.53
-33.79
-25.74
-18.67
-12.69
-7.82
-4.06
-1.38
0.24
0.96
1.00
0.66
0.26
0.04
0.17
0.62
1.29
1.98
2.47
2.58
2.20
1.35
0.07
-1.48
-3.15
-4.86
-6.61
-8.56
-10.94
-14.00
-17.90
-22.55
-27.58
-32.30
-35.89
-37.54
-36.76
-33.54
-28.28
-21.73
-14.68
-7.79
-1.51
3.93
8.43
11.97
14.58
16.35
17.43
17.98
18.14
18.04
17.77
17.46
17.22
17.11
17.06
16.85
16.19
14.83
12.70
9.99
7.03
4.13
1.41
-1.20
-3.90
-6.87
-10.17
-13.77
-17.56
-21.41
-25.11
-28.34
-30.59
-31.25
-29.83
-26.15
-20.52
-13.63
-6.39
0.44
6.37
11.30
15.35
18.71
21.47
23.62
25.00
25.47
25.02
23.81
22.15
20.39
18.81
17.59
16.66
15.90
15.08
14.06
12.80
11.30
9.64
7.84
5.91
3.73
1.21
-1.73
-5.15
-9.06
-13.47
-18.31
-23.36
-28.13
-31.87
-33.71
-33.01
-29.57
-23.80
-16.65
-9.24
-2.56
2.86
6.94
9.87
11.94
13.34
14.19
14.55
14.63
14.61
14.71
15.00
15.41
15.78
15.92
15.75
15.28
14.57
13.60
12.29
10.45
7.89
4.53
0.45
-4.09
-8.78
-13.33
-17.58
-21.58
-25.56
-29.88
-34.85
-40.62
-46.99
-53.41
-59.05
-63.07
-64.83
-64.18
-61.41
-57.23
-52.55
-48.24
-44.99
-43.11
-42.41
-42.28
-41.78
-40.03
-36.52
-31.28
-24.79
-17.79
-10.80
-4.07
2.55
9.31
16.41
24.00
32.16
40.96
50.40
60.29
70.16
79.42
87.52
94.22
99.54
103.75
107.20
110.10
112.55
114.44
115.57
115.72
114.82
113.10
111.12
109.68
109.46
110.60
112.48
113.91
113.60
110.77
105.39
98.10
89.69
80.69
71.11
60.64
49.10
36.63
23.84
11.49
0.22
-9.62
-18.06
-25.27
-31.37
-36.33
-39.97
-42.13
-42.79
-42.21
-40.84
-39.25
-37.87
-36.90
-36.32
-35.98
-35.81
-35.84
-36.13
-36.65
-37.12
-37.00
-35.66
-32.70
-28.11
-22.32
-16.03
-9.95
-4.54
0.04
3.79
6.72
8.71
9.55
9.03
7.23
4.45
1.23
-1.88
-4.53
-6.66
-8.44
-10.12
-11.95
-14.01
-16.24
-18.49
-20.59
-22.43
-23.97
-25.29
-26.50
-27.73
-29.14
-30.86
-33.10
-36.01
-39.60
-43.57
-47.22
-49.57
-49.64
-46.85
-41.24
-33.48
-24.66
-15.91
-8.11
-1.69
3.32
7.12
9.96
12.02
13.37
13.95
13.77
12.94
11.70
10.35
9.19
8.37
7.88
7.51
7.04
6.27
5.08
3.42
1.32
-1.18
-3.99
-7.01
-10.14
-13.34
-16.58
-20.01
-23.79
-28.10
-32.95
-37.99
-42.58
-45.79
-46.73
-44.84
-40.10
-33.06
-24.62
-15.77
-7.28
0.42
7.19
13.05
18.04
22.20
25.53
28.06
29.83
30.90
31.27
30.96
29.99
28.40
26.25
23.60
20.54
17.12
13.58
10.13
6.93
3.95
0.99
-2.22
-5.96
-10.29
-15.15
-20.35
-25.79
-31.59
-38.05
-45.41
-53.56
-61.83
-69.03
-73.87
-75.21
-72.62
-66.59
-58.38
-49.56
-41.39
-34.68
-29.54
-25.76
-22.59
-19.18
-15.08
-10.49
-6.08
-2.45
-0.30
0.37
-0.37
-1.17
-0.21
3.89
11.20
20.64
30.75
39.47
45.93
49.49
51.63
54.87
61.35
71.27
83.04
94.64
103.41
109.07
112.08
116.12
126.44
147.91
182.92
231.34
291.86
361.11
436.82
499.94
529.53
514.11
460.46
386.59
309.41
247.30
196.74
153.63
114.63
79.39
48.35
21.93
-1.22
-24.13
-49.82
-81.50
-119.07
-161.83
-207.07
-251.30
-291.33
-325.64
-353.68
-374.89
-389.29
-395.36
-392.42
-379.84
-357.75
-327.42
-292.08
-256.17
-224.01
-199.21
-182.37
-172.10
-165.10
-157.64
-147.05
-133.03
-117.47
-103.18
-92.99
-87.86
-87.44
-90.14
-94.08
-97.41
-98.69
-96.71
-90.39
-79.43
-64.51
-48.04
-33.42
-23.97
-21.30
-24.48
-30.40
-35.14
-36.00
-32.34
-25.54
-17.52
-9.41
-0.80
9.95
24.29
42.83
64.65
88.09
111.43
133.60
154.28
173.59
191.89
209.46
226.75
244.12
261.75
279.30
295.73
309.58
319.20
323.25
320.68
310.94
294.07
270.89
243.28
213.75
185.11
159.38
137.44
118.83
102.36
86.84
71.61
56.91
43.54
32.65
24.86
19.89
16.15
10.95
1.45
-14.27
-36.10
-61.90
-88.19
-111.67
-130.57
-144.96
-156.45
-166.81
-177.18
-187.45
-196.62
-203.29
-206.30
-205.13
-199.84
-191.11
-179.86
-167.12
-153.70
-140.21
-127.13
-114.85
-103.92
-94.81
-87.82
-82.71
-78.73
-74.89
-70.29
-64.55
-57.83
-50.80
-44.16
-38.49
-34.00
-30.61
-28.11
-26.33
-25.20
-24.73
-24.96
-25.84
-27.29
-29.16
-31.30
-33.68
-36.42
-39.80
-44.15
-49.62
-55.93
-62.18
-67.01
-68.90
-66.75
-60.25
-50.11
-37.76
-24.81
-12.57
-1.70
7.73
15.93
23.10
29.26
34.27
38.01
40.56
42.21
43.38
44.38
45.34
46.14
46.63
46.67
46.34
45.82
45.24
44.65
43.85
42.56
40.53
37.67
34.11
30.08
25.79
21.34
16.66
11.60
5.98
-0.38
-7.65
-15.87
-24.80
-33.78
-41.65
-47.00
-48.55
-45.74
-38.83
-28.98
-17.68
-6.28
4.39
14.05
22.69
30.26
36.48
40.97
43.54
44.47
44.44
44.29
44.71
45.85
47.46
48.97
49.96
50.27
50.10
49.76
49.47
49.16
48.47
46.93
44.16
40.15
35.14
29.60
23.99
18.65
13.72
9.11
4.61
-0.21
-5.81
-12.64
-20.88
-30.11
-39.26
-46.71
-50.77
-50.29
-45.02
-35.76
-23.95
-11.26
1.03
12.13
21.72
29.68
35.92
40.27
42.73
43.58
43.41
42.99
43.01
43.81
45.31
47.11
48.72
49.79
50.23
50.18
49.77
48.95
47.42
44.79
40.73
35.30
28.91
22.23
15.90
10.30
5.40
0.88
-3.74
-8.90
-14.95
-22.05
-30.18
-38.92
-47.49
-54.69
-59.18
-59.87
-56.28
-48.72
-38.23
-26.23
-14.15
-3.12
6.23
13.68
19.35
23.44
26.17
27.76
28.42
28.43
28.12
27.85
27.86
28.14
28.53
28.70
28.39
27.50
26.13
24.43
22.48
20.19
17.31
13.59
8.92
3.51
-2.24
-7.84
-12.96
-17.57
-22.02
-26.95
-32.96
-40.47
-49.31
-58.72
-67.38
-73.67
-76.26
-74.34
-68.01
-58.14
-46.08
-33.25
-20.75
-9.30
0.78
9.28
16.07
21.04
24.18
25.73
26.16
26.09
26.08
26.54
27.52
28.87
30.24
31.29
31.82
31.78
31.31
30.54
29.55
28.20
26.19
23.23
19.22
14.35
9.08
3.90
-0.88
-5.26
-9.56
-14.22
-19.62
-25.99
-33.39
-41.70
-50.45
-58.84
-65.64
-69.50
-69.34
-64.77
-56.27
-45.03
-32.58
-20.29
-9.05
0.73
9.02
15.95
21.64
26.16
29.54
31.86
33.28
34.06
34.52
34.99
35.66
36.58
37.57
38.38
38.76
38.60
37.91
36.81
35.40
33.73
31.76
29.37
26.46
22.98
18.97
14.63
10.19
5.90
1.88
-1.90
-5.61
-9.51
-13.85
-18.89
-24.77
-31.47
-38.72
-45.83
-51.79
-55.39
-55.62
-51.94
-44.59
-34.47
-22.94
-11.35
-0.70
8.50
16.20
22.54
27.66
31.63
34.48
36.35
37.50
38.37
39.34
40.63
42.19
43.79
45.11
45.98
46.35
46.33
46.02
45.42
44.40
42.81
40.50
37.55
34.12
30.49
26.85
23.23
19.52
15.57
11.33
6.89
2.46
-1.77
-5.81
-9.86
-14.27
-19.31
-25.12
-31.45
-37.81
-43.40
-47.31
-48.68
-46.94
-42.00
-34.33
-24.98
-15.17
-6.07
1.65
7.90
13.07
17.76
22.34
26.82
30.83
33.90
35.78
36.59
36.87
37.24
38.13
39.56
41.21
42.57
43.30
43.32
42.75
41.83
40.68
39.29
37.52
35.29
32.55
29.42
26.04
22.51
18.90
15.20
11.45
7.67
3.90
0.11
-3.79
-7.93
-12.48
-17.57
-23.28
-29.56
-36.10
-42.33
-47.32
-50.15
-50.05
-46.76
-40.64
-32.55
-23.57
-14.70
-6.71
-0.11
4.76
7.71
8.65
7.77
5.55
2.68
-0.05
-2.08
-3.12
-3.25
-2.77
-2.03
-1.24
-0.48
0.33
1.31
2.44
3.58
4.40
4.54
3.75
1.95
-0.62
-3.56
-6.37
-8.66
-10.29
-11.42
-12.40
-13.64
-15.51
-18.16
-21.60
-25.55
-29.56
-32.94
-34.94
-34.85
-32.23
-27.10
-19.93
-11.54
-2.89
5.15
11.94
17.15
20.67
22.61
23.22
22.80
21.71
20.26
18.76
17.45
16.50
16.01
15.99
16.35
16.89
17.37
17.49
17.04
15.85
13.90
11.29
8.20
4.84
1.35
-2.15
-5.63
-9.05
-12.45
-15.92
-19.68
-23.97
-28.90
-34.32
-39.58
-43.69
-45.59
-44.51
-40.34
-33.60
-25.33
-16.65
-8.49
-1.38
4.44
8.94
12.14
14.05
14.77
14.50
13.60
12.46
11.49
10.89
10.73
10.88
11.11
11.21
10.99
10.40
9.41
8.03
6.22
3.94
1.26
-1.73
-4.76
-7.57
-10.00
-12.05
-13.96
-16.04
-18.68
-22.06
-26.21
-30.83
-35.39
-39.16
-41.37
-41.41
-38.96
-34.10
-27.25
-19.12
-10.44
-1.92
5.91
12.67
18.18
22.40
25.43
27.46
28.70
29.37
29.60
29.42
28.83
27.86
26.59
25.18
23.83
22.69
21.76
20.93
19.96
18.59
16.64
14.06
10.93
7.41
3.69
-0.08
-3.77
-7.30
-10.68
-14.01
-17.55
-21.61
-26.43
-31.86
-37.31
-41.73
-43.92
-43.01
-38.83
-32.03
-23.82
-15.53
-8.14
-2.09
2.67
6.42
9.38
11.62
13.08
13.73
13.69
13.21
12.59
12.01
11.54
11.09
10.54
9.89
9.28
8.95
9.13
9.85
10.85
11.73
12.02
11.53
10.35
8.87
7.56
6.71
6.35
6.13
5.62
4.31
1.86
-1.84
-6.64
-12.04
-17.31
-21.52
-23.81
-23.58
-20.69
-15.47
-8.59
-0.95
6.63
13.54
19.39
24.05
27.55
30.03
31.65
32.60
33.08
33.37
33.70
34.28
35.16
36.23
37.29
38.17
38.85
39.48
40.21
41.06
41.83
42.15
41.63
40.11
37.67
34.62
31.26
27.62
23.57
18.81
13.22
6.84
-0.17
-7.70
-15.75
-24.20
-32.58
-39.88
-44.77
-46.15
-43.72
-38.20
-31.08
-23.98
-18.00
-13.61
-10.69
-9.11
-9.00
-10.72
-14.63
-20.69
-28.36
-36.54
-44.05
-49.81
-53.15
-53.90
-52.33
-49.11
-44.95
-40.49
-36.06
-31.81
-27.75
-23.97
-20.69
-18.04
-15.91
-13.62
-10.14
-4.42
3.98
14.54
25.85
35.93
43.21
46.82
46.97
44.51
40.43
35.46
29.83
23.65
16.89
9.81
2.58
-4.74
-12.26
-20.22
-28.45
-36.52
-43.53
-48.82
-52.12
-53.92
-55.15
-56.55
-58.16
-58.80
-56.75
-50.27
-38.85
-23.47
-6.43
9.55
22.60
32.16
39.42
46.32
54.94
66.60
81.55
99.23
118.28
137.22
154.29
167.95
176.82
180.04
177.31
168.81
155.17
137.08
115.44
91.00
64.53
36.63
7.82
-21.20
-49.48
-75.68
-98.67
-118.05
-134.73
-150.62
-167.56
-186.33
-205.77
-223.32
-235.82
-241.09
-238.67
-230.02
-217.84
-204.99
-193.59
-184.17
-175.50
-164.84
-148.97
-125.70
-95.23
-60.71
-27.35
-0.58
16.17
22.58
21.32
16.54
12.31
11.54
15.76
25.41
40.04
58.35
77.93
95.57
108.07
113.42
111.69
104.90
96.19
88.39
82.89
79.39
76.46
72.56
66.73
58.65
48.32
35.60
20.21
2.05
-18.31
-39.51
-59.70
-77.10
-90.58
-99.84
-105.15
-106.72
-104.44
-97.96
-87.24
-73.08
-57.24
-41.86
-28.69
-18.35
-10.34
-3.49
3.33
10.69
18.50
26.29
33.49
39.65
44.35
47.13
47.56
45.47
41.24
35.73
30.00
24.90
20.85
17.84
15.80
14.90
15.60
18.46
23.62
30.74
38.77
46.41
52.57
56.67
58.82
59.57
59.59
59.48
59.59
60.14
61.29
63.11
65.37
67.47
68.45
67.28
63.24
56.22
46.76
35.71
23.84
11.56
-1.06
-14.02
-27.09
-39.67
-51.03
-60.56
-68.00
-73.33
-76.69
-78.15
-77.74
-75.59
-72.04
-67.60
-62.67
-57.46
-51.86
-45.55
-38.18
-29.46
-19.14
-6.94
7.49
24.46
43.98
65.48
87.65
108.54
126.05
138.39
144.61
144.72
139.47
129.82
116.42
99.41
78.59
53.93
26.04
-3.63
-33.04
-60.03
-82.95
-100.87
-113.59
-121.45
-124.94
-124.69
-121.33
-115.63
-108.40
-100.45
-92.40
-84.55
-76.86
-69.09
-60.98
-52.22
-42.53
-31.56
-18.98
-4.79
10.46
25.62
39.23
50.15
57.91
62.90
65.97
67.97
69.36
70.17
70.32
69.89
69.28
69.00
69.51
70.90
72.87
74.84
76.05
75.85
73.96
70.66
66.79
63.51
61.80
62.02
63.80
66.23
68.37
69.57
69.64
68.66
66.82
64.28
61.25
58.00
54.82
51.71
48.32
44.01
38.32
31.25
23.47
15.98
9.57
4.26
-0.74
-6.70
-14.74
-25.25
-37.80
-51.45
-65.14
-78.10
-89.95
-100.42
-109.15
-115.56
-118.86
-118.49
-114.35
-107.00
-97.57
-87.43
-77.82
-69.44
-62.48
-56.62
-51.43
-46.63
-42.18
-38.31
-35.31
-33.39
-32.53
-32.62
-33.52
-35.18
-37.57
-40.54
-43.69
-46.32
-47.56
-46.71
-43.48
-38.14
-31.49
-24.53
-18.13
-12.76
-8.38
-4.55
-0.75
3.49
8.45
14.34
21.34
29.56
38.90
48.81
58.27
65.86
70.31
70.86
67.66
61.65
54.23
46.65
39.64
33.22
26.92
20.11
12.41
3.87
-5.11
-13.93
-22.07
-29.31
-35.63
-41.09
-45.62
-48.84
-50.24
-49.38
-46.23
-41.35
-35.79
-30.76
-27.28
-25.87
-26.57
-28.97
-32.46
-36.31
-39.68
-41.80
-41.98
-39.94
-35.93
-30.73
-25.47
-21.22
-18.71
-18.05
-18.80
-20.03
-20.57
-19.17
-14.74
-6.65
4.97
19.08
33.83
46.97
56.58
61.65
62.47
60.42
57.40
55.06
54.25
54.90
56.32
57.72
58.56
58.64
57.97
56.58
54.33
51.01
46.46
40.76
34.24
27.47
21.08
15.57
11.27
8.22
6.21
4.85
3.66
2.18
0.08
-2.77
-6.34
-10.61
-15.63
-21.59
-28.73
-37.14
-46.55
-56.26
-65.16
-72.12
-76.24
-77.23
-75.48
-71.98
-67.97
-64.59
-62.49
-61.66
-61.38
-60.51
-57.87
-52.72
-45.02
-35.40
-24.92
-14.68
-5.48
2.19
8.23
12.81
16.34
19.46
22.90
27.14
32.08
36.91
40.32
41.12
38.76
33.67
26.98
20.06
13.83
8.64
4.42
1.12
-0.83
-0.67
2.28
8.02
15.58
23.35
29.68
33.62
35.13
34.91
33.65
31.64
28.58
23.94
17.53
9.78
1.69
-5.58
-11.09
-14.43
-15.67
-15.18
-13.46
-10.96
-8.03
-4.85
-1.42
2.30
6.37
10.72
15.21
19.58
23.55
26.64
28.25
27.77
24.83
19.66
13.04
6.16
0.04
-4.71
-7.96
-9.77
-10.06
-8.57
-5.13
-0.11
5.40
9.85
11.82
10.57
6.31
-0.02
-7.22
-14.17
-19.97
-23.99
-25.75
-25.11
-22.37
-18.27
-13.77
-9.56
-5.79
-2.00
2.64
8.81
16.63
25.66
35.04
43.91
51.66
57.99
62.81
66.07
67.62
67.29
65.04
61.04
55.73
49.65
43.30
36.89
30.35
23.32
15.30
5.84
-5.41
-18.51
-33.25
-49.00
-64.77
-79.20
-90.81
-98.27
-100.72
-98.09
-91.10
-81.20
-70.21
-59.86
-51.42
-45.38
-41.50
-38.90
-36.40
-32.88
-27.59
-20.31
-11.43
-1.80
7.54
15.67
22.06
26.67
29.77
31.69
32.53
32.03
29.79
25.56
19.46
12.02
4.00
-3.83
-10.84
-16.50
-20.22
-21.30
-18.94
-12.57
-2.16
11.60
27.24
42.88
56.55
66.69
72.37
73.34
70.08
63.49
54.79
45.36
36.51
29.29
24.25
21.32
19.74
18.31
15.77
11.19
4.24
-4.73
-14.88
-25.21
-34.89
-43.50
-51.06
-57.92
-64.44
-70.76
-76.55
-81.15
-83.85
-84.18
-82.26
-78.71
-74.32
-69.70
-64.87
-59.25
-52.01
-42.43
-30.44
-16.75
-2.74
9.96
19.89
26.16
28.62
27.77
24.58
20.05
14.99
9.86
4.81
-0.18
-5.05
-9.64
-13.76
-17.25
-20.14
-22.51
-24.33
-25.38
-25.32
-23.81
-20.71
-16.02
-9.72
-1.72
8.13
19.76
32.60
45.49
56.99
65.84
71.47
74.10
74.57
73.91
72.85
71.65
70.12
67.75
64.03
58.48
50.92
41.32
29.92
17.16
3.65
-9.86
-22.54
-33.52
-42.10
-48.03
-51.65
-54.00
-56.47
-60.33
-66.14
-73.39
-80.57
-85.70
-86.98
-83.46
-75.33
-63.80
-50.70
-37.82
-26.50
-17.25
-9.82
-3.37
3.00
9.87
17.23
24.46
30.66
35.05
37.31
37.74
37.08
36.22
35.89
36.46
37.99
40.32
43.25
46.53
49.91
53.03
55.53
57.12
57.74
57.57
56.89
55.94
54.64
52.74
49.85
45.79
40.70
35.01
29.31
24.11
19.79
16.53
14.38
13.21
12.68
12.18
10.91
8.14
3.50
-2.83
-10.05
-17.04
-22.73
-26.43
-28.08
-28.22
-27.67
-27.26
-27.44
-28.10
-28.70
-28.47
-26.90
-23.91
-19.95
-15.82
-12.40
-10.38
-10.13
-11.75
-15.11
-19.87
-25.45
-31.07
-35.73
-38.43
-38.51
-35.79
-30.70
-24.14
-17.14
-10.59
-5.08
-0.73
2.59
5.22
7.53
9.81
12.20
14.61
16.85
18.60
19.62
19.78
19.14
17.88
16.23
14.45
12.78
11.45
10.72
10.75
11.55
12.90
14.49
15.95
17.05
17.71
18.00
18.04
17.85
17.38
16.54
15.32
13.93
12.79
12.50
13.58
16.26
20.30
24.99
29.28
32.16
32.89
31.21
27.37
22.03
16.06
10.44
6.05
3.56
3.20
4.79
7.72
11.28
14.89
18.36
21.89
25.78
30.12
34.40
37.53
37.97
34.34
25.77
12.17
-5.71
-26.55
-48.76
-70.83
-91.45
-109.69
-125.10
-137.74
-148.06
-156.49
-162.99
-166.73
-166.39
-160.69
-149.28
-132.99
-113.50
-92.55
-71.09
-48.97
-25.34
0.61
28.97
58.86
88.68
116.65
141.29
161.73
177.72
189.60
197.99
203.54
206.56
206.99
204.45
198.50
188.93
175.72
158.88
138.36
114.07
86.23
55.75
24.34
-5.85
-32.82
-55.46
-73.77
-88.57
-100.84
-110.96
-118.29
-121.29
-118.20
-107.78
-90.02
-66.22
-38.65
-9.94
17.54
42.05
62.74
79.66
93.69
106.19
118.57
131.69
145.40
158.43
168.72
173.92
172.23
162.89
146.46
124.79
100.58
76.76
55.94
39.68
28.23
20.57
14.95
9.50
2.87
-5.48
-15.43
-26.45
-37.89
-49.25
-60.25
-70.75
-80.65
-89.85
-98.05
-104.86
-109.73
-112.17
-111.92
-109.10
-104.25
-98.27
-92.14
-86.66
-82.28
-79.09
-76.96
-75.59
-74.73
-74.06
-73.30
-72.14
-70.38
-67.97
-65.05
-61.91
-58.81
-55.93
-53.28
-50.76
-48.31
-45.90
-43.58
-41.38
-39.30
-37.25
-35.17
-32.99
-30.80
-28.65
-26.69
-25.10
-24.09
-23.83
-24.30
-25.27
-26.12
-26.05
-24.29
-20.48
-14.76
-7.87
-0.84
5.34
10.02
13.00
14.44
14.65
13.96
12.55
10.59
8.24
5.79
3.59
1.95
0.97
0.44
-0.04
-0.96
-2.60
-4.98
-7.81
-10.70
-13.31
-15.54
-17.46
-19.16
-20.64
-21.72
-22.20
-22.02
-21.43
-20.92
-21.05
-22.11
-23.89
-25.73
-26.75
-26.25
-23.98
-20.25
-15.70
-11.03
-6.74
-3.04
0.06
2.58
4.45
5.50
5.64
4.93
3.68
2.29
1.21
0.65
0.59
0.76
0.82
0.49
-0.36
-1.64
-3.24
-5.00
-6.85
-8.69
-10.42
-11.83
-12.73
-13.06
-12.99
-12.93
-13.41
-14.82
-17.22
-20.28
-23.41
-25.89
-27.15
-26.87
-25.15
-22.41
-19.31
-16.61
-14.88
-14.31
-14.68
-15.46
-16.09
-16.22
-15.86
-15.25
-14.69
-14.33
-14.12
-13.95
-13.79
-13.71
-13.80
-13.95
-13.80
-12.94
-11.27
-9.31
-8.12
-8.84
-12.19
-17.99
-25.31
-32.76
-39.00
-43.00
-44.13
-42.02
-36.58
-28.09
-17.34
-5.58
5.71
15.41
23.06
28.95
33.68
37.66
40.84
42.80
43.12
41.77
39.20
36.14
33.08
29.99
26.25
21.09
14.15
5.93
-2.18
-8.41
-11.29
-10.28
-5.84
0.81
8.26
15.37
21.42
26.05
28.92
29.69
28.08
24.12
18.39
11.81
5.26
-0.89
-6.99
-13.84
-21.89
-30.56
-38.01
-41.77
-39.88
-32.18
-20.62
-8.55
0.89
6.41
9.25
12.43
19.07
30.70
46.49
63.78
79.60
91.94
100.14
104.37
104.47
99.39
87.57
68.20
42.53
14.12
-12.07
-31.72
-42.79
-46.16
-44.85
-42.26
-40.74
-41.12
-43.20
-46.70
-51.90
-59.49
-70.01
-83.39
-98.86
-115.32
-131.71
-147.14
-160.81
-171.83
-179.28
-182.58
-181.86
-177.95
-172.11
-165.32
-157.69
-148.46
-136.51
-121.16
-102.77
-82.83
-63.38
-46.26
-32.42
-21.76
-13.47
-6.48
0.13
7.07
14.90
24.02
34.38
45.28
55.28
62.72
66.42
66.27
63.28
59.19
55.63
53.46
52.74
52.89
53.38
54.15
55.79
59.37
66.01
76.49
90.89
108.60
128.39
148.55
167.27
182.93
194.54
202.01
206.12
207.96
208.16
206.16
199.99
187.04
165.21
134.18
95.84
53.89
12.79
-23.26
-50.94
-67.99
-73.41
-67.78
-53.60
-35.08
-17.12
-3.64
3.82
6.54
7.67
10.53
16.99
26.82
38.28
49.20
57.92
63.62
66.08
65.34
61.64
55.63
48.51
42.00
37.71
36.52
38.23
41.66
45.38
48.44
50.74
52.94
55.79
59.52
63.55
66.80
68.29
67.82
66.04
63.99
62.33
60.77
57.97
52.32
42.83
29.93
15.55
2.37
-7.22
-12.11
-12.75
-10.74
-8.03
-6.01
-5.36
-6.07
-8.10
-11.73
-17.54
-26.09
-37.23
-49.86
-61.99
-71.42
-76.49
-76.73
-72.99
-67.05
-61.08
-56.91
-55.81
-58.23
-63.92
-71.95
-80.84
-88.88
-94.63
-97.34
-97.11
-94.67
-90.63
-85.04
-77.13
-65.71
-49.96
-29.90
-6.52
18.61
43.92
68.14
90.41
109.94
125.84
137.01
142.39
141.21
133.07
118.08
96.73
69.88
38.93
5.84
-26.90
-56.61
-80.87
-98.06
-107.56
-109.68
-105.50
-96.54
-84.49
-71.06
-57.78
-45.84
-36.05
-28.84
-24.43
-22.84
-23.85
-26.85
-30.68
-33.79
-34.56
-31.86
-25.35
-15.51
-3.42
9.65
22.43
33.90
43.22
50.01
54.39
57.02
58.86
60.71
62.81
64.60
64.98
62.71
56.97
47.78
36.05
23.47
11.91
3.10
-1.92
-2.87
-0.24
4.96
11.34
17.25
20.98
20.90
16.00
6.22
-7.27
-22.30
-36.31
-47.22
-53.98
-56.81
-56.82
-55.52
-54.24
-53.86
-54.83
-57.27
-61.21
-66.62
-73.35
-81.11
-89.27
-96.85
-102.68
-105.62
-104.96
-100.63
-93.19
-83.65
-73.06
-62.33
-52.01
-42.36
-33.38
-24.99
-17.10
-9.75
-3.18
2.15
5.50
6.04
3.15
-3.38
-12.98
-24.39
-35.73
-44.98
-50.45
-51.27
-47.51
-40.20
-30.86
-21.01
-11.69
-3.28
4.33
11.46
18.13
23.93
28.09
29.72
28.32
23.99
17.70
11.03
5.85
3.81
5.83
11.81
20.67
30.72
40.21
47.87
53.23
56.42
57.84
57.66
55.60
51.10
43.47
32.25
17.35
-0.99
-22.17
-44.96
-67.38
-86.59
-99.29
-102.68
-95.49
-78.68
-55.18
-28.91
-3.25
19.91
40.34
58.77
75.80
91.35
104.79
115.64
124.19
131.43
138.40
145.31
151.18
154.17
152.57
145.62
133.91
119.04
102.90
87.05
72.44
59.45
48.14
38.29
29.39
20.63
11.03
-0.10
-12.83
-26.55
-40.12
-52.57
-63.31
-72.36
-79.92
-85.95
-89.88
-90.64
-87.04
-78.21
-63.86
-44.57
-21.74
2.45
25.34
44.18
56.80
62.19
60.75
54.03
44.14
33.07
22.25
12.57
4.57
-1.39
-5.15
-6.93
-7.39
-7.50
-8.09
-9.45
-11.10
-12.03
-11.07
-7.50
-1.38
6.57
15.16
23.23
29.91
34.79
37.77
38.85
37.92
34.85
29.70
23.02
15.98
10.32
7.69
9.16
14.69
23.18
32.83
41.79
48.71
52.94
54.42
53.23
49.34
42.56
32.81
20.53
6.83
-6.50
-17.46
-24.31
-26.04
-22.59
-14.80
-4.10
7.85
19.45
29.40
36.73
40.79
41.28
38.29
32.35
24.50
16.20
8.91
3.77
1.15
0.57
0.86
0.68
-0.90
-4.05
-8.09
-11.75
-13.62
-12.62
-8.34
-1.09
8.21
18.35
28.13
36.54
42.85
46.58
47.47
45.45
40.67
33.58
24.98
15.93
7.57
0.94
-3.23
-4.61
-3.31
0.32
5.74
12.34
19.45
26.34
32.21
36.28
37.91
36.73
32.76
26.42
18.41
9.60
0.87
-7.00
-13.51
-18.46
-22.15
-25.22
-28.51
-32.68
-37.85
-43.47
-48.33
-51.04
-50.44
-45.99
-37.83
-26.58
-13.21
1.25
15.70
28.99
40.02
47.87
51.94
52.10
48.70
42.36
33.94
24.33
14.36
4.78
-3.92
-11.43
-17.70
-22.78
-26.79
-29.83
-32.10
-33.94
-35.79
-38.19
-41.48
-45.74
-50.73
-55.94
-60.86
-65.01
-68.11
-70.10
-71.13
-71.60
-71.98
-72.63
-73.55
-74.23
-73.81
-71.40
-66.48
-59.27
-50.65
-41.85
-33.92
-27.39
-22.10
-17.35
-12.33
-6.48
0.19
7.09
13.37
18.31
21.80
24.38
27.06
30.79
36.07
42.63
49.56
55.64
59.63
60.59
58.02
51.98
43.06
32.30
20.99
10.28
0.86
-7.14
-14.01
-20.21
-26.17
-32.08
-38.13
-44.48
-51.24
-58.28
-64.97
-70.14
-72.37
-70.46
-64.03
-53.74
-41.19
-28.42
-17.24
-8.70
-2.89
0.85
3.50
5.93
8.53
11.26
13.74
15.58
16.61
16.88
16.60
15.99
15.07
13.74
11.77
9.10
5.87
2.47
-0.55
-2.80
-4.20
-4.98
-5.59
-6.46
-7.78
-9.44
-11.07
-12.23
-12.64
-12.33
-11.63
-11.09
-11.35
-12.81
-15.53
-19.08
-22.59
-24.94
-25.06
-22.25
-16.42
-8.03
2.02
12.78
23.47
33.58
42.86
51.23
58.60
64.91
70.11
74.24
77.40
79.68
81.03
81.22
79.82
76.33
70.30
61.56
50.35
37.41
23.93
11.30
0.70
-7.22
-12.57
-16.18
-19.22
-22.75
-27.40
-33.14
-39.42
-45.42
-50.27
-53.19
-53.53
-50.84
-45.10
-37.03
-28.26
-21.16
-18.12
-20.53
-27.84
-37.44
-45.29
-47.56
-42.16
-29.61
-12.80
4.31
18.30
27.38
31.61
32.19
30.48
27.36
23.13
17.92
12.14
6.64
2.48
0.43
0.60
2.44
4.97
7.29
8.90
9.80
10.34
10.95
11.81
12.77
13.44
13.32
12.08
9.64
6.20
2.15
-2.10
-6.13
-9.60
-12.28
-13.97
-14.56
-13.92
-11.94
-8.52
-3.72
2.18
8.62
14.90
20.29
24.26
26.64
27.55
27.36
26.45
25.09
23.46
21.64
19.73
17.87
16.16
14.67
13.37
12.21
11.08
9.96
8.79
7.54
6.05
4.13
1.63
-1.41
-4.72
-7.86
-10.44
-12.27
-13.48
-14.49
-15.84
-17.91
-20.84
-24.36
-27.87
-30.47
-31.24
-29.38
-24.58
-17.09
-7.84
1.86
10.61
17.38
21.82
24.27
25.53
26.45
27.56
28.92
30.22
31.01
30.98
30.03
28.20
25.55
22.01
17.56
12.32
6.69
1.33
-3.10
-6.19
-7.94
-8.75
-9.18
-9.75
-10.73
-12.20
-13.96
-15.76
-17.31
-18.33
-18.71
-18.50
-17.97
-17.39
-16.89
-16.32
-15.29
-13.39
-10.46
-6.66
-2.46
1.63
5.26
8.33
10.91
13.07
14.74
15.69
15.74
14.80
13.07
10.88
8.63
6.63
5.09
4.08
3.62
3.73
4.44
5.72
7.46
9.40
11.17
12.40
12.77
12.15
10.55
8.12
5.02
1.40
-2.65
-7.02
-11.60
-16.17
-20.51
-24.45
-27.94
-31.02
-33.71
-35.87
-37.11
-36.91
-34.74
-30.47
-24.39
-17.26
-10.03
-3.53
1.80
5.91
9.02
11.42
13.25
14.52
15.21
15.40
15.30
15.19
15.32
15.73
16.28
16.67
16.60
15.88
14.55
12.83
11.00
9.33
7.91
6.73
5.62
4.43
3.06
1.46
-0.34
-2.42
-4.81
-7.59
-10.78
-14.30
-17.93
-21.28
-23.88
-25.26
-25.05
-23.12
-19.63
-15.01
-9.85
-4.74
-0.09
3.88
7.10
9.61
11.44
12.65
13.29
13.44
13.21
12.73
12.05
11.22
10.21
9.06
7.84
6.66
5.65
4.86
4.26
3.73
3.08
2.18
0.99
-0.46
-2.06
-3.67
-5.19
-6.56
-7.80
-9.01
-10.32
-11.97
-14.07
-16.57
-19.15
-21.23
-22.13
-21.31
-18.61
-14.27
-8.93
-3.40
1.58
5.45
8.03
9.37
9.77
9.56
9.11
8.66
8.34
8.18
8.10
8.02
7.86
7.63
7.35
7.09
6.88
6.70
6.46
6.02
5.22
3.97
2.24
0.11
-2.25
-4.62
-6.86
-8.90
-10.82
-12.78
-14.99
-17.60
-20.64
-23.95
-27.11
-29.56
-30.72
-30.16
-27.77
-23.87
-19.12
-14.23
-9.85
-6.32
-3.68
-1.78
-0.46
0.40
0.85
0.91
0.59
-0.03
-0.85
-1.73
-2.53
-3.10
-3.30
-3.05
-2.36
-1.30
-0.04
1.23
2.28
2.86
2.81
2.01
0.55
-1.29
-3.13
-4.60
-5.56
-6.15
-6.68
-7.44
-8.50
-9.69
-10.65
-11.11
-11.00
-10.50
-9.77
-8.89
-7.61
-5.60
-2.62
1.27
5.66
10.00
13.85
16.88
18.82
19.30
17.89
14.39
9.23
3.62
-0.76
-2.45
-1.01
2.77
7.19
10.47
11.62
10.74
8.76
6.79
5.48
4.80
4.27
3.34
1.73
-0.42
-2.76
-4.93
-6.70
-8.08
-9.28
-10.58
-12.27
-14.43
-16.96
-19.47
-21.42
-22.27
-21.65
-19.53
-16.21
-12.22
-8.14
-4.42
-1.31
1.16
2.99
4.20
4.75
4.62
3.92
2.92
2.02
1.57
1.68
2.09
2.31
1.84
0.56
-1.19
-2.77
-3.50
-3.08
-1.73
-0.06
1.24
1.75
1.48
0.71
-0.23
-1.13
-2.03
-3.06
-4.32
-5.83
-7.56
-9.46
-11.42
-13.29
-14.75
-15.44
-15.04
-13.42
-10.73
-7.30
-3.55
0.14
3.49
6.32
8.49
9.87
10.40
10.19
9.46
8.56
7.82
7.43
7.39
7.58
7.79
7.86
7.71
7.39
6.93
6.34
5.59
4.60
3.33
1.81
0.14
-1.53
-3.08
-4.48
-5.72
-6.92
-8.16
-9.55
-11.22
-13.18
-15.38
-17.55
-19.28
-20.08
-19.53
-17.46
-14.01
-9.64
-5.01
-0.74
2.73
5.24
6.86
7.77
8.20
8.29
8.10
7.65
7.01
6.27
5.61
5.22
5.23
5.66
6.38
7.12
7.59
7.52
6.78
5.44
3.75
2.08
0.80
0.05
-0.22
-0.36
-0.81
-1.98
-4.08
-7.08
-10.67
-14.42
-17.77
-20.15
-21.09
-20.30
-17.78
-13.84
-9.05
-4.10
0.41
4.05
6.72
8.53
9.69
10.41
10.85
11.03
10.92
10.53
9.89
9.11
8.33
7.70
7.31
7.16
7.19
7.26
7.21
6.88
6.21
5.16
3.81
2.23
0.54
-1.18
-2.89
-4.62
-6.47
-8.56
-11.01
-13.86
-16.93
-19.84
-22.00
-22.82
-21.91
-19.23
-15.14
-10.24
-5.23
-0.61
3.31
6.48
8.96
10.87
12.29
13.26
13.78
13.85
13.54
12.95
12.26
11.64
11.15
10.79
10.45
10.02
9.48
8.87
8.22
7.50
6.65
5.60
4.32
2.92
1.55
0.29
-0.90
-2.16
-3.69
-5.62
-7.97
-10.55
-13.05
-15.08
-16.16
-15.95
-14.32
-11.43
-7.75
-3.89
-0.37
2.51
4.78
6.61
8.22
9.72
11.06
12.10
12.80
13.15
13.26
13.21
13.05
12.74
12.20
11.42
10.49
9.51
8.57
7.69
6.76
5.68
4.31
2.60
0.61
-1.51
-3.56
-5.33
-6.70
-7.69
-8.45
-9.23
-10.27
-11.70
-13.55
-15.72
-18.04
-20.26
-22.07
-23.12
-23.01
-21.43
-18.25
-13.60
-7.86
-1.53
4.81
10.62
15.41
18.77
20.43
20.33
18.63
15.71
12.07
8.22
4.63
1.65
-0.48
-1.66
-1.92
-1.43
-0.46
0.71
1.82
2.76
3.57
4.32
5.12
5.97
6.75
7.28
7.36
6.90
5.91
4.48
2.71
0.67
-1.56
-3.85
-5.94
-7.45
-8.01
-7.33
-5.35
-2.27
1.49
5.42
8.99
11.85
13.77
14.75
14.97
14.65
14.02
13.22
12.27
11.15
9.85
8.46
7.21
6.41
6.36
7.24
9.04
11.48
14.09
16.23
17.22
16.52
13.85
9.26
3.19
-3.66
-10.40
-16.18
-20.32
-22.51
-22.88
-21.97
-20.52
-19.21
-18.37
-17.90
-17.37
-16.31
-14.51
-12.14
-9.63
-7.40
-5.65
-4.23
-2.83
-1.19
0.73
2.68
4.35
5.48
6.00
6.02
5.75
5.35
4.88
4.34
3.65
2.81
1.90
1.12
0.73
0.90
1.61
2.65
3.65
4.30
4.40
4.01
3.28
2.37
1.35
0.24
-0.96
-2.19
-3.37
-4.42
-5.34
-6.21
-7.01
-7.59
-7.68
-6.99
-5.37
-2.90
0.12
3.33
6.38
9.10
11.38
13.23
14.63
15.56
16.07
16.22
16.17
16.08
16.04
16.12
16.28
16.40
16.39
16.17
15.73
15.15
14.56
14.10
13.83
13.68
13.42
12.72
11.29
9.09
6.43
3.92
2.20
1.67
2.11
2.68
2.12
-0.77
-6.62
-15.28
-25.84
-37.04
-47.65
-56.77
-63.80
-68.29
-69.85
-68.17
-63.32
-55.89
-47.08
-38.27
-30.59
-24.53
-19.82
-15.66
-11.16
-5.74
0.71
7.83
14.94
21.44
26.96
31.52
35.44
39.06
42.50
45.51
47.60
48.39
47.89
46.62
45.26
44.35
43.88
43.41
42.24
39.89
36.24
31.55
26.21
20.60
15.00
9.64
4.87
1.04
-1.52
-2.80
-3.05
-2.77
-2.55
-2.77
-3.58
-4.82
-6.14
-7.11
-7.31
-6.47
-4.55
-1.81
1.23
3.89
5.54
5.88
4.97
3.22
1.16
-0.74
-2.20
-3.16
-3.65
-3.79
-3.73
-3.62
-3.60
-3.77
-4.06
-4.29
-4.19
-3.61
-2.58
-1.36
-0.25
0.58
1.19
1.88
2.90
4.29
5.74
6.70
6.71
5.67
3.95
2.24
1.19
1.03
1.48
1.87
1.57
0.25
-1.96
-4.54
-6.96
-8.83
-9.99
-10.45
-10.18
-9.10
-7.07
-3.98
0.10
4.92
10.10
15.21
19.88
23.85
26.98
29.20
30.51
30.96
30.72
30.19
30.00
30.82
33.18
37.24
42.72
49.00
55.51
61.70
67.28
72.03
75.69
77.95
78.46
77.05
73.84
69.21
63.69
57.84
52.27
47.55
44.11
41.87
40.03
37.06
31.04
20.49
4.98
-14.53
-35.91
-56.59
-74.41
-88.16
-97.71
-103.68
-106.94
-108.15
-107.65
-105.39
-100.89
-93.54
-82.79
-68.67
-52.04
-34.69
-18.83
-6.47
1.34
4.74
4.83
3.14
1.09
-0.29
-0.39
1.14
4.30
8.71
13.45
17.19
18.53
16.56
11.13
2.90
-6.97
-17.21
-26.76
-34.84
-40.96
-44.81
-46.28
-45.59
-43.26
-40.16
-37.22
-35.25
-34.68
-35.44
-37.17
-39.30
-41.34
-42.84
-43.50
-43.10
-41.48
-38.68
-34.98
-30.94
-27.25
-24.52
-23.09
-22.93
-23.70
-24.96
-26.27
-27.36
-28.08
-28.38
-28.25
-27.78
-27.09
-26.35
-25.74
-25.33
-25.12
-24.98
-24.70
-24.11
-23.12
-21.77
-20.20
-18.64
-17.34
-16.43
-15.98
-15.88
-15.95
-15.90
-15.43
-14.26
-12.20
-9.22
-5.43
-1.17
3.16
7.16
10.52
13.06
14.73
15.57
15.70
15.25
14.39
13.37
12.38
11.54
10.87
10.32
9.79
9.22
8.63
8.06
7.55
7.04
6.43
5.59
4.44
2.99
1.33
-0.43
-2.22
-4.00
-5.75
-7.39
-8.78
-9.72
-9.99
-9.49
-8.20
-6.28
-3.96
-1.58
0.55
2.19
3.16
3.41
3.00
2.03
0.61
-1.16
-3.15
-5.21
-7.15
-8.77
-9.93
-10.57
-10.75
-10.64
-10.45
-10.37
-10.51
-10.89
-11.41
-11.99
-12.51
-12.96
-13.43
-14.11
-15.21
-16.92
-19.24
-21.98
-24.69
-26.83
-27.84
-27.37
-25.34
-22.01
-17.91
-13.62
-9.69
-6.45
-3.99
-2.27
-1.16
-0.56
-0.42
-0.71
-1.32
-2.07
-2.75
-3.16
-3.18
-2.85
-2.30
-1.74
-1.36
-1.22
-1.25
-1.36
-1.44
-1.50
-1.65
-2.04
-2.74
-3.75
-4.98
-6.32
-7.78
-9.40
-11.23
-13.14
-14.79
-15.69
-15.39
-13.69
-10.68
-6.79
-2.58
1.41
4.79
7.38
9.17
10.27
10.80
10.90
10.71
10.36
9.99
9.73
9.70
9.95
10.52
11.30
12.16
12.89
13.34
13.42
13.11
12.45
11.50
10.29
8.83
7.16
5.36
3.49
1.64
-0.21
-2.14
-4.30
-6.85
-9.81
-12.99
-15.97
-18.17
-19.03
-18.26
-15.93
-12.48
-8.51
-4.65
-1.30
1.37
3.41
4.95
6.13
7.04
7.73
8.23
8.52
8.55
8.33
7.91
7.43
7.03
6.82
6.81
6.89
6.94
6.84
6.53
6.04
5.38
4.59
3.65
2.54
1.22
-0.34
-2.18
-4.34
-6.85
-9.69
-12.70
-15.53
-17.72
-18.77
-18.30
-16.24
-12.85
-8.66
-4.27
-0.20
3.27
6.09
8.31
10.02
11.21
11.91
12.13
11.98
11.63
11.23
10.92
10.79
10.83
11.05
11.41
11.89
12.44
12.99
13.45
13.71
13.70
13.42
12.90
12.26
11.52
10.63
9.46
7.87
5.81
3.48
1.27
-0.29
-0.74
0.18
2.46
5.86
9.99
14.44
18.83
22.87
26.35
29.11
31.08
32.28
32.74
32.56
31.83
30.63
29.05
27.21
25.29
23.48
21.92
20.63
19.42
18.04
16.25
13.98
11.34
8.55
5.82
3.23
0.71
-1.88
-4.65
-7.61
-10.69
-13.78
-16.79
-19.57
-21.90
-23.42
-23.72
-22.49
-19.75
-15.85
-11.36
-6.92
-2.92
0.55
3.67
6.65
9.61
12.44
14.95
16.96
18.40
19.34
19.90
20.18
20.24
20.11
19.84
19.50
19.19
18.97
18.82
18.64
18.29
17.63
16.58
15.14
13.34
11.26
8.94
6.39
3.60
0.51
-2.89
-6.53
-10.18
-13.42
-15.78
-16.76
-16.10
-13.77
-10.05
-5.38
-0.27
4.87
9.67
13.77
16.84
18.69
19.36
19.22
18.81
18.68
19.08
19.95
20.96
21.81
22.39
22.89
23.62
24.84
26.57
28.61
30.58
32.18
33.23
33.74
33.84
33.74
33.60
33.49
33.43
33.40
33.33
33.18
32.92
32.55
32.14
31.91
32.14
33.20
35.38
38.80
43.26
48.31
53.34
57.70
60.82
62.39
62.38
61.13
59.20
57.20
55.61
54.57
53.95
53.46
52.87
52.09
51.16
50.05
48.54
46.21
42.63
37.70
31.84
25.85
20.55
16.34
12.90
9.39
4.87
-1.16
-8.44
-16.12
-23.20
-29.17
-34.36
-39.91
-47.39
-58.14
-72.85
-91.32
-112.49
-134.60
-155.50
-172.92
-184.91
-190.23
-188.64
-181.16
-169.88
-157.53
-146.77
-139.49
-136.33
-136.56
-138.47
-140.17
-140.40
-139.18
-137.69
-137.26
-138.18
-138.97
-136.78
-128.72
-113.25
-90.82
-63.35
-33.16
-2.13
28.36
56.76
80.85
98.00
106.31
105.82
98.95
89.68
81.84
77.62
77.04
78.61
80.60
82.02
82.98
84.29
87.01
91.79
98.64
106.98
115.95
124.58
132.07
137.95
142.08
144.61
145.86
146.16
145.66
144.13
141.01
135.48
126.90
115.10
100.64
84.74
68.89
54.42
42.04
31.70
22.75
14.34
5.74
-3.31
-12.68
-21.91
-30.39
-37.57
-43.02
-46.61
-48.57
-49.41
-49.76
-50.08
-50.42
-50.30
-48.82
-44.97
-38.07
-28.11
-15.85
-2.79
9.23
18.47
23.79
24.89
22.27
16.93
9.93
2.11
-5.94
-13.66
-20.42
-25.47
-28.31
-28.91
-27.84
-26.08
-24.59
-23.88
-23.88
-24.18
-24.34
-24.31
-24.37
-25.00
-26.51
-28.80
-31.38
-33.62
-35.09
-35.76
-36.05
-36.51
-37.55
-39.14
-40.72
-41.41
-40.34
-36.96
-31.33
-24.10
-16.49
-9.98
-5.98
-5.40
-8.18
-13.24
-18.66
-22.37
-22.94
-20.11
-14.72
-8.14
-1.49
4.80
10.83
16.66
21.66
24.54
23.94
19.25
11.15
1.45
-7.79
-15.11
-20.29
-24.25
-28.43
-34.08
-41.77
-51.22
-61.43
-70.93
-78.13
-81.78
-81.35
-77.31
-70.98
-64.13
-58.32
-54.40
-52.38
-51.69
-51.58
-51.50
-51.15
-50.40
-49.07
-46.85
-43.51
-39.05
-33.88
-28.77
-24.54
-21.76
-20.50
-20.32
-20.42
-19.98
-18.47
-15.84
-12.50
-9.08
-6.24
-4.31
-3.40
-3.38
-4.14
-5.67
-7.96
-10.87
-13.90
-16.26
-17.02
-15.48
-11.47
-5.44
1.67
8.71
14.58
18.55
20.29
19.84
17.53
13.85
9.43
4.88
0.78
-2.45
-4.58
-5.66
-5.94
-5.82
-5.62
-5.51
-5.41
-5.12
-4.49
-3.54
-2.52
-1.86
-1.99
-3.15
-5.25
-7.81
-10.00
-10.98
-10.20
-7.62
-3.92
-0.20
2.32
2.86
1.31
-1.72
-5.10
-7.70
-8.71
-7.94
-5.79
-3.13
-0.93
-0.04
-0.93
-3.54
-7.36
-11.51
-15.03
-17.11
-17.31
-15.60
-12.34
-8.17
-3.80
0.03
2.73
3.89
3.43
1.67
-0.73
-2.84
-3.87
-3.39
-1.54
1.15
4.05
6.72
9.11
11.37
13.57
15.53
16.93
17.56
17.56
17.43
17.64
18.26
18.83
18.58
16.92
13.89
10.16
6.67
4.14
2.68
1.85
1.06
-0.03
-1.35
-2.46
-2.90
-2.47
-1.27
0.36
2.05
3.61
5.04
6.47
8.01
9.67
11.25
12.46
13.01
12.75
11.79
10.42
9.11
8.27
8.19
8.94
10.46
12.58
15.18
18.27
21.93
26.35
31.71
38.07
45.38
53.39
61.77
70.17
78.35
86.29
94.31
102.89
112.53
123.39
134.98
146.00
154.57
158.62
156.54
147.68
132.61
112.86
90.52
67.59
45.58
25.26
6.72
-10.45
-26.91
-43.27
-59.87
-76.53
-92.48
-106.44
-116.88
-122.50
-122.57
-117.14
-106.98
-93.34
-77.61
-61.21
-45.39
-31.29
-19.88
-11.79
-7.25
-5.87
-6.76
-8.69
-10.40
-10.98
-10.09
-8.00
-5.43
-3.30
-2.39
-3.18
-5.68
-9.55
-14.17
-18.79
-22.76
-25.64
-27.35
-28.12
-28.36
-28.45
-28.59
-28.75
-28.73
-28.27
-27.17
-25.34
-22.71
-19.21
-14.72
-9.09
-2.25
5.74
14.54
23.59
32.04
38.93
43.35
44.65
42.68
37.91
31.31
24.09
17.37
11.89
7.95
5.59
4.78
5.57
8.03
12.08
17.24
22.74
27.63
31.20
33.13
33.54
32.80
31.21
28.99
26.25
23.20
20.17
17.50
15.31
13.38
11.26
8.54
5.26
1.97
-0.43
-1.17
0.04
2.88
6.64
10.56
14.23
17.64
21.08
24.82
28.95
33.23
37.24
40.50
42.59
43.21
42.16
39.35
34.82
28.77
21.70
14.26
7.16
0.95
-4.24
-8.71
-13.06
-17.88
-23.48
-29.74
-36.16
-42.06
-46.93
-50.58
-53.19
-55.21
-57.18
-59.46
-62.09
-64.71
-66.75
-67.51
-66.49
-63.46
-58.51
-52.01
-44.46
-36.45
-28.54
-21.20
-14.81
-9.52
-5.28
-1.93
0.71
2.75
4.14
4.75
4.53
3.61
2.32
1.11
0.35
0.19
0.53
1.08
1.55
1.71
1.49
0.84
-0.27
-1.85
-3.84
-6.06
-8.13
-9.71
-10.59
-10.84
-10.76
-10.81
-11.25
-12.09
-13.00
-13.46
-13.00
-11.40
-8.73
-5.30
-1.51
2.33
6.03
9.51
12.72
15.58
18.01
19.98
21.53
22.81
24.03
25.34
26.77
28.18
29.30
29.82
29.55
28.46
26.68
24.50
22.17
19.86
17.62
15.43
13.25
11.08
8.95
6.85
4.69
2.31
-0.47
-3.77
-7.48
-11.32
-14.81
-17.43
-18.79
-18.75
-17.49
-15.45
-13.17
-11.16
-9.70
-8.81
-8.35
-8.09
-7.86
-7.63
-7.45
-7.47
-7.79
-8.49
-9.56
-10.94
-12.46
-13.88
-15.00
-15.64
-15.79
-15.59
-15.32
-15.21
-15.42
-15.94
-16.70
-17.62
-18.64
-19.73
-20.84
-21.83
-22.58
-23.05
-23.39
-23.89
-24.81
-26.21
-27.81
-29.10
-29.48
-28.49
-25.98
-22.11
-17.31
-12.03
-6.70
-1.56
3.26
7.74
11.86
15.60
18.82
21.43
23.31
24.48
25.07
25.30
25.40
25.55
25.87
26.34
26.91
27.48
27.94
28.21
28.22
27.94
27.31
26.31
24.93
23.24
21.35
19.38
17.43
15.42
13.22
10.65
7.65
4.34
1.05
-1.77
-3.77
-4.70
-4.54
-3.38
-1.42
1.09
3.90
6.79
9.61
12.25
14.74
17.11
19.43
21.72
23.95
26.00
27.69
28.82
29.21
28.80
27.69
26.09
24.34
22.70
21.36
20.33
19.52
18.78
17.95
16.95
15.77
14.39
12.79
10.88
8.57
5.81
2.69
-0.58
-3.70
-6.42
-8.68
-10.65
-12.71
-15.22
-18.35
-21.93
-25.59
-28.91
-31.48
-33.05
-33.44
-32.49
-30.14
-26.45
-21.71
-16.42
-11.12
-6.30
-2.28
0.80
2.82
3.68
3.31
1.83
-0.32
-2.41
-3.60
-3.19
-0.94
2.91
7.67
12.39
16.16
18.39
18.90
17.93
15.96
13.56
11.16
9.00
7.14
5.60
4.38
3.53
3.12
3.13
3.43
3.76
3.79
3.26
2.01
0.06
-2.41
-5.10
-7.60
-9.50
-10.43
-10.17
-8.72
-6.28
-3.24
-0.01
3.06
5.76
8.08
10.13
12.05
13.95
15.85
17.67
19.23
20.38
21.02
21.16
20.94
20.49
19.89
19.15
18.17
16.90
15.35
13.60
11.76
9.87
7.93
5.93
3.99
2.31
1.21
0.79
0.87
0.94
0.27
-1.72
-5.30
-10.29
-16.14
-22.11
-27.54
-31.91
-34.92
-36.42
-36.43
-35.12
-32.86
-30.09
-27.25
-24.63
-22.25
-19.93
-17.47
-14.84
-12.31
-10.38
-9.64
-10.46
-12.81
-16.08
-19.20
-20.95
-20.30
-16.86
-10.97
-3.57
4.15
11.17
16.97
21.58
25.30
28.52
31.38
33.87
35.85
37.26
38.12
38.55
38.58
38.09
36.83
34.51
30.96
26.21
20.47
14.10
7.53
1.20
-4.44
-9.08
-12.58
-15.06
-16.84
-18.30
-19.80
-21.49
-23.33
-25.11
-26.63
-27.77
-28.61
-29.36
-30.28
-31.60
-33.43
-35.71
-38.18
-40.55
-42.52
-43.93
-44.73
-44.93
-44.45
-43.04
-40.31
-35.88
-29.54
-21.41
-11.91
-1.68
8.66
18.61
27.86
36.21
43.60
50.10
55.85
61.13
66.19
71.13
75.80
79.90
83.16
85.53
87.27
88.68
90.00
91.18
91.99
92.23
91.83
90.81
89.12
86.51
82.48
76.51
68.27
57.91
46.06
33.74
22.12
12.13
4.30
-1.50
-6.01
-10.24
-15.10
-20.85
-26.99
-32.42
-35.98
-36.90
-35.01
-30.60
-24.08
-15.84
-6.21
4.18
14.41
23.25
29.63
33.05
33.70
32.27
29.49
25.71
20.76
14.34
6.45
-2.28
-10.57
-17.07
-20.81
-21.68
-20.34
-17.90
-15.39
-13.43
-12.23
-11.71
-11.81
-12.60
-14.18
-16.56
-19.56
-22.74
-25.60
-27.74
-28.78
-28.56
-27.04
-24.41
-21.07
-17.64
-14.88
-13.44
-13.70
-15.46
-18.05
-20.44
-21.67
-21.24
-19.30
-16.56
-13.93
-12.12
-11.35
-11.41
-11.95
-12.65
-13.45
-14.27
-14.90
-14.80
-13.31
-9.92
-4.68
1.72
8.27
13.71
17.11
17.99
16.39
12.73
7.58
1.54
-4.99
-11.72
-18.45
-24.89
-30.64
-35.28
-38.50
-40.30
-40.93
-40.84
-40.42
-39.89
-39.24
-38.38
-37.28
-36.07
-35.11
-34.74
-35.24
-36.51
-38.09
-39.29
-39.41
-38.09
-35.40
-31.87
-28.11
-24.58
-21.32
-18.01
-14.15
-9.23
-3.08
4.11
11.83
19.43
26.30
31.97
36.27
39.26
41.24
42.64
43.81
44.98
46.07
46.83
46.83
45.73
43.34
39.85
35.75
31.77
28.66
26.89
26.58
27.49
29.19
31.27
33.45
35.66
37.93
40.24
42.30
43.59
43.49
41.62
38.05
33.45
28.80
25.06
22.78
22.00
22.36
23.23
23.95
23.82
22.01
17.78
10.71
1.06
-10.16
-21.43
-31.17
-38.34
-42.61
-44.37
-44.34
-43.34
-42.08
-41.24
-41.45
-43.22
-46.78
-51.93
-58.04
-64.22
-69.62
-73.62
-76.00
-76.93
-76.80
-76.03
-74.79
-72.96
-70.24
-66.38
-61.61
-56.67
-52.77
-51.11
-52.39
-56.37
-61.88
-67.14
-70.44
-70.85
-68.45
-64.30
-59.88
-56.52
-54.90
-55.01
-56.43
-58.72
-61.72
-65.40
-69.48
-73.12
-74.98
-73.79
-69.06
-61.52
-52.81
-44.83
-38.73
-34.62
-31.70
-28.99
-25.99
-22.81
-19.81
-16.88
-12.88
-5.85
6.37
25.12
50.28
80.19
112.18
143.37
171.31
194.27
211.20
221.43
224.69
221.11
211.46
197.17
179.98
161.52
142.87
124.56
106.92
90.34
75.51
63.05
53.12
45.12
37.86
30.02
20.74
9.89
-1.96
-14.01
-25.50
-35.93
-44.91
-52.07
-57.21
-60.55
-62.99
-65.90
-70.66
-77.94
-87.30
-97.43
-106.79
-114.44
-120.40
-125.57
-131.05
-137.56
-145.15
-153.40
-161.79
-169.99
-177.76
-184.72
-190.12
-192.86
-191.81
-186.29
-176.41
-163.07
-147.71
-131.84
-116.61
-102.60
-89.84
-78.17
-67.42
-57.66
-49.09
-41.87
-35.94
-30.97
-26.49
-22.08
-17.54
-12.88
-8.28
-4.03
-0.42
2.16
3.31
2.68
0.13
-4.10
-9.49
-15.33
-20.99
-26.15
-30.85
-35.47
-40.59
-46.79
-54.44
-63.47
-73.17
-82.25
-89.01
-91.74
-89.29
-81.39
-68.73
-52.64
-34.56
-15.71
3.19
21.85
40.21
58.26
76.01
93.34
110.20
126.53
142.42
158.07
173.68
189.26
204.41
218.08
228.63
234.20
233.27
225.29
210.97
192.05
170.81
149.44
129.64
112.41
98.12
86.59
77.16
68.79
60.21
50.19
37.84
22.86
5.64
-12.85
-31.16
-47.64
-60.54
-68.30
-69.95
-65.43
-55.73
-42.71
-28.54
-15.02
-3.09
7.26
16.59
25.53
34.22
42.31
49.07
53.91
56.57
57.33
56.77
55.54
54.10
52.71
51.35
49.99
48.65
47.40
46.32
45.38
44.37
42.90
40.61
37.27
32.97
28.05
23.00
18.18
13.81
9.79
5.84
1.55
-3.53
-9.80
-17.58
-26.86
-37.06
-46.99
-54.89
-58.92
-57.73
-50.94
-39.30
-24.48
-8.41
7.22
21.43
33.95
44.95
54.64
63.03
69.89
74.91
78.00
79.37
79.56
79.22
78.90
78.94
79.34
79.88
80.16
79.75
78.26
75.47
71.45
66.57
61.39
56.46
52.06
48.06
44.04
39.47
34.03
27.70
20.75
13.55
6.36
-0.79
-8.09
-15.84
-24.38
-33.95
-44.59
-56.08
-67.77
-78.60
-87.21
-92.23
-92.68
-88.33
-79.78
-68.30
-55.41
-42.47
-30.41
-19.66
-10.39
-2.60
3.63
8.26
11.35
13.20
14.25
15.04
15.96
17.21
18.67
20.12
21.24
21.86
21.99
21.81
21.52
21.26
20.93
20.25
18.86
16.48
13.02
8.65
3.74
-1.29
-6.10
-10.57
-14.87
-19.32
-24.34
-30.26
-37.25
-45.21
-53.78
-62.23
-69.60
-74.72
-76.56
-74.47
-68.51
-59.46
-48.61
-37.36
-26.81
-17.51
-9.52
-2.64
3.32
8.36
12.39
15.27
17.04
17.92
18.28
18.46
18.66
18.92
19.12
19.10
18.73
17.99
16.93
15.66
14.23
12.68
10.92
8.84
6.24
3.03
-0.83
-5.20
-9.80
-14.31
-18.47
-22.13
-25.35
-28.31
-31.32
-34.66
-38.65
-43.47
-49.11
-55.20
-60.98
-65.33
-67.10
-65.44
-60.19
-51.93
-41.82
-31.19
-21.11
-12.17
-4.45
2.26
8.18
13.41
17.86
21.44
24.16
26.21
27.84
29.29
30.65
31.89
32.91
33.67
34.21
34.66
35.10
35.48
35.65
35.32
34.28
32.47
29.94
26.90
23.55
20.04
16.44
12.79
9.08
5.34
1.65
-1.90
-5.31
-8.70
-12.35
-16.63
-21.87
-28.08
-34.87
-41.39
-46.49
-49.07
-48.41
-44.46
-37.82
-29.55
-20.78
-12.45
-5.10
1.14
6.33
10.66
14.22
17.05
19.15
20.52
21.23
21.44
21.37
21.21
21.12
21.12
21.10
20.88
20.32
19.32
17.97
16.45
14.98
13.75
12.79
11.99
11.04
9.61
7.46
4.52
1.02
-2.71
-6.28
-9.46
-12.25
-14.83
-17.48
-20.48
-23.99
-28.07
-32.59
-37.16
-41.19
-43.85
-44.36
-42.16
-37.19
-29.98
-21.48
-12.87
-5.10
1.20
5.90
9.18
11.35
12.68
13.36
13.51
13.26
12.82
12.45
12.32
12.47
12.78
12.95
12.76
12.13
11.19
10.25
9.62
9.46
9.66
9.93
9.85
9.11
7.63
5.55
3.17
0.79
-1.45
-3.54
-5.67
-8.01
-10.74
-13.98
-17.78
-22.03
-26.45
-30.56
-33.68
-35.15
-34.49
-31.62
-26.85
-20.85
-14.41
-8.24
-2.84
1.52
4.81
7.08
8.48
9.19
9.39
9.27
9.02
8.79
8.70
8.77
8.96
9.15
9.18
8.93
8.34
7.47
6.44
5.35
4.22
2.93
1.31
-0.78
-3.26
-5.91
-8.35
-10.34
-11.82
-13.06
-14.52
-16.75
-20.09
-24.56
-29.74
-34.82
-38.81
-40.78
-40.14
-36.85
-31.36
-24.45
-16.98
-9.65
-2.89
3.07
8.14
12.28
15.43
17.54
18.65
18.85
18.39
17.58
16.79
16.31
16.34
16.81
17.52
18.12
18.33
18.03
17.30
16.32
15.19
13.86
12.13
9.82
6.87
3.46
-0.01
-3.14
-5.70
-7.71
-9.51
-11.55
-14.27
-17.93
-22.52
-27.75
-33.08
-37.76
-40.98
-42.03
-40.48
-36.35
-30.15
-22.75
-15.11
-8.01
-1.90
3.14
7.21
10.44
12.87
14.49
15.35
15.63
15.66
15.79
16.20
16.84
17.51
17.92
17.90
17.46
16.73
15.87
14.95
13.95
12.77
11.33
9.56
7.46
5.03
2.33
-0.56
-3.46
-6.26
-8.92
-11.55
-14.41
-17.78
-21.86
-26.66
-31.95
-37.28
-42.11
-45.84
-47.91
-47.92
-45.68
-41.33
-35.28
-28.18
-20.67
-13.29
-6.35
0.02
5.74
10.80
15.10
18.59
21.32
23.45
25.20
26.84
28.54
30.42
32.53
34.89
37.53
40.41
43.37
46.22
48.67
50.49
51.58
51.91
51.53
50.46
48.66
46.12
42.89
39.15
35.13
31.07
27.10
23.16
19.09
14.62
9.60
3.99
-1.95
-7.74
-12.72
-16.15
-17.47
-16.48
-13.38
-8.72
-3.26
2.26
7.29
11.50
14.75
17.00
18.23
18.49
17.91
16.69
15.14
13.57
12.18
11.09
10.24
9.49
8.68
7.72
6.64
5.54
4.56
3.75
3.02
2.19
1.03
-0.62
-2.74
-5.15
-7.56
-9.70
-11.48
-12.95
-14.38
-16.12
-18.52
-21.76
-25.75
-30.02
-33.78
-36.15
-36.41
-34.30
-30.11
-24.49
-18.23
-11.95
-6.02
-0.55
4.39
8.72
12.22
14.76
16.32
17.11
17.43
17.61
17.88
18.33
18.89
19.43
19.75
19.72
19.32
18.63
17.81
17.00
16.19
15.25
13.91
11.96
9.32
6.12
2.66
-0.75
-3.86
-6.64
-9.19
-11.69
-14.36
-17.34
-20.71
-24.40
-28.23
-31.81
-34.61
-35.99
-35.43
-32.68
-27.91
-21.72
-14.98
-8.57
-3.10
1.22
4.52
7.12
9.35
11.30
12.88
13.92
14.32
14.22
13.89
13.68
13.79
14.15
14.54
14.66
14.38
13.79
13.14
12.66
12.39
12.17
11.65
10.56
8.80
6.54
4.10
1.78
-0.22
-1.91
-3.45
-5.04
-6.87
-9.10
-11.77
-14.89
-18.30
-21.61
-24.25
-25.50
-24.81
-21.91
-17.11
-11.12
-4.90
0.75
5.39
9.03
11.95
14.49
16.78
18.72
20.10
20.80
20.90
20.76
20.88
21.63
23.18
25.35
27.73
29.86
31.41
32.34
32.84
33.17
33.54
33.94
34.14
33.85
32.77
30.70
27.55
23.38
18.48
13.27
8.23
3.67
-0.50
-4.75
-9.72
-15.75
-22.52
-28.92
-33.38
-34.33
-30.73
-22.38
-9.90
5.39
21.69
36.98
49.30
57.22
60.16
58.48
53.35
46.06
37.57
28.04
16.94
3.54
-12.50
-30.73
-49.97
-68.70
-85.69
-100.37
-113.04
-124.53
-135.67
-146.77
-157.46
-166.79
-173.61
-177.27
-177.79
-175.96
-172.98
-170.10
-168.34
-168.43
-170.94
-176.16
-183.75
-192.23
-198.98
-200.77
-194.97
-180.64
-158.95
-132.65
-104.78
-77.41
-51.08
-25.01
2.21
31.91
65.11
102.29
143.00
185.23
225.14
257.67
278.13
284.22
277.19
261.48
242.87
226.34
214.53
207.64
204.55
204.08
205.67
209.12
213.80
218.16
220.03
217.42
209.48
196.76
180.92
163.85
147.07
131.47
117.66
106.35
98.37
94.40
94.33
97.02
100.56
102.96
102.91
100.21
95.46
89.38
82.15
73.27
61.88
47.46
30.33
11.88
-5.84
-20.65
-30.87
-35.71
-35.25
-30.33
-22.10
-11.74
-0.22
11.64
22.93
32.50
38.92
40.72
36.79
26.89
11.90
-6.15
-24.23
-38.83
-46.63
-45.49
-35.26
-18.25
1.07
17.14
24.92
21.37
6.29
-17.83
-46.90
-76.59
-103.44
-125.31
-141.28
-151.26
-155.56
-154.88
-150.26
-143.19
-135.39
-128.45
-123.34
-120.15
-118.12
-116.09
-112.99
-108.28
-102.05
-94.93
-87.77
-81.41
-76.40
-72.89
-70.56
-68.70
-66.40
-62.91
-57.90
-51.66
-45.03
-39.11
-34.86
-32.79
-32.81
-34.28
-36.17
-37.32
-36.68
-33.59
-27.97
-20.37
-11.84
-3.57
3.50
8.94
12.84
15.59
17.62
19.10
19.91
19.80
18.55
16.13
12.82
9.07
5.44
2.35
0.06
-1.43
-2.32
-2.96
-3.67
-4.67
-5.99
-7.57
-9.18
-10.69
-12.03
-13.30
-14.73
-16.68
-19.47
-23.29
-28.08
-33.53
-39.21
-44.62
-49.32
-52.92
-55.06
-55.46
-53.93
-50.68
-46.30
-41.74
-38.02
-35.84
-35.17
-35.19
-34.55
-31.79
-25.94
-16.76
-4.72
9.31
24.41
39.61
53.68
64.94
71.59
72.34
67.33
58.41
48.69
41.23
37.61
37.25
37.81
36.70
32.41
25.25
16.94
9.38
3.57
-0.73
-4.45
-8.25
-11.84
-13.96
-13.02
-7.88
1.52
14.04
27.72
40.29
49.75
54.78
54.93
50.60
42.87
33.12
22.73
12.72
3.75
-3.87
-9.94
-14.35
-17.09
-18.31
-18.47
-18.16
-17.94
-18.19
-18.96
-20.08
-21.23
-22.15
-22.72
-23.02
-23.31
-23.90
-25.11
-27.13
-30.04
-33.82
-38.38
-43.52
-48.83
-53.69
-57.26
-58.75
-57.60
-53.70
-47.43
-39.54
-30.91
-22.37
-14.50
-7.76
-2.41
1.38
3.61
4.51
4.48
4.07
3.77
3.89
4.58
5.83
7.61
9.86
12.47
15.14
17.39
18.60
18.30
16.38
13.25
9.66
6.49
4.33
3.17
2.39
0.96
-2.16
-7.63
-15.41
-24.70
-34.14
-42.12
-47.22
-48.55
-46.00
-40.26
-32.56
-24.33
-16.79
-10.62
-5.90
-2.24
0.91
3.94
6.89
9.55
11.63
12.99
13.79
14.43
15.39
17.06
19.56
22.85
26.69
30.87
35.17
39.40
43.28
46.43
48.39
48.72
47.15
43.61
38.36
31.81
24.58
17.27
10.51
4.85
0.76
-1.43
-1.55
0.38
4.12
9.26
15.32
21.77
28.15
34.02
39.04
42.93
45.49
46.70
46.69
45.72
44.12
42.07
39.53
36.20
31.65
25.59
18.01
9.30
0.11
-8.75
-16.49
-22.31
-25.53
-25.73
-23.10
-18.59
-13.92
-11.19
-12.06
-17.12
-25.63
-35.83
-45.65
-53.50
-58.58
-60.84
-60.57
-58.06
-53.50
-47.17
-39.61
-31.60
-24.04
-17.57
-12.34
-8.15
-4.59
-1.47
1.17
3.03
3.95
4.06
3.83
3.89
4.71
6.39
8.60
10.80
12.49
13.33
13.29
12.53
11.27
9.70
7.96
6.14
4.28
2.37
0.34
-1.96
-4.77
-8.33
-12.69
-17.61
-22.46
-26.35
-28.38
-28.07
-25.53
-21.47
-16.92
-12.79
-9.55
-7.14
-5.18
-3.28
-1.25
0.79
2.61
4.02
4.97
5.58
6.01
6.35
6.58
6.65
6.56
6.38
6.28
6.41
6.78
7.25
7.58
7.52
6.98
6.03
4.86
3.72
2.77
2.06
1.49
0.82
-0.25
-2.04
-4.74
-8.27
-12.24
-15.89
-18.31
-18.78
-16.99
-13.25
-8.37
-3.40
0.79
3.75
5.56
6.62
7.37
8.12
8.91
9.62
10.08
10.23
10.10
9.86
9.72
9.88
10.46
11.44
12.70
14.05
15.30
16.36
17.15
17.64
17.64
16.95
15.34
12.74
9.37
5.70
2.28
-0.48
-2.49
-4.07
-5.71
-7.94
-11.10
-15.23
-20.13
-25.37
-30.40
-34.59
-37.37
-38.23
-36.93
-33.54
-28.44
-22.30
-15.84
-9.73
-4.34
0.14
3.78
6.70
9.01
10.77
12.03
12.81
13.22
13.35
13.26
13.01
12.64
12.22
11.83
11.52
11.28
11.02
10.57
9.73
8.31
6.22
3.50
0.45
-2.42
-4.41
-4.86
-3.41
-0.27
3.77
7.47
9.61
9.38
6.67
2.03
-3.62
-9.37
-14.51
-18.66
-21.58
-23.10
-23.05
-21.42
-18.42
-14.52
-10.36
-6.51
-3.30
-0.78
1.29
3.20
5.18
7.29
9.45
11.47
13.18
14.44
15.24
15.65
15.77
15.74
15.59
15.32
14.85
14.14
13.17
12.00
10.74
9.50
8.37
7.34
6.31
5.19
3.84
2.17
0.14
-2.25
-5.00
-8.11
-11.57
-15.23
-18.75
-21.64
-23.32
-23.40
-21.79
-18.86
-15.27
-11.79
-8.94
-6.92
-5.58
-4.61
-3.77
-2.99
-2.37
-2.04
-1.94
-1.87
-1.43
-0.24
1.94
5.05
8.70
12.19
14.72
15.64
14.68
12.11
8.65
5.15
2.24
-0.02
-2.14
-4.95
-9.11
-14.82
-21.54
-28.22
-33.68
-37.06
-38.09
-37.15
-35.00
-32.44
-30.03
-27.82
-25.41
-22.12
-17.37
-10.93
-3.01
5.78
14.72
23.22
30.90
37.59
43.09
47.16
49.48
49.86
48.39
45.48
41.73
37.72
33.81
30.08
26.47
22.92
19.44
16.10
12.95
9.89
6.76
3.40
-0.31
-4.28
-8.36
-12.37
-16.19
-19.80
-23.24
-26.62
-30.02
-33.50
-37.01
-40.38
-43.32
-45.40
-46.32
-45.95
-44.46
-42.30
-40.03
-38.04
-36.43
-34.91
-32.88
-29.73
-25.04
-18.74
-11.18
-2.97
5.22
12.72
19.02
23.78
26.76
27.86
27.11
24.70
21.00
16.55
11.92
7.59
3.90
1.02
-0.96
-1.96
-1.79
-0.10
3.54
9.44
17.56
27.34
37.62
46.81
53.32
55.95
54.23
48.56
39.97
29.78
19.19
8.97
-0.50
-9.22
-17.35
-25.13
-32.77
-40.40
-47.95
-55.14
-61.38
-65.91
-67.97
-67.08
-63.18
-56.67
-48.31
-38.99
-29.55
-20.62
-12.58
-5.60
0.31
5.22
9.26
12.61
15.47
18.14
20.88
23.90
27.12
30.14
32.17
32.33
30.05
25.37
19.10
12.50
6.79
2.59
-0.17
-2.12
-3.89
-5.76
-7.48
-8.52
-8.48
-7.44
-5.96
-4.80
-4.60
-5.63
-7.78
-10.80
-14.46
-18.74
-23.66
-29.24
-35.19
-40.89
-45.39
-47.68
-46.95
-42.88
-35.74
-26.31
-15.63
-4.69
5.79
15.42
24.01
31.42
37.47
41.98
44.90
46.41
46.88
46.72
46.19
45.37
44.12
42.31
39.90
36.99
33.69
30.11
26.25
22.13
17.91
13.95
10.64
8.27
6.81
5.86
4.80
3.09
0.53
-2.74
-6.31
-9.80
-13.11
-16.57
-20.77
-26.35
-33.61
-42.21
-51.06
-58.54
-62.95
-62.97
-58.12
-48.84
-36.35
-22.25
-8.17
4.57
15.06
22.89
28.09
31.11
32.69
33.63
34.61
35.97
37.65
39.29
40.50
41.09
41.19
41.20
41.56
42.46
43.78
45.17
46.38
47.44
48.81
51.08
54.64
59.43
64.95
70.47
75.39
79.27
81.70
82.00
79.32
73.05
63.49
52.29
42.37
36.99
38.62
47.93
63.44
82.14
100.39
114.94
123.63
125.53
120.81
110.52
96.33
80.25
64.41
50.64
40.05
32.79
28.05
24.47
20.69
15.95
10.38
4.87
0.54
-1.82
-2.19
-1.34
-0.59
-1.21
-3.97
-8.87
-15.26
-22.06
-28.30
-33.38
-37.33
-40.72
-44.42
-49.14
-55.09
-61.81
-68.26
-73.17
-75.32
-74.02
-69.16
-61.26
-51.32
-40.57
-30.27
-21.35
-14.39
-9.50
-6.46
-4.88
-4.43
-4.95
-6.38
-8.71
-11.70
-14.98
-18.07
-20.64
-22.72
-24.66
-27.04
-30.22
-34.16
-38.23
-41.47
-43.03
-42.43
-39.85
-35.94
-31.55
-27.31
-23.52
-20.23
-17.48
-15.67
-15.59
-18.33
-24.79
-35.39
-49.70
-66.55
-84.28
-101.03
-115.21
-125.47
-130.90
-130.80
-124.81
-112.91
-95.46
-73.30
-47.42
-18.88
11.55
43.26
75.66
107.83
138.38
165.66
188.17
205.16
216.95
224.82
230.32
234.53
237.61
238.79
236.98
231.24
221.34
207.81
191.85
175.16
159.43
145.83
134.17
122.63
107.96
86.71
56.75
18.34
-25.84
-71.90
-116.14
-156.12
-190.64
-219.23
-241.72
-258.34
-270.10
-278.68
-285.42
-289.87
-288.93
-277.51
-250.79
-207.13
-149.88
-87.09
-29.01
15.38
41.22
48.80
42.53
28.77
13.42
0.40
-8.67
-14.08
-17.14
-19.61
-23.25
-29.72
-40.08
-54.20
-70.19
-84.48
-92.91
-92.36
-82.46
-66.13
-48.62
-35.42
-29.95
-32.32
-39.57
-47.45
-52.36
-52.71
-49.07
-43.24
-36.97
-31.16
-25.76
-20.15
-13.85
-6.70
1.05
9.10
17.40
26.02
35.00
43.92
51.80
57.34
59.43
57.77
53.17
47.39
42.44
39.87
40.20
42.85
46.52
49.76
51.43
50.95
48.19
43.33
36.66
28.50
19.17
9.01
-1.65
-12.43
-22.80
-32.08
-39.36
-43.71
-44.43
-41.34
-34.90
-26.12
-16.29
-6.58
2.17
9.55
15.46
20.00
23.28
25.38
26.42
26.58
26.16
25.51
24.99
24.78
24.83
24.81
24.24
22.75
20.19
16.79
13.05
9.48
6.33
3.53
0.60
-3.01
-7.71
-13.54
-20.08
-26.54
-32.07
-36.01
-38.12
-38.73
-38.55
-38.44
-39.11
-40.69
-42.68
-43.91
-42.82
-37.92
-28.20
-13.63
4.79
25.09
44.90
62.02
75.13
84.16
90.17
94.94
100.14
106.70
114.39
121.87
127.14
128.27
124.04
114.30
99.91
82.54
64.08
46.36
30.79
18.21
8.76
1.85
-3.68
-9.25
-16.09
-24.79
-35.09
-45.98
-56.13
-64.39
-70.26
-73.94
-76.13
-77.68
-79.14
-80.67
-82.00
-82.69
-82.27
-80.41
-76.90
-71.62
-64.51
-55.69
-45.48
-34.50
-23.57
-13.44
-4.65
2.70
8.79
14.04
18.81
23.29
27.42
31.01
33.84
35.80
36.98
37.60
37.99
38.40
38.96
39.56
40.02
40.04
39.38
37.83
35.24
31.51
26.64
20.72
13.99
6.81
-0.41
-7.18
-12.92
-17.03
-18.94
-18.28
-15.08
-9.73
-3.02
4.20
11.20
17.50
22.88
27.26
30.53
32.51
33.03
32.01
29.59
26.14
22.18
18.28
14.80
11.95
9.63
7.62
5.71
3.81
1.95
0.21
-1.34
-2.77
-4.21
-5.84
-7.74
-9.89
-12.19
-14.50
-16.77
-18.99
-21.30
-23.85
-26.84
-30.36
-34.26
-38.16
-41.36
-43.10
-42.76
-40.13
-35.49
-29.56
-23.26
-17.44
-12.66
-9.09
-6.58
-4.85
-3.57
-2.53
-1.68
-0.99
-0.41
0.26
1.34
3.14
5.76
8.97
12.23
14.89
16.43
16.69
15.82
14.21
12.23
10.10
7.87
5.50
2.93
0.11
-3.03
-6.58
-10.68
-15.23
-19.87
-23.83
-26.17
-26.09
-23.23
-17.92
-11.01
-3.65
3.18
8.81
13.05
15.97
17.78
18.72
18.93
18.63
18.01
17.27
16.57
15.97
15.43
14.89
14.27
13.53
12.67
11.66
10.48
9.05
7.31
5.18
2.62
-0.34
-3.62
-7.10
-10.70
-14.42
-18.40
-22.80
-27.69
-32.86
-37.70
-41.33
-42.76
-41.33
-36.91
-30.04
-21.75
-13.20
-5.40
1.09
6.17
10.03
12.95
15.13
16.66
17.61
18.10
18.41
18.91
19.91
21.51
23.52
25.48
26.86
27.22
26.35
24.35
21.55
18.35
15.12
12.10
9.37
6.81
4.21
1.30
-2.23
-6.67
-12.26
-19.10
-27.05
-35.63
-44.10
-51.47
-56.84
-59.67
-59.92
-58.09
-54.92
-51.11
-47.04
-42.77
-38.14
-33.04
-27.54
-21.84
-16.15
-10.47
-4.58
1.81
8.83
16.17
23.08
28.57
31.76
32.22
30.22
26.57
22.35
18.48
15.49
13.43
11.98
10.69
9.16
7.16
4.63
1.55
-2.04
-6.05
-10.23
-14.08
-16.90
-17.93
-16.67
-13.06
-7.59
-1.09
5.54
11.61
16.78
20.96
24.16
26.30
27.24
26.88
25.29
22.78
19.88
17.15
15.02
13.69
13.15
13.16
13.40
13.53
13.29
12.50
11.16
9.39
7.34
5.22
3.11
1.01
-1.18
-3.71
-6.81
-10.65
-15.12
-19.76
-23.74
-26.06
-25.91
-22.96
-17.62
-10.84
-3.84
2.37
7.22
10.63
12.90
14.46
15.68
16.84
18.14
19.69
21.49
23.44
25.31
26.84
27.81
28.12
27.79
26.98
25.86
24.61
23.36
22.11
20.78
19.22
17.27
14.83
11.91
8.56
4.83
0.71
-3.90
-9.01
-14.36
-19.35
-23.04
-24.44
-22.76
-17.75
-9.79
0.26
11.27
22.11
31.93
40.16
46.54
50.94
53.32
53.65
51.94
48.28
42.78
35.60
26.93
17.03
6.32
-4.43
-14.26
-22.01
-26.70
-27.87
-25.77
-21.38
-16.08
-11.26
-7.92
-6.60
-7.43
-10.25
-14.68
-20.13
-25.67
-30.20
-32.72
-32.70
-30.38
-26.78
-23.32
-21.25
-21.19
-22.96
-25.86
-29.05
-31.94
-34.25
-35.84
-36.55
-36.12
-34.35
-31.33
-27.51
-23.50
-19.64
-15.88
-11.76
-6.81
-0.94
5.37
11.27
15.87
18.73
19.89
19.79
19.00
17.92
16.72
15.42
13.92
12.11
9.86
7.10
3.92
0.66
-2.10
-3.69
-3.52
-1.37
2.57
7.78
13.53
19.13
24.11
28.21
31.36
33.60
34.95
35.43
35.04
33.87
32.13
30.09
28.05
26.26
24.82
23.68
22.61
21.39
19.77
17.63
14.94
11.80
8.34
4.71
1.11
-2.32
-5.48
-8.31
-10.89
-13.38
-15.97
-18.81
-21.80
-24.62
-26.68
-27.41
-26.39
-23.59
-19.39
-14.43
-9.45
-5.06
-1.63
0.73
2.05
2.52
2.30
1.59
0.56
-0.65
-1.94
-3.19
-4.27
-5.08
-5.54
-5.67
-5.60
-5.54
-5.75
-6.42
-7.64
-9.36
-11.46
-13.73
-15.99
-18.08
-19.91
-21.51
-23.02
-24.65
-26.70
-29.40
-32.77
-36.54
-40.08
-42.55
-43.12
-41.29
-37.09
-31.05
-24.11
-17.28
-11.34
-6.70
-3.35
-1.04
0.59
1.75
2.55
2.95
2.86
2.34
1.50
0.61
-0.08
-0.39
-0.32
-0.01
0.33
0.49
0.37
0.02
-0.36
-0.54
-0.29
0.42
1.48
2.54
3.20
3.05
1.81
-0.62
-4.09
-8.21
-12.37
-15.79
-17.69
-17.55
-15.28
-11.34
-6.59
-2.07
1.31
3.03
3.00
1.44
-1.18
-4.33
-7.53
-10.37
-12.55
-13.94
-14.50
-14.34
-13.64
-12.57
-11.34
-10.18
-9.33
-8.99
-9.32
-10.35
-11.95
-13.92
-16.02
-18.08
-20.06
-22.01
-24.05
-26.30
-28.81
-31.58
-34.55
-37.48
-40.00
-41.54
-41.53
-39.53
-35.47
-29.74
-23.10
-16.47
-10.60
-5.93
-2.52
-0.18
1.36
2.33
2.87
3.11
3.12
3.06
3.03
3.09
3.24
3.42
3.52
3.38
2.91
2.02
0.71
-0.93
-2.77
-4.64
-6.43
-8.08
-9.62
-11.16
-12.89
-15.05
-17.85
-21.34
-25.25
-28.95
-31.57
-32.28
-30.57
-26.46
-20.52
-13.64
-6.75
-0.48
4.85
9.21
12.75
15.58
17.74
19.25
20.16
20.57
20.70
20.75
20.88
21.13
21.40
21.57
21.49
21.09
20.40
19.47
18.32
16.94
15.27
13.30
11.06
8.62
6.09
3.51
0.81
-2.20
-5.75
-9.97
-14.74
-19.58
-23.69
-26.20
-26.38
-23.97
-19.21
-12.78
-5.57
1.62
8.23
13.97
18.78
22.68
25.74
27.96
29.38
30.05
30.09
29.72
29.16
28.62
28.18
27.80
27.38
26.83
26.13
25.33
24.49
23.60
22.56
21.21
19.49
17.44
15.18
12.89
10.68
8.53
6.32
3.87
0.97
-2.50
-6.52
-10.78
-14.67
-17.42
-18.26
-16.78
-13.03
-7.61
-1.42
4.66
9.93
14.13
17.25
19.42
20.79
21.48
21.60
21.33
20.87
20.42
20.11
19.90
19.73
19.49
19.17
18.81
18.48
18.18
17.84
17.35
16.59
15.53
14.20
12.69
11.10
9.48
7.88
6.25
4.49
2.43
-0.11
-3.21
-6.77
-10.43
-13.64
-15.72
-16.10
-14.49
-11.00
-6.12
-0.60
4.81
9.52
13.24
15.98
17.85
19.01
19.57
19.58
19.13
18.39
17.61
17.03
16.80
16.92
17.22
17.53
17.66
17.48
16.96
16.07
14.87
13.46
11.96
10.49
9.13
7.88
6.70
5.51
4.26
2.87
1.23
-0.80
-3.31
-6.24
-9.27
-11.83
-13.22
-12.87
-10.60
-6.73
-2.01
2.63
6.36
8.76
9.83
9.90
9.41
8.68
7.80
6.70
5.33
3.76
2.19
0.85
-0.14
-0.89
-1.63
-2.54
-3.63
-4.65
-5.31
-5.41
-5.02
-4.45
-4.08
-4.15
-4.72
-5.63
-6.70
-7.78
-8.90
-10.20
-11.86
-13.96
-16.43
-18.95
-21.04
-22.14
-21.75
-19.58
-15.68
-10.45
-4.59
1.13
6.04
9.74
12.21
13.65
14.38
14.61
14.42
13.80
12.78
11.50
10.23
9.25
8.76
8.74
9.07
9.53
9.98
10.31
10.49
10.50
10.32
9.91
9.23
8.31
7.14
5.77
4.22
2.51
0.61
-1.53
-3.99
-6.82
-9.99
-13.32
-16.47
-18.99
-20.46
-20.52
-19.06
-16.20
-12.34
-8.05
-3.88
-0.25
2.66
4.92
6.66
8.00
8.95
9.43
9.37
8.78
7.81
6.68
5.57
4.56
3.62
2.69
1.69
0.71
-0.17
-0.81
-1.18
-1.35
-1.44
-1.62
-1.95
-2.43
-3.04
-3.76
-4.56
-5.45
-6.40
-7.35
-8.35
-9.49
-10.92
-12.75
-14.84
-16.83
-18.18
-18.36
-17.11
-14.58
-11.19
-7.54
-4.12
-1.22
1.07
2.84
4.16
5.09
5.61
5.77
5.67
5.50
5.47
5.74
6.30
7.04
7.75
8.24
8.46
8.44
8.31
8.12
7.84
7.34
6.47
5.23
3.75
2.31
1.21
0.61
0.43
0.41
0.17
-0.59
-2.04
-4.07
-6.37
-8.48
-9.89
-10.09
-8.81
-6.05
-2.09
2.50
7.12
11.28
14.62
17.04
18.61
19.49
19.98
20.43
21.14
22.29
23.84
25.46
26.67
26.95
25.92
23.34
19.20
13.65
7.02
-0.26
-7.67
-14.65
-20.70
-25.44
-28.68
-30.39
-30.71
-29.97
-28.66
-27.36
-26.65
-26.84
-27.91
-29.44
-30.73
-31.04
-29.86
-27.09
-23.00
-18.12
-13.01
-8.10
-3.65
0.21
3.41
5.90
7.73
9.02
10.01
10.97
12.06
13.32
14.66
15.91
16.98
17.83
18.54
19.17
19.75
20.18
20.34
20.10
19.41
18.26
16.73
14.91
12.87
10.68
8.35
5.90
3.28
0.46
-2.56
-5.74
-8.94
-11.87
-14.19
-15.55
-15.69
-14.55
-12.27
-9.17
-5.66
-2.13
1.09
3.85
6.14
8.01
9.55
10.78
11.69
12.23
12.44
12.43
12.37
12.37
12.48
12.66
12.82
12.90
12.86
12.71
12.43
11.96
11.18
10.01
8.46
6.66
4.78
2.95
1.20
-0.57
-2.54
-4.83
-7.47
-10.33
-13.21
-15.86
-18.01
-19.38
-19.72
-18.81
-16.56
-13.13
-8.90
-4.47
-0.37
3.01
5.61
7.56
9.06
10.21
11.01
11.38
11.31
10.96
10.55
10.27
10.19
10.20
10.16
9.98
9.68
9.36
9.06
8.75
8.28
7.50
6.38
4.97
3.42
1.88
0.43
-0.88
-2.04
-3.07
-4.00
-4.96
-6.11
-7.64
-9.67
-12.13
-14.80
-17.26
-19.07
-19.84
-19.38
-17.70
-15.06
-11.86
-8.54
-5.46
-2.83
-0.68
1.06
2.50
3.73
4.76
5.60
6.28
6.89
7.51
8.21
8.99
9.77
10.40
10.76
10.84
10.69
10.44
10.21
10.10
10.10
10.20
10.37
10.58
10.79
10.97
11.02
10.84
10.30
9.28
7.75
5.69
3.22
0.50
-2.22
-4.68
-6.69
-8.15
-9.17
-9.93
-10.72
-11.70
-12.94
-14.37
-15.86
-17.34
-18.79
-20.26
-21.74
-23.07
-23.94
-23.87
-22.52
-19.74
-15.77
-11.14
-6.52
-2.44
0.77
3.10
4.70
5.78
6.48
6.94
7.28
7.70
8.40
9.56
11.24
13.38
15.81
18.29
20.59
22.47
23.67
23.96
23.25
21.74
19.87
18.27
17.52
17.89
19.22
21.03
22.78
24.11
24.95
25.49
25.91
26.27
26.39
26.02
24.97
23.20
20.87
18.15
15.28
12.43
9.76
7.42
5.54
4.14
3.14
2.31
1.44
0.28
-1.35
-3.56
-6.40
-9.83
-13.70
-17.79
-21.82
-25.57
-28.87
-31.73
-34.22
-36.46
-38.55
-40.52
-42.19
-43.27
-43.32
-41.93
-38.95
-34.59
-29.39
-24.06
-19.21
-15.10
-11.66
-8.54
-5.48
-2.40
0.55
3.08
4.98
6.19
6.82
7.02
6.95
6.71
6.31
5.78
5.17
4.51
3.85
3.20
2.55
1.93
1.32
0.76
0.19
-0.48
-1.41
-2.70
-4.33
-6.16
-7.99
-9.71
-11.39
-13.24
-15.55
-18.40
-21.66
-24.96
-27.79
-29.74
-30.53
-30.07
-28.39
-25.62
-21.97
-17.73
-13.28
-9.01
-5.31
-2.43
-0.48
0.64
1.24
1.76
2.67
4.34
6.91
10.25
14.06
18.03
21.90
25.54
28.92
32.01
34.75
37.04
38.80
39.92
40.28
39.73
38.05
35.05
30.66
25.02
18.46
11.46
4.55
-1.85
-7.38
-11.84
-15.14
-17.25
-18.23
-18.08
-16.81
-14.52
-11.43
-8.04
-5.11
-3.50
-3.84
-6.30
-10.44
-15.39
-20.22
-24.30
-27.49
-29.97
-31.96
-33.47
-34.28
-34.07
-32.71
-30.41
-27.66
-25.04
-22.90
-21.32
-20.19
-19.36
-18.79
-18.55
-18.74
-19.31
-20.05
-20.65
-20.85
-20.59
-20.03
-19.52
-19.47
-20.15
-21.55
-23.29
-24.74
-25.16
-23.98
-21.09
-16.80
-11.73
-6.54
-1.66
2.87
7.23
11.58
15.85
19.71
22.67
24.34
24.60
23.59
21.54
18.62
14.87
10.29
5.01
-0.53
-5.69
-9.84
-12.60
-14.02
-14.55
-14.78
-15.22
-16.11
-17.36
-18.80
-20.27
-21.77
-23.45
-25.54
-28.12
-31.11
-34.11
-36.52
-37.72
-37.15
-34.61
-30.22
-24.45
-17.89
-11.17
-4.71
1.26
6.64
11.42
15.53
18.92
21.57
23.46
24.60
25.01
24.76
23.90
22.61
21.05
19.42
17.85
16.36
14.93
13.52
12.19
11.06
10.26
9.89
9.92
10.23
10.65
11.02
11.26
11.34
11.30
11.25
11.31
11.67
12.65
14.54
17.67
22.04
27.32
32.67
36.89
38.79
37.52
33.01
25.93
17.49
9.03
1.57
-4.36
-8.63
-11.33
-12.54
-12.22
-10.41
-7.35
-3.55
0.27
3.42
5.49
6.45
6.57
6.20
5.48
4.37
2.67
0.25
-2.81
-6.23
-9.54
-12.43
-14.74
-16.60
-18.38
-20.53
-23.51
-27.54
-32.52
-37.84
-42.44
-44.97
-44.26
-39.69
-31.52
-20.83
-9.10
2.22
12.26
20.75
27.84
33.82
38.75
42.49
44.76
45.48
44.83
43.33
41.72
40.85
41.58
44.62
50.32
58.37
67.59
75.98
81.26
81.57
76.15
65.68
52.00
37.43
23.96
12.66
3.62
-3.79
-10.43
-17.09
-24.23
-32.05
-40.46
-49.10
-57.17
-63.52
-66.85
-66.14
-61.15
-52.64
-42.23
-31.88
-23.25
-17.16
-13.49
-11.47
-10.17
-8.83
-7.04
-4.60
-1.42
2.57
7.29
12.50
17.71
22.31
25.75
27.70
28.11
27.20
25.34
22.92
20.26
17.58
15.00
12.54
10.22
8.07
6.13
4.44
2.95
1.56
0.09
-1.66
-3.85
-6.61
-10.00
-13.97
-18.27
-22.45
-25.87
-27.87
-28.01
-26.21
-22.87
-18.66
-14.30
-10.32
-6.90
-3.97
-1.37
1.02
3.16
4.89
6.13
6.92
7.49
8.12
9.02
10.15
11.28
12.07
12.25
11.72
10.65
9.36
8.18
7.33
6.90
6.83
6.94
7.04
6.94
6.53
5.85
5.05
4.33
3.79
3.32
2.57
1.13
-1.31
-4.69
-8.54
-12.06
-14.46
-15.19
-14.10
-11.53
-8.03
-4.21
-0.52
2.79
5.65
8.10
10.18
11.88
13.16
14.01
14.45
14.56
14.44
14.17
13.80
13.34
12.79
12.18
11.58
11.05
10.61
10.17
9.60
8.73
7.47
5.84
3.99
2.08
0.29
-1.30
-2.67
-3.88
-5.00
-6.16
-7.43
-8.95
-10.83
-13.07
-15.55
-17.92
-19.67
-20.23
-19.21
-16.53
-12.49
-7.71
-2.87
1.48
5.10
8.06
10.65
13.16
15.72
18.21
20.40
22.03
23.06
23.58
23.89
24.23
24.73
25.33
25.90
26.32
26.66
27.05
27.70
28.66
29.76
30.66
30.99
30.54
29.33
27.62
25.78
24.21
23.15
22.74
22.93
23.51
24.14
24.33
23.58
21.53
18.16
14.02
10.13
7.79
8.14
11.79
18.52
27.41
37.13
46.31
53.92
59.42
62.73
64.08
63.87
62.64
60.98
59.44
58.36
57.76
57.25
56.23
54.07
50.37
45.11
38.56
31.07
22.96
14.46
5.85
-2.38
-9.58
-15.02
-18.26
-19.37
-18.97
-18.16
-18.20
-20.23
-25.01
-32.80
-43.33
-55.86
-69.29
-82.36
-93.90
-103.07
-109.53
-113.33
-114.76
-114.06
-111.29
-106.32
-98.98
-89.36
-77.87
-65.16
-51.95
-38.78
-26.00
-13.80
-2.41
7.84
16.67
24.04
30.22
35.68
40.70
45.12
48.32
49.42
47.83
43.52
37.11
29.52
21.53
13.57
5.65
-2.35
-10.49
-18.59
-26.29
-33.27
-39.33
-44.41
-48.45
-51.40
-53.23
-54.07
-54.23
-54.11
-53.98
-53.79
-53.18
-51.54
-48.28
-43.01
-35.69
-26.74
-16.99
-7.66
-0.01
4.95
6.85
6.15
3.95
1.63
0.25
0.28
1.50
3.36
5.18
6.43
6.71
5.70
3.19
-0.81
-5.99
-11.75
-17.34
-22.11
-25.75
-28.31
-30.15
-31.60
-32.85
-33.70
-33.68
-32.22
-28.97
-23.96
-17.71
-11.03
-4.68
0.84
5.49
9.61
13.64
17.99
22.84
28.14
33.63
38.93
43.50
46.78
48.33
47.94
45.84
42.56
38.73
34.90
31.31
27.99
24.75
21.38
17.71
13.68
9.40
5.13
1.27
-1.72
-3.35
-3.15
-0.70
4.15
11.08
18.91
25.61
28.82
26.59
18.33
5.16
-10.40
-25.42
-37.59
-45.80
-50.11
-51.13
-49.51
-45.73
-40.26
-33.85
-27.71
-23.23
-21.50
-22.92
-27.09
-32.93
-39.10
-44.36
-47.89
-49.37
-48.94
-46.98
-43.92
-40.06
-35.58
-30.52
-24.93
-18.95
-12.81
-6.83
-1.27
3.75
8.31
12.64
16.93
21.17
25.05
28.05
29.66
29.72
28.57
26.96
25.76
25.56
26.38
27.68
28.47
27.68
24.51
18.60
10.38
0.95
-8.07
-14.87
-18.01
-16.76
-11.26
-2.49
7.94
18.10
26.10
30.45
30.52
26.67
20.20
12.82
6.03
0.62
-3.44
-6.74
-9.85
-12.96
-15.85
-18.25
-20.15
-21.93
-24.32
-27.93
-32.92
-38.92
-45.13
-50.66
-54.82
-57.29
-58.08
-57.33
-55.12
-51.45
-46.22
-39.42
-31.25
-22.25
-13.16
-4.77
2.36
8.10
12.80
17.16
21.89
27.42
33.61
39.85
45.28
49.21
51.41
52.12
51.91
51.30
50.53
49.37
47.23
43.27
36.62
26.65
13.27
-2.80
-19.92
-35.73
-47.72
-53.95
-53.61
-47.15
-36.00
-22.08
-7.33
6.49
17.93
25.97
30.22
31.09
29.68
27.41
25.39
24.06
23.12
21.96
20.16
17.82
15.48
13.66
12.59
11.93
10.97
8.96
5.42
0.20
-6.54
-14.42
-22.98
-31.72
-40.02
-47.15
-52.30
-54.72
-53.94
-50.05
-43.68
-35.84
-27.60
-19.72
-12.40
-5.32
2.05
10.20
19.20
28.67
37.79
45.63
51.37
54.58
55.26
53.77
50.65
46.41
41.23
34.99
27.41
18.25
7.62
-3.93
-15.44
-25.90
-34.44
-40.59
-44.31
-45.84
-45.53
-43.76
-40.80
-36.94
-32.35
-27.18
-21.40
-14.79
-7.06
1.95
12.01
22.43
32.16
40.14
45.66
48.66
49.69
49.55
48.96
48.15
46.90
44.71
41.12
35.96
29.40
21.83
13.72
5.52
-2.37
-9.50
-15.50
-20.00
-22.81
-23.94
-23.63
-22.25
-20.26
-18.08
-16.01
-14.18
-12.52
-10.82
-8.79
-6.27
-3.25
0.09
3.51
6.92
10.41
14.16
18.26
22.60
26.85
30.67
33.81
36.15
37.64
38.10
37.17
34.40
29.55
22.74
14.62
6.16
-1.63
-8.00
-12.64
-15.70
-17.63
-18.95
-20.08
-21.11
-21.80
-21.66
-20.21
-17.23
-12.98
-8.20
-3.94
-1.16
-0.40
-1.48
-3.58
-5.52
-6.23
-5.21
-2.72
0.34
2.83
3.87
3.12
0.78
-2.59
-6.45
-10.43
-14.43
-18.43
-22.37
-26.06
-29.24
-31.64
-33.10
-33.54
-32.90
-31.11
-28.10
-24.00
-19.23
-14.43
-10.27
-7.17
-5.09
-3.62
-2.32
-1.03
-0.03
0.19
-0.66
-2.38
-4.27
-5.43
-5.28
-3.76
-1.33
1.39
3.95
6.21
8.22
9.97
11.28
11.86
11.50
10.28
8.57
6.87
5.60
4.90
4.66
4.66
4.67
4.64
4.70
5.10
6.09
7.77
10.03
12.53
14.79
16.38
16.98
16.43
14.69
11.73
7.56
2.25
-3.88
-10.26
-16.11
-20.69
-23.55
-24.72
-24.64
-23.89
-22.84
-21.45
-19.39
-16.28
-12.06
-7.15
-2.28
1.85
5.02
7.54
10.07
13.26
17.28
21.77
26.02
29.34
31.35
32.11
31.92
31.17
30.14
28.95
27.61
25.99
23.88
20.97
16.91
11.43
4.56
-3.32
-11.38
-18.63
-24.19
-27.57
-28.83
-28.51
-27.35
-26.08
-25.17
-24.82
-24.95
-25.31
-25.54
-25.20
-23.86
-21.16
-17.00
-11.53
-5.11
1.95
9.51
17.69
26.79
36.99
48.22
60.06
71.86
82.83
92.28
99.75
105.04
108.22
109.59
109.53
108.35
106.21
103.07
98.72
92.94
85.58
76.59
66.08
54.26
41.42
27.95
14.29
0.87
-11.95
-23.86
-34.51
-43.44
-50.16
-54.21
-55.51
-54.37
-51.52
-47.73
-43.55
-38.98
-33.52
-26.42
-17.09
-5.44
7.96
21.99
35.28
46.58
54.97
60.05
61.82
60.65
57.13
51.97
46.00
40.02
34.57
29.62
24.54
18.18
9.41
-2.35
-16.65
-32.01
-46.32
-57.45
-63.95
-65.38
-62.43
-56.56
-49.46
-42.52
-36.46
-31.33
-26.74
-22.39
-18.32
-14.99
-12.91
-12.27
-12.63
-13.08
-12.78
-11.33
-9.08
-6.83
-5.42
-5.43
-7.09
-10.66
-16.55
-25.32
-37.15
-51.33
-66.15
-79.20
-88.28
-92.17
-91.03
-86.13
-79.20
-71.76
-64.68
-58.20
-52.10
-45.97
-39.36
-31.92
-23.35
-13.58
-2.88
8.16
18.72
27.88
34.82
39.01
40.24
38.56
34.38
28.17
20.50
11.69
1.87
-8.94
-20.48
-32.09
-42.66
-50.92
-56.01
-57.75
-56.73
-53.83
-49.77
-44.65
-38.15
-29.95
-20.21
-9.75
0.20
8.57
14.87
19.37
22.79
25.90
29.12
32.31
34.85
35.88
34.50
30.00
22.09
11.03
-2.34
-16.65
-30.30
-41.85
-50.33
-55.52
-57.96
-58.63
-58.61
-58.55
-58.40
-57.44
-54.56
-48.82
-39.87
-28.16
-14.78
-1.20
11.34
22.07
30.88
38.20
44.62
50.63
56.43
61.95
66.77
70.25
71.47
69.30
62.65
50.96
34.68
15.46
-4.17
-21.66
-35.27
-44.51
-49.90
-52.16
-51.62
-48.06
-41.27
-31.64
-20.46
-9.37
0.66
9.92
19.90
32.28
47.76
65.41
83.12
98.71
110.86
119.51
125.17
128.04
127.44
122.12
111.11
94.69
74.63
53.67
34.52
18.92
7.33
-0.86
-6.65
-10.91
-14.01
-15.82
-16.07
-14.51
-11.22
-6.67
-1.68
2.80
5.94
7.24
6.65
4.34
0.52
-4.81
-11.82
-20.62
-30.99
-42.16
-53.09
-62.67
-70.21
-75.53
-78.94
-80.91
-81.86
-82.05
-81.59
-80.52
-78.69
-75.64
-70.52
-62.29
-50.20
-34.18
-15.22
4.93
24.14
40.56
53.08
61.27
65.24
65.18
61.31
53.85
43.32
30.84
18.10
7.09
-0.51
-3.80
-3.08
0.26
4.06
6.00
4.20
-2.33
-13.25
-26.79
-39.87
-48.75
-50.01
-41.79
-24.60
-1.40
23.20
44.44
58.82
65.08
64.20
58.68
51.46
44.85
39.99
36.65
33.72
29.84
24.07
16.34
7.40
-1.53
-9.32
-15.20
-18.91
-20.50
-20.21
-18.49
-16.04
-13.96
-13.36
-15.01
-18.82
-23.93
-29.17
-33.62
-37.17
-40.28
-43.54
-47.00
-49.87
-50.80
-48.48
-42.26
-32.44
-20.03
-6.20
8.18
22.79
37.66
52.77
67.69
81.50
93.12
101.73
107.22
110.17
111.56
112.14
112.01
110.74
107.73
102.94
96.99
91.01
85.97
82.19
79.28
76.43
73.07
69.05
64.68
60.26
55.90
51.42
46.59
41.47
36.40
31.72
27.36
22.63
16.43
7.76
-3.78
-17.70
-32.82
-47.81
-61.58
-73.69
-84.27
-93.69
-102.29
-110.17
-117.21
-123.15
-127.82
-131.20
-133.45
-134.87
-135.86
-136.74
-137.62
-138.40
-138.80
-138.55
-137.66
-136.45
-135.41
-134.84
-134.61
-134.03
-132.22
-128.47
-122.67
-115.35
-107.40
-99.74
-92.78
-86.53
-80.60
-74.60
-68.38
-62.02
-55.74
-49.66
-43.71
-37.64
-31.08
-23.72
-15.38
-6.12
3.80
13.82
23.25
31.28
37.20
40.49
41.06
39.24
35.74
31.46
27.18
23.38
20.04
16.74
12.94
8.20
2.60
-3.25
-8.33
-11.58
-12.36
-10.63
-7.00
-2.30
2.63
7.36
11.78
15.99
20.01
23.62
26.45
28.16
28.68
28.24
27.26
26.11
24.94
23.60
21.79
19.22
15.71
11.34
6.31
0.94
-4.48
-9.73
-14.66
-19.24
-23.48
-27.53
-31.64
-36.23
-41.74
-48.46
-56.26
-64.46
-71.90
-77.19
-79.20
-77.32
-71.65
-62.85
-51.86
-39.63
-26.93
-14.21
-1.66
10.76
23.21
35.80
48.43
60.75
72.23
82.30
90.51
96.61
100.53
102.32
102.14
100.30
97.35
93.92
90.54
87.24
83.37
77.65
68.65
55.43
38.06
17.84
-3.08
-22.39
-38.24
-49.61
-56.20
-58.09
-55.38
-48.19
-37.00
-22.99
-8.13
5.28
15.40
21.67
25.00
27.29
30.44
35.47
42.18
49.36
55.61
60.03
62.53
63.67
64.29
65.11
66.58
69.00
72.50
77.02
82.11
86.85
89.91
89.97
86.18
78.51
67.87
55.88
44.38
34.85
27.91
23.08
18.96
13.69
5.58
-6.33
-21.96
-40.25
-59.35
-77.08
-91.23
-100.02
-102.42
-98.37
-88.88
-75.88
-61.66
-48.28
-37.06
-28.37
-21.81
-16.68
-12.39
-8.71
-5.77
-3.98
-3.80
-5.84
-10.71
-18.88
-30.12
-43.06
-54.97
-62.26
-61.64
-51.40
-32.18
-6.70
21.42
49.06
74.52
97.47
118.29
137.22
154.03
168.23
179.53
188.03
194.08
197.75
198.59
195.72
188.47
176.80
161.58
144.27
126.37
108.93
92.41
76.83
62.11
48.31
35.67
24.44
14.66
6.08
-1.72
-9.08
-16.03
-22.12
-26.69
-29.19
-29.40
-27.46
-23.76
-18.85
-13.54
-9.01
-6.72
-7.89
-13.00
-21.19
-30.49
-38.55
-43.72
-45.78
-45.89
-45.93
-47.37
-50.72
-55.62
-61.46
-68.00
-75.48
-83.90
-92.44
-99.29
-102.25
-99.92
-92.51
-81.99
-71.23
-62.68
-57.42
-54.89
-53.56
-51.87
-49.13
-45.77
-42.98
-42.11
-44.03
-48.93
-56.46
-66.10
-77.50
-90.70
-105.88
-122.98
-141.27
-159.24
-174.98
-186.95
-194.59
-198.38
-199.51
-199.11
-197.75
-195.42
-191.81
-186.75
-180.32
-172.47
-162.69
-149.93
-133.22
-112.65
-90.35
-70.30
-56.93
-52.84
-56.97
-64.40
-68.07
-61.72
-42.38
-11.39
26.70
66.33
103.16
134.98
161.38
182.60
198.68
209.31
214.36
214.47
211.20
206.61
202.53
199.97
198.99
198.86
198.46
196.80
193.16
187.26
179.14
169.08
157.61
145.45
133.41
122.12
111.82
102.23
92.62
82.14
70.09
56.15
40.46
23.51
6.07
-10.98
-26.83
-40.96
-53.35
-64.45
-75.11
-86.19
-98.27
-111.53
-125.74
-140.50
-155.24
-169.21
-181.36
-190.39
-195.05
-194.53
-188.80
-178.63
-165.31
-150.27
-134.76
-119.73
-105.89
-93.80
-83.72
-75.55
-68.63
-61.93
-54.33
-45.04
-33.89
-21.47
-8.90
2.63
12.19
19.42
24.50
27.90
29.93
30.41
28.61
23.35
13.56
-1.30
-20.90
-44.02
-68.77
-92.98
-114.58
-131.82
-143.67
-149.97
-151.50
-149.68
-145.85
-140.47
-132.72
-120.76
-102.81
-78.23
-48.21
-15.48
16.56
45.08
68.42
86.10
98.39
105.77
108.86
108.43
105.57
101.48
97.04
92.42
87.02
79.69
69.21
54.58
35.27
11.33
-16.38
-45.95
-74.42
-98.30
-114.43
-120.98
-117.95
-107.00
-90.61
-71.10
-49.96
-27.79
-4.70
19.20
43.42
67.09
89.16
108.63
124.71
136.97
145.47
150.74
153.75
155.53
156.71
157.21
156.24
152.55
145.10
133.44
117.91
99.44
79.16
58.07
36.79
15.69
-4.88
-24.34
-41.74
-55.77
-65.10
-68.62
-65.65
-56.03
-40.09
-18.52
7.56
36.61
66.71
95.69
121.59
143.03
159.54
171.54
180.06
186.23
190.87
194.23
196.06
195.96
193.64
189.18
182.85
174.93
165.39
153.99
140.51
125.11
108.46
91.38
74.32
57.01
38.53
18.13
-4.01
-26.24
-45.79
-59.63
-65.62
-63.17
-53.37
-38.51
-21.26
-4.04
11.62
25.08
36.55
46.49
55.18
62.34
67.16
68.83
66.94
61.93
54.85
46.87
38.78
30.70
22.39
13.59
4.44
-4.72
-13.52
-21.99
-30.63
-40.23
-51.51
-64.73
-79.64
-95.40
-110.91
-125.09
-137.07
-146.51
-153.47
-158.28
-161.22
-162.33
-161.25
-157.44
-150.46
-140.17
-126.97
-111.63
-95.23
-78.89
-63.68
-50.49
-39.92
-32.19
-27.00
-23.68
-21.32
-19.03
-16.12
-12.07
-6.47
1.20
11.52
25.01
41.76
61.19
81.90
101.85
118.93
131.40
138.50
140.51
138.66
134.65
130.17
126.50
124.33
123.83
124.77
126.74
129.20
131.48
132.71
131.92
128.24
121.22
111.04
98.49
84.64
70.41
56.17
41.79
26.86
11.10
-5.33
-21.83
-37.74
-52.52
-65.98
-78.05
-88.45
-96.67
-102.02
-104.07
-102.85
-98.91
-92.94
-85.38
-76.29
-65.41
-52.53
-37.83
-21.98
-5.88
9.57
23.78
36.48
47.53
56.77
63.92
68.73
71.15
71.51
70.44
68.72
66.99
65.55
64.36
63.17
61.66
59.61
56.85
53.21
48.48
42.49
35.17
26.74
17.58
8.12
-1.38
-10.90
-20.56
-30.33
-39.81
-48.25
-54.71
-58.57
-59.75
-58.84
-56.81
-54.63
-52.86
-51.56
-50.41
-49.03
-47.26
-45.27
-43.41
-42.03
-41.25
-40.93
-40.78
-40.50
-39.94
-39.16
-38.34
-37.74
-37.55
-37.81
-38.37
-38.93
-39.22
-39.08
-38.64
-38.27
-38.52
-39.89
-42.57
-46.33
-50.51
-54.13
-56.16
-55.81
-52.75
-47.23
-39.99
-31.99
-24.14
-17.06
-10.97
-5.78
-1.28
2.66
6.02
8.62
10.24
10.82
10.48
9.49
8.21
6.90
5.63
4.29
2.69
0.66
-1.69
-4.09
-6.19
-7.70
-8.67
-9.42
-10.47
-12.34
-15.38
-19.65
-25.00
-31.02
-37.13
-42.59
-46.55
-48.26
-47.23
-43.47
-37.48
-30.20
-22.62
-15.50
-9.23
-3.82
0.91
5.10
8.72
11.59
13.52
14.42
14.42
13.79
12.87
11.91
10.98
10.03
8.87
7.38
5.50
3.32
0.96
-1.39
-3.64
-5.80
-7.99
-10.40
-13.28
-16.86
-21.30
-26.57
-32.31
-37.78
-41.97
-43.86
-42.78
-38.70
-32.25
-24.52
-16.65
-9.46
-3.25
2.09
6.85
11.20
15.10
18.31
20.60
21.82
22.03
21.41
20.23
18.69
16.93
15.01
12.90
10.60
8.13
5.54
2.92
0.36
-2.13
-4.63
-7.26
-10.19
-13.55
-17.42
-21.86
-26.84
-32.23
-37.69
-42.63
-46.24
-47.69
-46.47
-42.60
-36.64
-29.59
-22.46
-16.01
-10.53
-5.90
-1.78
2.16
6.09
10.06
14.02
17.98
21.99
26.22
30.78
35.69
40.88
46.16
51.27
55.97
59.95
62.84
64.23
63.73
61.13
56.51
50.26
43.04
35.56
28.43
21.98
16.21
10.77
5.11
-1.32
-8.79
-17.05
-25.24
-32.13
-36.54
-37.75
-35.82
-31.47
-25.77
-19.68
-13.75
-8.11
-2.64
2.85
8.51
14.41
20.64
27.27
34.24
41.24
47.68
52.75
55.77
56.33
54.64
51.42
47.69
44.45
42.32
41.40
41.40
41.86
42.34
42.58
42.39
41.69
40.45
38.77
36.88
35.03
33.41
31.96
30.50
28.86
27.20
26.10
26.35
28.68
33.32
39.88
47.52
55.33
62.70
69.45
75.87
82.40
89.32
96.38
102.69
106.81
107.13
102.42
92.33
77.63
60.10
41.94
25.15
10.95
-0.39
-9.41
-17.00
-23.95
-30.67
-37.14
-43.02
-47.90
-51.60
-54.26
-56.48
-59.13
-63.22
-69.67
-78.97
-90.87
-104.16
-116.89
-126.78
-132.09
-132.18
-127.78
-120.59
-112.58
-105.21
-99.12
-94.28
-90.37
-87.26
-85.16
-84.46
-85.46
-88.15
-92.11
-96.63
-100.91
-104.41
-107.19
-110.00
-114.04
-120.39
-129.33
-140.03
-150.74
-159.44
-164.59
-165.45
-162.08
-154.84
-144.08
-130.03
-112.98
-93.58
-72.83
-51.85
-31.46
-11.92
7.06
25.96
45.03
64.01
82.08
98.22
111.67
122.27
130.56
137.45
143.72
149.69
155.05
159.28
162.05
163.55
164.52
165.84
168.03
170.80
173.20
173.82
171.40
165.20
155.18
141.92
126.27
109.14
91.29
73.31
55.70
38.91
23.32
9.15
-3.60
-15.10
-25.46
-34.51
-41.78
-46.58
-48.35
-47.05
-43.28
-38.20
-33.09
-28.95
-26.20
-24.64
-23.75
-22.93
-21.86
-20.59
-19.46
-18.99
-19.70
-21.88
-25.47
-30.07
-35.04
-39.66
-43.45
-46.26
-48.34
-50.19
-52.36
-55.26
-59.13
-63.94
-69.29
-74.30
-77.74
-78.35
-75.46
-69.55
-62.23
-55.82
-52.34
-52.66
-56.14
-61.00
-65.18
-67.17
-66.42
-63.11
-57.71
-50.54
-41.77
-31.58
-20.51
-9.45
0.58
8.80
14.90
19.05
21.79
23.71
25.38
27.35
30.09
34.08
39.43
45.80
52.26
57.59
60.69
60.92
58.35
53.52
47.20
40.09
32.82
25.90
19.77
14.67
10.38
6.24
1.29
-5.14
-13.02
-21.38
-28.57
-32.98
-33.55
-30.28
-24.02
-16.19
-8.23
-1.21
4.33
8.41
11.49
14.23
17.15
20.47
24.10
27.79
31.47
35.31
39.66
44.71
50.31
55.93
61.00
65.20
68.61
71.55
74.16
76.12
76.58
74.55
69.35
61.00
50.27
38.29
26.14
14.26
2.44
-10.05
-23.81
-38.73
-53.79
-67.22
-77.29
-82.99
-84.57
-83.38
-81.27
-79.85
-79.90
-81.41
-83.72
-86.07
-87.77
-88.29
-87.21
-84.11
-78.74
-71.12
-61.69
-51.21
-40.54
-30.27
-20.55
-11.13
-1.54
8.42
18.49
27.85
35.36
40.03
41.31
39.33
34.78
28.70
22.12
15.93
10.84
7.33
5.72
6.12
8.38
12.13
16.87
22.20
27.91
34.07
40.78
48.05
55.50
62.26
67.07
68.58
65.82
58.55
47.46
34.01
20.04
7.24
-3.18
-10.64
-15.14
-16.91
-16.38
-13.99
-10.30
-5.92
-1.50
2.47
5.68
7.99
9.29
9.36
7.95
4.98
0.78
-3.78
-7.39
-8.77
-7.09
-2.36
4.60
12.55
20.22
26.62
31.01
32.74
31.18
25.83
16.65
4.29
-9.86
-24.05
-36.69
-46.84
-54.43
-60.06
-64.63
-68.82
-72.87
-76.54
-79.26
-80.47
-79.84
-77.38
-73.51
-68.90
-64.37
-60.62
-58.11
-56.86
-56.28
-55.17
-51.91
-44.96
-33.42
-17.52
1.27
20.57
37.78
50.96
59.22
62.92
63.19
61.44
58.73
55.62
52.11
47.87
42.56
36.05
28.68
21.36
15.40
12.24
12.97
18.02
26.90
38.42
50.96
62.99
73.34
81.38
86.93
90.14
91.46
91.38
90.51
89.20
87.53
85.17
81.53
75.97
68.27
59.08
50.15
44.05
43.35
49.54
62.14
78.64
95.26
108.18
114.57
112.97
103.11
85.38
60.43
29.32
-6.12
-42.96
-77.57
-106.59
-128.36
-143.61
-155.22
-166.76
-180.73
-197.41
-214.76
-229.64
-239.31
-242.74
-240.69
-234.91
-227.03
-217.77
-206.93
-193.98
-178.71
-161.49
-143.09
-124.36
-105.97
-88.40
-71.98
-56.94
-43.42
-31.60
-21.74
-14.33
-9.98
-9.00
-11.13
-15.32
-20.11
-24.06
-26.31
-26.62
-25.17
-22.10
-17.27
-10.41
-1.59
8.41
18.01
25.22
28.26
26.18
19.22
8.78
-2.97
-13.56
-20.80
-23.27
-20.59
-13.43
-3.18
8.53
20.31
31.23
40.77
48.61
54.44
57.93
58.93
57.62
54.71
51.32
48.65
47.69
48.89
52.18
57.13
63.19
69.89
76.70
82.86
87.20
88.27
84.69
75.74
61.75
44.24
25.55
8.33
-5.18
-13.61
-16.61
-14.82
-9.49
-2.13
5.87
13.50
20.33
26.42
32.11
37.67
43.00
47.57
50.65
51.69
50.61
48.00
44.90
42.46
41.60
42.75
45.84
50.34
55.37
59.75
62.19
61.52
56.96
48.36
36.26
21.83
6.62
-7.56
-18.90
-25.83
-27.29
-23.11
-14.15
-2.17
10.60
22.03
30.69
36.05
38.41
38.42
36.68
33.45
28.72
22.53
15.26
7.72
0.94
-4.14
-6.93
-7.18
-4.83
0.13
7.61
17.18
27.85
38.13
46.31
51.08
51.87
48.93
43.11
35.40
26.77
18.14
10.53
5.18
3.37
6.10
13.64
25.36
39.67
54.34
66.91
75.20
77.76
74.12
64.95
51.90
37.38
23.94
13.66
7.53
5.25
5.58
6.95
8.28
9.26
10.39
12.43
15.80
20.18
24.45
26.95
26.02
20.57
10.61
-2.54
-16.41
-28.01
-34.74
-35.26
-29.80
-19.94
-7.81
4.68
16.34
26.66
35.41
42.37
47.24
49.86
50.39
49.36
47.32
44.49
40.55
34.78
26.53
15.65
2.76
-10.94
-24.01
-35.33
-44.43
-51.62
-57.79
-64.03
-71.18
-79.33
-87.58
-94.10
-96.63
-93.30
-83.48
-68.17
-49.69
-30.89
-14.07
-0.38
10.23
18.49
25.07
30.18
33.66
35.37
35.59
35.12
34.98
35.93
38.08
40.77
42.76
42.71
39.61
33.18
23.98
13.14
1.95
-8.72
-18.64
-28.15
-37.69
-47.39
-56.87
-65.38
-72.26
-77.13
-79.90
-80.46
-78.53
-73.80
-66.32
-56.85
-46.76
-37.54
-30.15
-24.71
-20.71
-17.55
-15.17
-14.01
-14.65
-17.25
-21.28
-25.73
-29.71
-32.95
-35.90
-39.38
-44.04
-49.98
-56.75
-63.51
-69.52
-74.31
-77.85
-80.32
-81.93
-82.63
-82.06
-79.59
-74.55
-66.41
-54.93
-40.23
-22.91
-4.11
14.50
31.06
44.01
52.53
56.76
57.58
56.07
52.98
48.61
42.94
36.08
28.48
21.06
14.80
10.54
8.68
9.24
11.91
16.12
21.10
25.87
29.55
31.56
31.92
31.13
30.01
29.27
29.24
29.89
30.95
32.21
33.68
35.52
37.86
40.64
43.70
46.98
50.78
55.68
62.33
70.88
80.74
90.56
98.59
103.20
103.42
99.14
91.25
81.30
71.16
62.42
55.83
50.92
46.23
39.90
30.56
18.01
3.36
-11.53
-24.87
-35.71
-44.14
-51.01
-57.27
-63.30
-68.68
-72.35
-73.16
-70.33
-63.81
-54.30
-43.09
-31.90
-22.64
-17.11
-16.58
-21.34
-30.44
-41.79
-52.77
-61.03
-65.17
-65.01
-61.22
-54.90
-47.04
-38.43
-29.72
-21.57
-14.60
-9.08
-4.79
-0.88
3.75
10.06
18.45
28.59
39.50
49.89
58.50
64.45
67.47
68.13
67.83
68.46
71.70
78.33
87.61
97.30
104.26
105.52
99.35
85.88
67.03
45.77
25.11
7.28
-6.66
-16.76
-23.84
-29.09
-33.79
-39.11
-45.99
-54.79
-65.21
-76.04
-85.42
-91.40
-92.62
-88.94
-81.43
-71.91
-62.21
-53.50
-45.98
-39.06
-31.74
-23.11
-12.80
-1.23
10.33
20.16
26.67
29.14
28.18
25.54
23.32
23.00
24.64
27.01
28.21
26.66
21.65
13.35
2.27
-11.18
-26.79
-44.17
-62.45
-80.18
-95.77
-108.01
-116.57
-121.90
-124.93
-126.46
-126.90
-126.21
-124.32
-121.31
-117.55
-113.53
-109.57
-105.55
-100.89
-94.78
-86.75
-77.18
-67.56
-60.16
-57.27
-60.22
-68.73
-80.87
-93.70
-104.35
-110.82
-112.26
-108.81
-101.04
-89.65
-75.38
-59.17
-42.24
-25.87
-11.10
1.57
12.22
21.22
29.00
35.84
41.83
47.14
52.14
57.43
63.65
71.16
79.70
88.42
96.08
101.46
103.90
103.53
101.19
97.83
93.97
89.30
82.76
73.11
59.51
42.19
22.39
2.18
-16.09
-30.22
-38.57
-40.26
-35.35
-24.89
-10.71
4.83
19.39
31.12
38.98
42.88
43.47
41.91
39.47
37.26
35.97
35.85
36.81
38.62
41.07
44.02
47.29
50.44
52.73
53.16
50.76
44.85
35.24
22.29
6.90
-9.57
-25.32
-38.21
-46.18
-47.65
-42.06
-30.23
-14.15
3.50
20.11
33.76
43.47
49.14
51.17
50.07
46.33
40.39
32.87
24.66
16.83
10.50
6.54
5.36
6.90
10.59
15.53
20.55
24.48
26.36
25.47
21.27
13.30
1.16
-15.17
-34.86
-55.91
-75.25
-89.36
-95.34
-91.77
-79.09
-59.35
-35.44
-10.18
14.36
37.08
57.64
75.89
91.25
102.60
108.41
107.59
100.09
87.27
71.48
55.22
40.36
27.72
17.38
9.04
2.49
-2.52
-6.47
-10.22
-14.72
-20.37
-26.70
-32.25
-35.30
-34.58
-29.79
-21.69
-11.62
-0.97
9.36
19.05
28.20
36.98
45.21
52.45
58.17
62.14
64.63
66.28
67.64
68.76
69.00
67.24
62.52
54.58
44.11
32.46
21.01
10.47
0.60
-9.57
-21.16
-34.67
-49.55
-64.13
-76.10
-83.21
-83.96
-78.08
-66.50
-51.01
-33.81
-17.18
-3.25
6.38
10.82
10.42
6.78
2.45
0.04
1.34
6.73
15.39
26.06
37.82
50.42
63.84
77.57
90.02
98.73
101.22
95.93
82.92
63.66
40.42
15.51
-8.96
-31.03
-48.58
-59.36
-61.50
-54.27
-38.66
-17.32
6.15
28.37
47.22
62.22
74.19
84.32
93.19
100.30
104.26
103.58
97.44
86.23
71.38
54.90
38.60
23.74
11.01
0.77
-6.75
-11.48
-13.69
-14.31
-14.86
-17.12
-22.48
-31.44
-43.22
-55.97
-67.28
-74.95
-77.62
-75.14
-68.47
-59.24
-49.18
-39.60
-31.13
-23.81
-17.39
-11.61
-6.35
-1.67
2.42
5.98
9.13
11.95
14.23
15.49
15.11
12.61
7.87
1.07
-7.57
-18.10
-31.00
-46.88
-65.88
-87.09
-108.26
-126.17
-137.56
-140.28
-134.01
-120.29
-101.89
-81.70
-61.94
-43.71
-27.32
-12.66
0.35
11.66
21.19
28.93
35.03
39.65
42.89
44.80
45.45
44.98
43.61
41.50
38.67
35.02
30.40
24.66
17.63
9.06
-1.32
-13.55
-26.98
-40.00
-50.24
-55.15
-52.88
-43.08
-27.11
-7.67
11.96
28.93
41.33
48.46
50.50
48.26
42.85
35.47
27.39
19.77
13.47
8.78
5.40
2.54
-0.59
-4.48
-8.99
-13.42
-16.85
-18.50
-18.12
-16.07
-13.32
-11.24
-11.17
-13.87
-19.16
-25.73
-31.28
-33.32
-29.89
-20.33
-5.52
12.35
30.51
46.33
57.91
64.37
65.75
62.79
56.63
48.61
40.08
32.17
25.73
21.19
18.48
17.14
16.49
15.89
14.84
13.13
10.67
7.42
3.15
-2.52
-9.98
-19.27
-29.74
-39.92
-47.66
-50.68
-47.25
-36.87
-20.54
-0.55
20.12
38.57
52.58
60.99
63.66
61.20
54.68
45.26
34.02
21.88
9.62
-2.01
-12.34
-20.77
-26.99
-31.01
-33.30
-34.51
-35.37
-36.35
-37.69
-39.54
-42.01
-45.38
-49.74
-54.70
-59.06
-60.85
-57.89
-48.67
-33.10
-12.83
9.22
29.83
46.53
58.23
65.20
68.43
68.99
67.47
63.98
58.39
50.74
41.38
31.06
20.68
11.05
2.74
-4.01
-9.23
-13.16
-16.15
-18.64
-21.18
-24.41
-28.84
-34.55
-40.85
-46.21
-48.52
-45.83
-37.09
-22.62
-4.03
16.34
36.18
53.76
68.13
79.00
86.34
90.26
90.87
88.38
83.14
75.64
66.41
56.04
45.09
34.08
23.48
13.65
4.79
-3.07
-10.09
-16.66
-23.36
-30.77
-39.29
-48.72
-58.11
-65.87
-70.19
-69.75
-64.13
-54.07
-41.12
-27.08
-13.40
-0.89
10.17
19.77
27.89
34.39
39.05
41.79
42.73
42.15
40.37
37.55
33.62
28.28
21.29
12.59
2.57
-8.06
-18.39
-27.66
-35.59
-42.37
-48.51
-54.39
-59.78
-63.71
-64.72
-61.40
-53.11
-40.30
-24.53
-7.93
7.45
20.13
29.48
35.51
38.61
39.28
38.08
35.55
32.30
28.94
25.97
23.60
21.76
20.08
18.13
15.56
12.20
8.09
3.31
-2.07
-8.25
-15.58
-24.42
-34.80
-46.10
-56.93
-65.39
-69.65
-68.47
-61.73
-50.41
-36.25
-21.25
-7.08
5.11
14.85
22.14
27.28
30.69
32.83
34.13
35.01
35.82
36.69
37.50
37.76
36.84
34.17
29.63
23.67
17.19
11.13
5.94
1.29
-3.82
-10.44
-19.03
-28.98
-38.64
-45.96
-49.19
-47.62
-41.72
-32.92
-22.94
-13.28
-4.84
2.11
7.67
12.12
15.66
18.43
20.52
22.07
23.27
24.22
24.88
24.93
23.98
21.70
18.16
13.81
9.33
5.25
1.67
-1.92
-6.27
-11.86
-18.43
-24.79
-29.27
-30.35
-27.36
-20.80
-12.09
-2.99
5.03
11.21
15.45
18.10
19.57
20.13
19.90
18.93
17.32
15.14
12.47
9.38
6.04
2.78
0.09
-1.51
-1.75
-0.79
0.65
1.49
0.54
-3.07
-9.47
-17.96
-27.03
-34.77
-39.36
-39.64
-35.43
-27.62
-17.92
-8.48
-1.41
1.72
0.22
-5.53
-14.10
-23.45
-31.54
-36.93
-39.20
-39.03
-37.66
-36.32
-35.69
-35.74
-35.99
-35.86
-35.14
-34.06
-33.27
-33.50
-35.33
-38.91
-43.80
-49.03
-53.24
-54.99
-53.17
-47.27
-37.64
-25.39
-12.23
0.00
9.66
15.72
17.89
16.68
13.17
8.59
4.05
0.11
-3.15
-5.96
-8.58
-10.96
-12.87
-13.96
-14.13
-13.63
-13.04
-13.06
-14.29
-17.16
-21.80
-28.05
-35.22
-42.10
-46.97
-48.17
-44.59
-36.35
-24.88
-12.51
-1.66
6.13
10.52
12.35
12.91
13.33
14.07
14.94
15.46
15.18
14.01
12.22
10.33
8.87
8.22
8.47
9.40
10.43
10.79
9.65
6.39
0.81
-6.70
-15.19
-23.30
-29.54
-32.60
-31.69
-26.72
-18.39
-8.02
2.74
12.36
19.84
24.84
27.66
28.96
29.45
29.63
29.69
29.62
29.30
28.68
27.83
26.89
26.01
25.21
24.36
23.18
21.31
18.49
14.58
9.61
3.74
-2.80
-9.70
-16.42
-22.17
-25.98
-26.91
-24.52
-19.10
-11.74
-3.97
2.71
7.38
9.83
10.55
10.25
9.54
8.68
7.64
6.26
4.49
2.45
0.42
-1.36
-2.70
-3.68
-4.50
-5.46
-6.84
-8.82
-11.54
-15.05
-19.29
-23.95
-28.41
-31.82
-33.24
-32.00
-27.95
-21.56
-13.73
-5.60
1.83
7.87
12.21
14.84
15.93
15.76
14.60
12.71
10.35
7.78
5.27
3.09
1.50
0.63
0.44
0.65
0.91
0.79
-0.02
-1.73
-4.39
-7.87
-11.86
-15.80
-18.88
-20.23
-19.12
-15.30
-9.11
-1.51
6.27
13.11
18.39
22.10
24.66
26.61
28.30
29.81
30.93
31.47
31.41
30.93
30.33
29.91
29.74
29.69
29.42
28.48
26.44
23.00
18.08
11.88
4.92
-1.99
-7.84
-11.61
-12.46
-9.96
-4.26
3.89
13.30
22.66
30.93
37.58
42.70
46.83
50.72
54.98
59.97
65.80
72.41
79.72
87.58
95.83
104.22
112.37
119.97
126.84
132.95
138.43
143.29
147.36
150.26
151.60
151.23
149.38
146.59
143.39
139.96
135.97
130.77
123.75
114.83
104.53
93.89
84.02
75.70
69.24
64.41
60.78
57.65
54.22
49.54
42.69
33.04
20.51
5.79
-9.99
-25.49
-39.79
-52.45
-63.53
-73.19
-81.47
-88.25
-93.31
-96.68
-98.60
-99.56
-100.05
-100.36
-100.76
-101.40
-102.74
-105.41
-110.21
-117.73
-128.11
-140.93
-155.14
-169.41
-182.32
-192.82
-200.40
-205.25
-208.05
-209.73
-211.11
-212.48
-213.70
-214.16
-213.10
-209.89
-204.11
-195.76
-185.13
-172.84
-159.39
-145.15
-129.90
-112.99
-93.54
-70.91
-45.21
-17.32
11.20
38.76
64.11
86.61
106.03
122.17
134.82
143.80
149.40
152.47
154.29
155.94
157.73
159.07
158.70
155.53
149.19
140.33
130.21
120.00
110.22
100.66
90.83
80.38
69.56
58.99
49.40
41.21
34.45
28.92
24.35
20.71
18.02
16.42
15.84
16.10
16.92
18.08
19.70
22.15
26.06
31.86
39.56
48.53
57.71
66.01
72.75
78.01
82.48
87.12
92.66
99.38
107.09
115.30
123.34
130.26
134.86
135.67
131.36
121.17
105.28
84.82
61.55
37.32
13.65
-8.36
-28.00
-44.78
-58.44
-69.18
-77.76
-85.37
-93.25
-102.15
-111.96
-121.71
-129.95
-135.26
-136.83
-134.67
-129.59
-122.74
-115.26
-107.85
-100.70
-93.66
-86.50
-79.29
-72.45
-66.63
-62.45
-60.19
-59.77
-60.85
-63.06
-66.03
-69.39
-72.67
-75.40
-77.22
-78.07
-78.23
-78.14
-78.15
-78.39
-78.73
-79.00
-79.12
-79.35
-80.12
-81.98
-85.26
-89.88
-95.09
-99.54
-101.47
-99.22
-91.74
-78.99
-62.06
-42.84
-23.48
-5.88
8.75
19.85
27.42
31.82
33.55
33.24
31.61
29.42
27.34
25.82
24.94
24.42
23.77
22.46
20.13
16.56
11.66
5.31
-2.62
-12.09
-22.59
-32.92
-41.30
-45.94
-45.64
-40.39
-31.47
-20.91
-10.80
-2.57
3.27
6.93
8.86
9.44
8.79
6.89
3.85
-0.11
-4.62
-9.30
-13.81
-17.85
-21.12
-23.31
-24.39
-24.70
-24.99
-26.18
-28.91
-33.09
-37.73
-41.19
-41.74
-38.15
-30.10
-18.26
-3.98
11.12
25.58
38.31
48.74
56.78
62.69
66.92
70.00
72.34
74.25
75.88
77.32
78.54
79.47
79.93
79.73
78.72
76.87
74.26
71.00
67.09
62.45
57.09
51.37
46.14
42.65
42.09
45.02
51.03
58.73
66.30
72.11
75.21
75.46
73.27
69.21
63.67
56.90
49.18
40.96
32.87
25.50
19.12
13.53
8.18
2.52
-3.74
-10.49
-17.36
-24.03
-30.37
-36.39
-41.99
-46.68
-49.60
-49.82
-46.77
-40.56
-32.07
-22.62
-13.59
-5.99
-0.39
3.09
4.63
4.55
3.25
1.13
-1.45
-4.12
-6.62
-8.69
-10.12
-10.80
-10.78
-10.33
-9.84
-9.74
-10.37
-11.96
-14.55
-17.94
-21.63
-24.70
-26.03
-24.61
-20.01
-12.57
-3.39
6.06
14.50
21.11
25.66
28.31
29.25
28.64
26.53
23.03
18.45
13.24
7.95
3.09
-1.02
-4.28
-6.88
-9.20
-11.77
-15.05
-19.34
-24.68
-30.73
-36.82
-41.91
-44.85
-44.64
-40.80
-33.64
-24.20
-14.02
-4.64
2.78
7.62
9.87
9.88
8.25
5.76
3.21
1.39
0.82
1.57
3.21
4.89
5.67
4.84
2.07
-2.45
-8.16
-14.35
-20.27
-25.26
-28.65
-29.76
-28.00
-23.14
-15.58
-6.46
2.51
9.61
13.65
14.33
12.18
8.19
3.29
-1.94
-7.23
-12.44
-17.36
-21.63
-24.87
-26.90
-27.79
-27.92
-27.82
-28.05
-29.06
-31.09
-34.18
-38.13
-42.48
-46.46
-49.02
-48.98
-45.37
-37.75
-26.51
-12.86
1.50
14.85
25.88
33.91
38.85
40.86
40.15
36.95
31.46
24.14
15.66
6.88
-1.39
-8.63
-14.75
-20.05
-25.06
-30.29
-36.06
-42.37
-48.86
-54.90
-59.59
-61.96
-61.18
-56.77
-48.83
-37.98
-25.19
-11.48
2.30
15.62
28.09
39.31
48.74
55.79
60.03
61.43
60.34
57.43
53.34
48.48
42.87
36.30
28.43
19.09
8.36
-3.41
-15.59
-27.33
-37.57
-45.13
-48.80
-47.74
-41.67
-31.19
-17.67
-2.99
10.96
22.73
31.60
37.56
41.09
42.78
42.99
41.73
38.76
33.81
26.83
18.12
8.23
-2.20
-12.59
-22.34
-30.69
-36.69
-39.43
-38.48
-34.17
-27.59
-20.03
-12.50
-5.36
1.52
8.28
14.61
19.82
23.11
24.12
23.14
20.98
18.46
16.10
13.93
11.81
9.58
7.34
5.25
3.45
1.91
0.51
-0.87
-2.26
-3.68
-5.23
-7.15
-9.76
-13.17
-17.00
-20.26
-21.68
-20.19
-15.51
-8.33
-0.08
7.64
13.71
17.71
19.81
20.42
19.80
17.94
14.74
10.31
5.08
-0.20
-4.80
-8.26
-10.46
-11.60
-11.91
-11.55
-10.55
-9.07
-7.55
-6.72
-7.31
-9.58
-13.00
-16.20
-17.53
-15.73
-10.52
-2.84
5.67
13.25
18.68
21.56
22.12
20.91
18.45
15.10
11.14
6.86
2.71
-0.81
-3.37
-4.92
-5.71
-6.24
-6.90
-7.89
-9.20
-10.73
-12.51
-14.66
-17.20
-19.80
-21.67
-21.71
-19.04
-13.46
-5.68
2.90
10.79
16.96
21.16
23.78
25.41
26.43
26.82
26.32
24.74
22.19
19.11
16.08
13.47
11.37
9.44
7.26
4.50
1.08
-2.91
-7.32
-12.09
-17.17
-22.28
-26.72
-29.38
-29.08
-25.10
-17.60
-7.70
2.93
12.63
20.35
25.76
29.11
30.86
31.30
30.51
28.47
25.28
21.26
16.92
12.82
9.38
6.73
4.74
3.06
1.29
-0.96
-3.91
-7.69
-12.31
-17.58
-23.07
-27.96
-31.19
-31.66
-28.74
-22.63
-14.43
-5.78
1.80
7.48
11.30
13.96
16.23
18.43
20.33
21.36
21.06
19.38
16.79
13.92
11.35
9.28
7.51
5.72
3.52
0.71
-2.73
-6.69
-10.84
-14.63
-17.26
-17.87
-15.75
-10.72
-3.26
5.59
14.52
22.45
28.73
33.24
36.14
37.60
37.66
36.29
33.57
29.87
25.84
22.29
19.84
18.76
18.86
19.61
20.36
20.56
19.84
18.01
14.99
10.90
6.15
1.54
-1.87
-3.14
-1.83
1.70
6.48
11.31
15.27
17.91
19.26
19.47
18.66
16.92
14.35
11.13
7.50
3.59
-0.62
-5.19
-10.03
-14.76
-18.90
-22.10
-24.43
-26.32
-28.32
-30.80
-33.58
-36.00
-37.09
-35.94
-32.04
-25.45
-16.83
-7.24
2.14
10.27
16.45
20.35
21.95
21.39
18.93
14.87
9.58
3.46
-3.08
-9.68
-16.06
-21.97
-27.13
-31.26
-34.09
-35.48
-35.54
-34.62
-33.24
-31.85
-30.59
-29.16
-26.84
-22.81
-16.52
-8.00
1.98
12.20
21.40
28.74
34.02
37.42
39.20
39.35
37.59
33.62
27.63
20.44
13.44
7.98
4.88
3.99
4.28
4.29
2.72
-1.08
-7.07
-14.56
-22.63
-30.36
-37.08
-42.46
-46.62
-50.11
-53.75
-58.31
-63.97
-69.79
-73.65
-72.80
-65.01
-49.77
-28.93
-6.23
14.04
28.64
36.58
39.08
38.64
37.66
37.40
37.80
37.97
37.08
34.88
31.75
28.35
25.33
23.14
22.12
22.56
24.69
28.51
33.64
39.27
44.31
47.71
48.74
47.13
43.19
37.62
31.36
25.39
20.54
17.27
15.64
15.25
15.42
15.43
14.71
12.96
10.21
6.69
2.74
-1.30
-5.17
-8.65
-11.45
-13.13
-13.12
-10.87
-6.15
0.77
9.08
17.64
25.34
31.42
35.55
37.72
38.10
36.92
34.54
31.54
28.73
26.94
26.71
27.98
30.08
32.00
32.78
31.86
29.17
24.93
19.45
12.85
5.23
-3.16
-11.66
-19.26
-24.91
-28.02
-28.81
-28.28
-27.77
-28.35
-30.34
-33.33
-36.52
-39.27
-41.41
-43.21
-45.07
-47.11
-48.98
-50.03
-49.65
-47.53
-43.84
-39.10
-34.01
-29.23
-25.30
-22.57
-21.17
-20.91
-21.22
-21.27
-20.10
-17.09
-12.13
-5.77
0.98
6.95
11.23
13.39
13.46
11.86
9.11
5.73
2.06
-1.60
-5.04
-8.02
-10.31
-11.79
-12.45
-12.47
-12.18
-11.91
-11.98
-12.64
-14.09
-16.41
-19.47
-22.71
-25.09
-25.33
-22.25
-15.36
-5.15
6.89
18.73
28.39
34.56
36.89
35.91
32.74
28.57
24.40
20.78
17.84
15.47
13.46
11.67
10.09
8.77
7.71
6.78
5.74
4.25
2.02
-1.13
-5.13
-9.54
-13.59
-16.26
-16.65
-14.29
-9.45
-3.07
3.53
9.11
12.89
14.69
14.82
13.78
11.98
9.67
7.00
4.18
1.52
-0.63
-2.02
-2.60
-2.58
-2.30
-2.12
-2.33
-3.07
-4.40
-6.28
-8.50
-10.60
-11.87
-11.54
-9.09
-4.51
1.54
7.94
13.54
17.57
19.83
20.63
20.50
19.83
18.81
17.47
15.85
14.14
12.59
11.48
10.93
10.84
10.92
10.83
10.23
8.93
6.90
4.26
1.35
-1.36
-3.28
-3.80
-2.41
1.11
6.59
13.46
20.87
27.99
34.19
39.14
42.78
45.07
45.90
45.14
42.82
39.35
35.47
32.10
29.90
29.04
29.12
29.41
29.10
27.68
24.91
20.86
15.79
10.07
4.28
-0.79
-4.26
-5.42
-4.03
-0.54
4.05
8.53
11.96
13.95
14.66
14.60
14.18
13.54
12.49
10.74
8.17
5.01
1.73
-1.12
-3.18
-4.43
-5.05
-5.39
-5.79
-6.61
-8.23
-11.01
-15.03
-19.76
-23.94
-25.88
-24.34
-19.34
-12.70
-7.42
-6.52
-11.43
-21.32
-33.51
-44.75
-52.64
-56.31
-56.10
-52.67
-46.24
-36.68
-24.16
-9.97
3.38
13.01
16.94
15.12
9.36
2.39
-3.36
-6.77
-7.93
-7.38
-5.06
-0.03
8.93
22.03
37.57
52.02
61.31
62.75
56.25
44.36
30.87
18.95
9.80
2.51
-4.81
-13.60
-23.86
-34.11
-42.36
-47.16
-48.35
-46.97
-44.69
-43.02
-42.76
-43.81
-45.51
-47.24
-48.83
-50.71
-53.61
-58.02
-63.58
-69.03
-72.47
-72.18
-67.36
-58.48
-47.14
-35.38
-24.94
-16.73
-10.72
-6.37
-3.00
-0.24
1.97
3.51
4.29
4.41
4.12
3.72
3.42
3.25
3.07
2.69
1.98
0.90
-0.52
-2.26
-4.39
-7.06
-10.32
-13.94
-17.28
-19.34
-19.18
-16.27
-10.83
-3.76
3.65
10.26
15.37
18.91
21.14
22.39
22.90
22.70
21.82
20.37
18.60
16.80
15.20
13.90
12.80
11.78
10.67
9.36
7.78
5.87
3.58
0.84
-2.37
-5.88
-9.21
-11.56
-12.01
-9.85
-4.92
2.19
10.33
18.21
24.82
29.77
33.17
35.42
36.76
37.20
36.58
34.84
32.19
29.11
26.21
23.93
22.38
21.29
20.18
18.48
15.72
11.66
6.20
-0.60
-8.56
-17.23
-25.85
-33.34
-38.43
-40.09
-37.84
-32.04
-23.78
-14.56
-5.79
1.61
7.32
11.44
14.25
15.93
16.53
15.96
14.21
11.33
7.51
3.01
-1.88
-6.89
-11.72
-16.07
-19.66
-22.24
-23.72
-24.21
-24.16
-24.23
-25.13
-27.28
-30.52
-34.08
-36.70
-37.07
-34.25
-28.03
-18.94
-8.08
3.21
13.67
22.35
28.76
32.91
35.24
36.51
37.49
38.66
40.06
41.37
42.12
42.04
41.29
40.40
40.11
41.13
44.02
49.12
56.25
64.35
71.30
74.19
70.38
58.85
41.19
21.38
4.33
-6.29
-9.62
-7.72
-4.11
-1.75
-1.46
-2.05
-1.48
1.47
6.28
11.07
13.76
13.30
10.21
6.14
2.90
1.42
1.35
1.34
-0.25
-4.49
-11.47
-20.29
-29.54
-37.91
-44.78
-50.32
-55.21
-60.10
-65.09
-69.58
-72.43
-72.46
-68.97
-62.00
-52.41
-41.54
-30.77
-21.08
-12.83
-5.81
0.48
6.48
12.23
17.36
21.18
23.07
22.69
20.15
15.94
10.80
5.48
0.62
-3.40
-6.42
-8.58
-10.19
-11.66
-13.39
-15.54
-17.95
-20.05
-20.97
-19.78
-15.99
-9.81
-2.32
4.91
10.36
13.23
13.78
13.13
12.64
13.30
15.27
18.02
20.74
22.87
24.34
25.42
26.35
27.10
27.26
26.21
23.50
19.08
13.36
7.06
0.92
-4.52
-9.09
-12.88
-16.15
-18.96
-21.19
-22.53
-22.73
-21.89
-20.61
-19.87
-20.61
-23.30
-27.61
-32.41
-36.15
-37.46
-35.54
-30.45
-22.97
-14.24
-5.47
2.38
8.74
13.42
16.57
18.63
20.16
21.78
24.06
27.40
32.01
37.74
44.02
49.85
53.95
55.10
52.54
46.31
37.25
26.71
16.10
6.41
-1.90
-8.79
-14.33
-18.57
-21.39
-22.77
-22.91
-22.29
-21.54
-21.18
-21.35
-21.72
-21.65
-20.34
-17.29
-12.55
-6.80
-1.21
3.07
5.33
5.60
4.48
2.84
1.41
0.54
0.32
0.77
1.98
4.05
6.80
9.59
11.43
11.31
8.65
3.59
-3.18
-10.67
-17.88
-24.06
-28.61
-31.10
-31.22
-28.91
-24.40
-18.23
-11.10
-3.75
3.26
9.55
14.89
19.12
22.11
23.73
24.00
23.06
21.27
19.08
16.95
15.27
14.19
13.65
13.43
13.23
12.77
11.83
10.26
7.94
4.75
0.61
-4.41
-10.10
-15.98
-21.47
-25.92
-28.81
-29.96
-29.53
-27.98
-25.84
-23.55
-21.26
-18.93
-16.45
-13.83
-11.33
-9.37
-8.32
-8.26
-8.88
-9.56
-9.71
-9.01
-7.63
-6.08
-4.95
-4.57
-4.80
-5.13
-4.96
-4.03
-2.62
-1.51
-1.67
-3.72
-7.69
-12.91
-18.32
-22.69
-24.92
-24.22
-20.19
-13.00
-3.58
6.43
14.94
20.23
21.61
19.84
16.75
14.30
13.66
14.64
16.04
16.39
14.77
11.20
6.46
1.55
-2.77
-6.18
-8.62
-10.04
-10.23
-8.95
-6.14
-2.15
2.35
6.54
9.70
11.45
11.78
11.07
10.07
9.56
10.25
12.54
16.34
21.16
26.22
30.77
34.28
36.55
37.69
37.93
37.52
36.59
35.21
33.50
31.66
29.96
28.77
28.39
28.97
30.34
32.04
33.42
33.89
33.11
31.18
28.52
25.61
22.76
19.95
16.88
13.10
8.29
2.33
-4.53
-11.77
-18.70
-24.64
-29.04
-31.63
-32.39
-31.48
-29.18
-25.80
-21.66
-17.04
-12.31
-7.81
-3.90
-0.86
1.24
2.42
2.87
2.76
2.22
1.33
0.22
-0.77
-1.04
0.23
3.79
10.00
18.50
28.20
37.46
44.56
48.16
47.71
43.43
36.18
27.14
17.52
8.32
0.25
-6.26
-11.01
-14.08
-15.72
-16.37
-16.59
-16.95
-17.88
-19.58
-21.95
-24.61
-27.00
-28.55
-28.90
-27.97
-25.95
-23.19
-19.99
-16.57
-12.97
-9.21
-5.38
-1.70
1.43
3.51
3.99
2.42
-1.40
-7.20
-14.13
-20.81
-25.65
-27.36
-25.42
-20.31
-13.28
-5.95
0.28
4.60
6.82
7.19
6.03
3.65
0.19
-4.13
-9.03
-14.04
-18.54
-21.90
-23.52
-22.95
-19.96
-14.66
-7.43
1.05
10.08
19.04
27.62
35.76
43.65
51.48
59.24
66.68
73.26
78.26
80.92
80.63
77.12
70.47
61.12
49.63
36.67
22.82
8.64
-5.30
-18.46
-30.30
-40.44
-48.81
-55.66
-61.32
-65.94
-69.26
-70.75
-70.01
-67.22
-63.20
-59.10
-55.85
-53.66
-52.01
-49.92
-46.35
-40.57
-32.27
-21.53
-8.92
4.57
17.58
28.77
37.32
43.28
47.42
50.72
53.56
55.41
55.03
51.18
43.47
32.80
21.29
11.62
6.05
5.54
9.41
15.63
21.73
25.87
27.50
27.45
27.23
28.19
30.90
35.19
40.53
46.51
52.97
59.74
66.31
71.64
74.44
73.69
69.12
61.40
52.00
42.74
35.28
30.63
28.92
29.41
30.85
31.99
32.03
30.89
29.06
27.19
25.57
23.98
21.78
18.35
13.51
7.57
1.18
-5.08
-10.95
-16.48
-21.79
-26.81
-31.25
-34.68
-36.81
-37.69
-37.55
-36.72
-35.30
-33.20
-30.18
-26.04
-20.60
-13.79
-5.57
3.97
14.52
25.47
35.95
45.04
51.88
55.76
56.17
52.68
45.12
33.67
19.13
2.88
-13.38
-27.97
-39.74
-48.23
-53.67
-56.58
-57.56
-57.03
-55.25
-52.52
-49.29
-46.31
-44.53
-44.92
-48.11
-54.10
-62.13
-70.63
-77.63
-81.16
-79.85
-73.26
-62.04
-47.60
-31.63
-15.64
-0.61
12.88
24.66
34.63
42.76
49.08
53.68
56.70
58.15
57.91
55.68
51.22
44.49
35.82
25.93
15.66
5.94
-2.54
-9.35
-14.45
-18.19
-21.21
-24.39
-28.59
-34.49
-42.30
-51.68
-61.68
-70.90
-77.92
-81.62
-81.66
-78.55
-73.45
-67.74
-62.52
-58.29
-54.87
-51.74
-48.30
-44.32
-39.98
-35.75
-32.17
-29.52
-27.77
-26.60
-25.60
-24.52
-23.37
-22.37
-21.75
-21.63
-21.88
-22.15
-22.01
-21.12
-19.35
-16.90
-14.26
-12.04
-10.86
-11.05
-12.44
-14.27
-15.33
-14.27
-10.05
-2.32
8.49
21.36
35.04
48.39
60.52
70.79
78.71
83.88
86.08
85.30
81.65
75.20
65.86
53.55
38.62
22.11
5.84
-8.11
-18.20
-24.02
-26.56
-27.70
-29.47
-33.25
-39.50
-47.85
-57.55
-67.89
-78.38
-88.83
-99.08
-108.95
-118.03
-125.73
-131.37
-134.39
-134.52
-131.73
-126.18
-117.96
-107.20
-94.17
-79.58
-64.62
-50.62
-38.64
-28.73
-20.08
-11.30
-1.41
9.62
20.78
30.50
37.56
41.49
42.81
42.45
41.35
40.07
38.76
37.48
36.25
35.29
34.73
34.57
34.48
33.77
31.68
27.56
21.51
14.52
8.67
6.62
10.88
22.94
42.65
68.21
96.57
124.38
148.64
167.43
180.16
187.45
190.87
192.18
192.73
192.63
190.56
184.17
171.08
150.18
122.51
91.21
60.45
33.90
13.19
-2.33
-14.85
-26.54
-38.11
-48.64
-56.34
-60.10
-60.58
-59.94
-60.80
-65.03
-73.59
-87.20
-107.30
-135.88
-174.07
-220.20
-268.59
-310.67
-337.66
-344.00
-329.08
-296.65
-252.22
-200.22
-142.77
-80.66
-15.67
47.71
102.53
141.66
160.79
160.52
146.20
125.63
106.00
91.41
82.31
76.68
72.08
67.15
61.98
57.31
53.45
49.75
44.81
37.51
27.79
17.03
7.61
1.96
1.45
5.90
13.61
22.08
29.07
33.39
35.16
35.44
35.50
36.13
37.32
38.45
38.71
37.61
35.22
32.11
29.03
26.58
24.89
23.66
22.35
20.44
17.71
14.29
10.54
6.85
3.45
0.32
-2.74
-6.01
-9.75
-14.14
-19.22
-24.81
-30.43
-35.23
-38.18
-38.34
-35.29
-29.31
-21.37
-12.70
-4.45
2.71
8.58
13.25
16.90
19.60
21.30
21.97
21.71
20.75
19.41
18.03
16.83
15.88
15.13
14.40
13.46
12.11
10.33
8.24
6.11
4.15
2.45
0.90
-0.76
-2.76
-5.21
-8.13
-11.49
-15.31
-19.63
-24.34
-28.99
-32.70
-34.39
-33.16
-28.71
-21.54
-12.83
-3.96
3.93
10.28
15.02
18.50
21.05
22.89
24.07
24.58
24.47
23.89
23.12
22.38
21.82
21.43
21.02
20.41
19.41
18.01
16.34
14.60
12.95
11.42
9.93
8.29
6.39
4.19
1.76
-0.87
-3.76
-7.09
-11.15
-16.01
-21.44
-26.67
-30.59
-32.07
-30.41
-25.64
-18.58
-10.59
-3.01
3.16
7.63
10.55
12.36
13.38
13.73
13.43
12.51
11.22
9.94
9.07
8.87
9.33
10.18
11.03
11.51
11.35
10.49
9.02
7.14
5.06
2.91
0.76
-1.43
-3.73
-6.20
-8.86
-11.80
-15.11
-18.90
-23.15
-27.54
-31.37
-33.72
-33.72
-30.93
-25.53
-18.37
-10.58
-3.31
2.71
7.24
10.46
12.64
14.00
14.59
14.37
13.38
11.85
10.17
8.74
7.79
7.31
7.05
6.68
5.91
4.63
2.96
1.10
-0.70
-2.35
-3.85
-5.42
-7.32
-9.88
-13.36
-17.85
-23.22
-29.00
-34.41
-38.43
-40.08
-38.75
-34.37
-27.58
-19.42
-11.09
-3.50
2.86
7.90
11.76
14.51
16.15
16.57
15.78
13.98
11.60
9.18
7.16
5.77
4.90
4.27
3.45
2.17
0.33
-1.94
-4.33
-6.57
-8.46
-10.07
-11.62
-13.52
-16.11
-19.69
-24.29
-29.60
-35.00
-39.52
-42.15
-42.07
-39.00
-33.30
-25.83
-17.67
-9.72
-2.51
3.83
9.34
14.04
17.76
20.21
21.13
20.46
18.53
15.92
13.34
11.34
10.12
9.50
8.97
8.06
6.47
4.29
1.84
-0.50
-2.47
-4.16
-5.83
-7.87
-10.61
-14.28
-19.01
-24.76
-31.25
-37.89
-43.73
-47.64
-48.66
-46.33
-40.89
-33.23
-24.55
-15.99
-8.25
-1.55
4.22
9.28
13.66
17.22
19.72
21.01
21.16
20.47
19.35
18.20
17.25
16.56
16.00
15.33
14.35
12.90
10.91
8.44
5.60
2.56
-0.55
-3.65
-6.79
-10.14
-13.93
-18.43
-23.82
-30.02
-36.57
-42.62
-47.04
-48.79
-47.18
-42.24
-34.64
-25.48
-15.89
-6.70
1.65
9.07
15.61
21.26
25.97
29.63
32.27
34.08
35.33
36.30
37.07
37.61
37.70
37.18
36.01
34.31
32.37
30.46
28.77
27.28
25.79
23.96
21.53
18.34
14.46
10.16
5.79
1.66
-2.13
-5.74
-9.56
-14.06
-19.67
-26.55
-34.39
-42.40
-49.37
-54.00
-55.20
-52.50
-46.22
-37.34
-27.18
-16.98
-7.58
0.67
7.82
14.01
19.38
23.87
27.38
29.79
31.15
31.60
31.39
30.75
29.84
28.79
27.68
26.61
25.69
24.93
24.25
23.42
22.12
20.09
17.24
13.63
9.57
5.39
1.36
-2.39
-5.96
-9.66
-13.95
-19.20
-25.54
-32.58
-39.34
-44.48
-46.66
-45.06
-39.73
-31.53
-21.78
-11.88
-2.78
5.11
11.76
17.34
21.91
25.42
27.73
28.79
28.70
27.75
26.35
24.91
23.75
22.96
22.42
21.86
20.95
19.44
17.26
14.53
11.44
8.15
4.75
1.19
-2.61
-6.74
-11.34
-16.55
-22.58
-29.55
-37.36
-45.47
-52.79
-57.97
-59.73
-57.39
-51.16
-42.05
-31.54
-21.03
-11.44
-3.08
4.20
10.67
16.48
21.52
25.55
28.34
29.90
30.47
30.47
30.35
30.40
30.71
31.14
31.44
31.36
30.77
29.60
27.82
25.41
22.31
18.47
13.90
8.69
2.95
-3.26
-9.98
-17.35
-25.41
-33.85
-41.93
-48.48
-52.26
-52.37
-48.59
-41.48
-32.15
-21.80
-11.39
-1.46
7.81
16.38
24.15
30.93
36.55
40.88
43.99
45.99
47.01
47.12
46.37
44.84
42.75
40.39
38.15
36.29
34.88
33.72
32.40
30.46
27.52
23.48
18.51
13.02
7.48
2.26
-2.59
-7.33
-12.47
-18.61
-26.17
-35.08
-44.64
-53.51
-60.01
-62.66
-60.64
-54.13
-44.23
-32.52
-20.57
-9.42
0.52
9.32
17.27
24.55
31.16
36.88
41.49
44.87
47.04
48.23
48.75
48.95
49.10
49.30
49.48
49.44
48.96
47.92
46.35
44.39
42.23
39.99
37.64
35.02
31.90
28.09
23.55
18.41
13.02
7.69
2.66
-2.09
-6.80
-11.93
-17.91
-25.08
-33.51
-42.90
-52.52
-61.23
-67.72
-70.73
-69.52
-64.07
-55.15
-44.12
-32.47
-21.39
-11.53
-2.99
4.47
11.10
17.00
22.06
26.12
29.11
31.12
32.41
33.25
33.78
34.00
33.81
33.13
32.03
30.68
29.28
27.88
26.33
24.33
21.57
17.95
13.57
8.79
4.03
-0.41
-4.43
-8.18
-12.06
-16.55
-22.07
-28.80
-36.46
-44.24
-50.86
-54.92
-55.28
-51.47
-43.91
-33.75
-22.44
-11.30
-1.17
7.65
15.26
21.85
27.47
32.06
35.50
37.77
39.00
39.47
39.44
39.06
38.38
37.30
35.81
33.95
31.92
29.98
28.27
26.76
25.20
23.22
20.49
16.84
12.40
7.50
2.55
-2.14
-6.43
-10.42
-14.40
-18.78
-23.92
-30.02
-36.91
-43.94
-50.02
-53.87
-54.38
-51.05
-44.18
-34.80
-24.25
-13.79
-4.13
4.50
12.29
19.46
26.03
31.74
36.22
39.18
40.63
40.91
40.51
39.95
39.57
39.46
39.54
39.64
39.58
39.28
38.68
37.75
36.46
34.76
32.65
30.20
27.50
24.66
21.74
18.67
15.31
11.49
7.16
2.40
-2.53
-7.30
-11.62
-15.41
-18.77
-22.04
-25.69
-30.14
-35.64
-42.01
-48.62
-54.34
-57.87
-58.15
-54.73
-48.01
-39.06
-29.24
-19.78
-11.39
-4.30
1.58
6.35
10.07
12.71
14.32
15.16
15.58
15.96
16.50
17.19
17.81
18.10
17.88
17.19
16.23
15.22
14.33
13.54
12.70
11.58
9.99
7.81
5.09
1.98
-1.28
-4.40
-7.22
-9.75
-12.22
-15.12
-18.98
-24.16
-30.58
-37.56
-43.89
-48.12
-49.08
-46.27
-40.09
-31.64
-22.35
-13.45
-5.68
0.81
6.21
10.76
14.57
17.51
19.48
20.50
20.83
20.82
20.75
20.71
20.50
19.90
18.77
17.22
15.52
14.03
12.91
12.05
11.13
9.73
7.59
4.68
1.27
-2.23
-5.44
-8.14
-10.38
-12.37
-14.50
-17.17
-20.78
-25.54
-31.36
-37.66
-43.38
-47.24
-48.09
-45.40
-39.46
-31.33
-22.41
-13.92
-6.57
-0.44
4.79
9.45
13.69
17.35
20.13
21.79
22.36
22.12
21.49
20.89
20.50
20.28
20.00
19.45
18.57
17.48
16.42
15.58
15.00
14.51
13.87
12.81
11.17
8.86
5.94
2.58
-1.04
-4.70
-8.27
-11.76
-15.35
-19.35
-24.12
-29.96
-36.92
-44.76
-52.74
-59.79
-64.62
-66.16
-63.87
-57.91
-49.13
-38.72
-27.90
-17.56
-8.29
-0.31
6.28
11.53
15.56
18.56
20.81
22.56
24.01
25.23
26.20
26.86
27.10
26.85
26.02
24.62
22.73
20.56
18.37
16.38
14.66
13.12
11.56
9.80
7.81
5.76
3.96
2.74
2.27
2.52
3.21
3.93
4.33
4.14
3.32
1.97
0.25
-1.69
-3.75
-5.90
-8.14
-10.45
-12.85
-15.38
-18.23
-21.57
-25.41
-29.43
-32.87
-34.71
-33.96
-30.12
-23.32
-14.36
-4.33
5.68
14.94
23.04
29.79
35.05
38.62
40.40
40.51
39.50
38.28
37.88
39.20
42.70
48.30
55.34
62.79
69.42
74.03
75.68
73.71
67.96
58.70
46.59
32.65
17.99
3.70
-9.38
-20.72
-30.17
-37.85
-44.16
-49.61
-54.74
-60.00
-65.60
-71.43
-77.04
-81.85
-85.31
-87.27
-87.98
-88.02
-88.09
-88.73
-90.15
-92.08
-93.96
-95.04
-94.54
-91.89
-86.84
-79.56
-70.57
-60.71
-50.86
-41.79
-33.99
-27.65
-22.70
-18.92
-16.04
-13.81
-11.96
-10.14
-7.77
-4.17
1.28
8.82
18.03
27.82
36.73
43.40
47.12
48.00
46.82
44.66
42.26
39.89
37.36
34.35
30.77
26.83
22.91
19.21
15.61
11.59
6.56
0.12
-7.77
-16.71
-26.10
-35.19
-43.24
-49.46
-53.09
-53.50
-50.41
-44.10
-35.35
-25.32
-15.03
-5.14
4.22
13.17
21.82
30.00
37.18
42.85
46.66
48.76
49.64
49.96
50.23
50.72
51.42
52.21
53.03
53.90
54.84
55.70
56.02
55.07
52.07
46.43
38.06
27.42
15.35
2.86
-9.21
-20.36
-30.39
-39.39
-47.57
-55.29
-63.00
-71.21
-80.22
-89.89
-99.41
-107.40
-112.35
-113.08
-109.26
-101.51
-91.16
-79.77
-68.61
-58.38
-49.24
-40.99
-33.39
-26.31
-19.76
-13.82
-8.53
-3.93
-0.04
3.13
5.59
7.36
8.59
9.49
10.30
11.22
12.31
13.52
14.63
15.40
15.55
14.86
13.22
10.68
7.47
3.88
0.24
-3.33
-6.98
-11.14
-16.33
-22.85
-30.48
-38.45
-45.46
-50.11
-51.38
-48.85
-42.89
-34.50
-24.99
-15.59
-7.13
0.07
6.12
11.41
16.29
20.90
25.11
28.61
31.08
32.42
32.79
32.64
32.52
32.93
34.19
36.36
39.27
42.51
45.63
48.15
