1515716755.00
64.000000
-0.00
-0.00
-0.00
-0.00
-0.00
-0.00
-0.00
-0.00
-0.00
-0.00
0.00
0.01
0.01
-0.00
-0.03
-0.05
-0.05
0.00
0.13
0.36
0.66
1.01
1.37
1.72
2.06
2.40
2.79
3.24
3.80
4.42
5.06
5.66
6.20
6.68
7.15
7.68
8.31
9.14
10.09
11.04
11.88
12.56
13.14
13.76
14.65
15.96
17.91
20.32
22.90
25.38
27.58
29.57
31.68
34.32
37.81
42.54
48.15
54.10
59.83
64.97
69.58
74.14
79.34
85.71
93.76
103.00
112.62
121.73
129.77
136.75
143.30
150.75
157.77
166.64
177.95
191.79
206.97
220.57
228.25
225.36
208.53
176.87
132.76
80.05
23.07
-34.94
-92.44
-149.16
-205.23
-260.37
-313.74
-363.87
-409.83
-450.91
-486.50
-515.74
-537.23
-549.22
-549.96
-538.37
-514.21
-478.67
-433.88
-382.45
-327.02
-269.84
-212.63
-156.66
-102.95
-52.37
-5.90
35.58
71.43
101.35
125.50
144.38
158.69
169.15
176.37
180.75
182.57
182.07
179.51
175.23
169.65
163.18
156.15
148.81
141.30
133.69
126.02
118.33
110.69
103.16
95.80
88.68
81.83
75.25
68.95
62.95
57.25
51.86
46.78
42.03
37.59
33.45
29.61
26.07
22.81
19.83
17.11
14.67
12.48
10.54
8.83
7.35
6.07
4.97
4.05
3.27
2.62
2.09
1.65
1.30
1.01
0.79
0.61
0.47
0.37
0.28
0.22
0.18
0.15
0.13
0.12
0.12
0.12
0.14
0.16
0.18
0.21
0.25
0.29
0.33
0.37
0.42
0.46
0.51
0.56
0.61
0.66
0.72
0.79
0.85
0.93
1.01
1.10
1.20
1.31
1.43
1.57
1.72
1.90
2.10
2.31
2.54
2.81
3.10
3.42
3.77
4.15
4.57
5.02
5.50
6.03
6.59
7.20
7.85
8.54
9.28
10.06
10.89
11.76
12.68
13.65
14.67
15.77
16.92
18.14
19.40
20.67
21.91
23.04
23.97
24.57
24.74
24.35
23.31
21.57
19.10
15.96
12.22
8.04
3.62
-0.86
-5.19
-9.17
-12.62
-15.42
-17.50
-18.81
-19.41
-19.39
-18.91
-18.12
-17.11
-15.98
-14.75
-13.41
-11.93
-10.31
-8.63
-6.98
-5.45
-4.05
-2.74
-1.41
0.08
1.87
4.03
6.39
8.79
11.04
13.09
14.99
16.94
19.19
21.96
25.33
28.87
32.09
34.58
36.17
36.99
37.54
38.41
40.11
42.83
45.78
48.04
48.76
47.62
44.92
41.57
38.74
37.37
37.74
38.59
38.30
35.31
28.72
18.41
4.90
-11.35
-30.84
-50.09
-68.68
-87.20
-106.87
-129.18
-155.38
-185.73
-218.66
-250.44
-275.56
-289.17
-288.10
-272.72
-247.11
-217.76
-190.93
-170.16
-155.01
-141.70
-125.79
-103.93
-75.55
-42.89
-9.80
20.13
44.93
64.49
79.94
92.12
101.35
107.36
109.79
108.91
105.91
102.62
100.79
101.40
104.02
107.27
109.22
108.11
103.04
94.20
82.97
71.43
61.80
55.74
54.03
56.41
61.64
67.41
70.43
66.73
52.67
26.56
-10.04
-52.05
-91.96
-122.32
-138.24
-138.69
-126.13
-104.64
-77.75
-47.27
-13.51
23.39
62.11
99.62
131.93
155.64
169.43
174.69
175.04
174.90
177.76
184.92
195.17
205.60
212.86
214.52
209.61
198.69
183.39
166.00
149.14
135.57
127.60
126.26
130.48
137.00
141.39
140.03
131.55
117.30
100.19
82.89
66.56
50.72
34.37
17.11
-0.63
-18.42
-36.72
-57.21
-81.83
-111.37
-144.54
-178.32
-209.32
-235.10
-254.93
-269.34
-279.25
-285.47
-288.68
-289.52
-288.54
-285.86
-280.67
-271.48
-256.84
-236.33
-211.04
-183.26
-155.52
-129.65
-106.53
-86.29
-68.97
-55.02
-45.07
-39.45
-37.65
-38.17
-39.02
-38.48
-35.70
-31.02
-25.81
-22.11
-22.24
-28.35
-42.00
-63.59
-91.76
-123.16
-152.95
-176.24
-190.16
-195.33
-195.78
-197.04
-202.93
-213.12
-222.68
-224.23
-211.62
-183.05
-142.07
-95.78
-51.49
-13.69
17.00
42.78
66.37
88.98
109.87
127.07
139.15
146.40
151.07
156.48
165.55
179.54
197.48
216.63
233.32
244.07
246.28
238.59
220.81
193.90
159.97
122.14
84.50
51.58
27.60
15.56
16.42
28.71
48.66
71.11
90.78
103.72
108.22
105.09
96.97
87.26
78.81
73.17
70.38
69.38
68.74
67.15
63.78
58.28
50.63
41.04
30.02
18.42
7.48
-1.23
-6.09
-5.82
0.08
11.16
26.03
42.67
58.91
72.93
83.61
90.54
93.99
94.54
93.02
90.26
87.08
84.22
82.17
81.15
80.91
80.98
80.76
79.88
78.38
76.70
75.65
75.98
78.19
82.16
87.22
92.29
96.36
98.96
100.43
101.87
104.66
109.82
117.40
126.45
135.31
142.41
146.89
148.87
149.21
148.77
147.79
145.54
140.41
130.41
113.60
88.42
54.05
10.92
-38.59
-89.76
-136.14
-171.19
-190.61
-194.23
-186.29
-173.80
-163.73
-160.37
-164.25
-172.90
-182.79
-191.18
-196.82
-199.65
-199.78
-196.94
-190.60
-180.57
-167.73
-153.94
-141.54
-132.45
-127.37
-125.56
-125.27
-124.54
-122.08
-117.71
-112.39
-107.61
-104.62
-103.82
-104.48
-105.18
-104.38
-101.28
-96.13
-90.16
-84.91
-81.49
-79.99
-79.49
-78.43
-75.44
-69.91
-62.20
-53.35
-44.50
-36.38
-29.13
-22.48
-16.11
-9.96
-4.25
0.72
4.80
8.12
11.03
13.93
17.02
20.26
23.42
26.21
28.42
30.02
31.11
31.82
32.27
32.43
32.20
31.42
29.95
27.70
24.67
20.99
16.87
12.62
8.53
4.85
1.70
-0.99
-3.54
-6.43
-10.16
-15.03
-20.90
-27.10
-32.52
-35.83
-35.97
-32.39
-25.35
-15.81
-5.05
5.66
15.38
23.66
30.43
35.76
39.75
42.43
43.88
44.22
43.80
43.04
42.35
42.03
42.06
42.25
42.27
41.81
40.76
39.17
37.21
35.09
32.95
30.73
28.35
25.64
22.52
19.01
15.23
11.41
7.72
4.28
1.06
-2.07
-5.33
-8.91
-13.00
-17.74
-23.17
-29.16
-35.25
-40.59
-44.06
-44.55
-41.39
-34.53
-24.74
-13.28
-1.56
9.21
18.29
25.33
30.33
33.41
34.82
34.84
33.86
32.30
30.59
29.15
28.39
28.67
30.26
33.27
37.59
42.91
48.86
55.15
61.63
68.19
74.62
80.61
85.84
90.36
94.78
100.24
107.80
117.79
129.27
139.97
147.15
148.42
142.76
130.63
113.71
94.01
73.28
52.72
33.26
15.85
1.71
-7.88
-12.05
-10.69
-4.57
5.02
16.81
30.03
44.63
60.79
78.31
95.92
111.20
121.36
124.36
119.98
110.02
97.58
85.54
75.31
66.34
56.58
43.74
26.41
4.67
-20.06
-45.50
-69.13
-88.70
-102.54
-109.87
-111.07
-107.62
-101.66
-95.36
-90.15
-86.41
-83.63
-80.97
-77.95
-74.85
-72.62
-72.45
-75.10
-80.50
-87.59
-94.82
-100.60
-103.91
-104.35
-101.91
-96.58
-88.20
-76.71
-62.45
-46.59
-30.89
-17.26
-7.04
-0.51
3.05
4.97
6.54
8.61
11.38
14.59
17.75
20.38
22.18
22.96
22.59
20.92
17.94
13.92
9.63
6.25
4.97
6.55
10.89
17.05
23.65
29.47
33.88
36.86
38.60
39.02
37.55
33.35
25.79
14.84
1.15
-14.15
-29.84
-44.87
-58.45
-69.87
-78.48
-83.64
-84.79
-81.65
-74.28
-63.16
-49.19
-33.67
-18.23
-4.60
5.84
12.45
15.49
16.07
15.51
14.86
14.47
14.08
13.21
11.35
8.12
3.10
-4.18
-13.85
-25.20
-36.36
-44.73
-47.86
-44.54
-35.39
-22.45
-8.28
4.99
16.10
24.51
29.93
32.18
31.37
28.24
24.18
20.76
19.11
19.50
21.57
24.80
29.07
34.64
41.62
49.52
56.92
61.99
63.27
60.44
54.45
46.98
39.63
33.16
27.35
21.54
15.24
8.73
2.91
-1.16
-2.99
-2.93
-2.05
-1.51
-1.84
-2.65
-2.89
-1.47
2.00
6.86
11.73
15.12
16.10
14.65
11.43
7.26
2.56
-2.72
-8.93
-16.25
-24.41
-32.74
-40.56
-47.57
-53.80
-59.41
-64.19
-67.46
-68.30
-66.16
-61.29
-54.86
-48.54
-43.81
-41.36
-40.98
-41.76
-42.82
-43.76
-44.84
-46.66
-49.63
-53.59
-57.79
-61.35
-63.61
-64.58
-64.81
-65.13
-66.04
-67.29
-67.78
-65.82
-59.91
-49.38
-34.90
-18.29
-2.00
11.74
21.50
26.95
28.58
27.30
24.12
20.01
15.98
13.11
12.36
14.22
18.43
24.07
29.89
34.89
38.59
41.09
42.88
44.43
46.04
47.74
49.52
51.56
54.33
58.59
65.00
73.65
83.69
93.48
101.22
105.80
107.45
107.65
108.30
110.58
114.17
117.49
118.54
116.09
110.23
101.92
92.01
80.31
65.55
46.30
22.30
-4.63
-30.95
-52.81
-67.66
-75.39
-77.98
-78.45
-79.25
-81.37
-84.37
-87.11
-88.80
-89.49
-90.05
-91.42
-93.96
-97.01
-99.03
-98.31
-93.70
-85.16
-73.74
-61.09
-48.65
-37.21
-26.84
-17.41
-9.19
-3.05
-0.10
-0.99
-5.47
-12.35
-20.11
-27.50
-33.79
-38.51
-41.01
-40.34
-35.75
-27.44
-17.02
-7.26
-1.03
-0.03
-3.83
-9.76
-13.79
-11.97
-1.89
16.56
41.25
68.57
94.60
116.14
131.29
139.62
141.82
139.19
133.09
124.62
114.44
103.01
90.80
78.28
65.84
53.46
40.72
27.08
12.42
-2.49
-16.08
-26.60
-33.14
-36.15
-37.25
-38.44
-41.02
-45.16
-50.04
-54.48
-57.54
-58.74
-57.94
-55.29
-51.28
-46.91
-43.49
-42.22
-43.59
-47.05
-51.27
-54.86
-57.14
-58.42
-59.61
-61.49
-64.01
-66.35
-67.53
-67.17
-65.96
-65.26
-66.33
-69.40
-73.48
-76.91
-78.33
-77.59
-75.78
-74.57
-75.12
-77.28
-79.57
-79.86
-76.46
-68.91
-58.18
-46.18
-34.92
-25.81
-19.34
-14.99
-11.46
-6.81
1.33
15.41
37.19
66.84
102.16
138.53
169.90
190.78
198.10
192.40
177.39
158.28
139.61
123.70
110.58
98.91
87.43
75.62
63.55
51.10
37.39
21.14
1.59
-20.50
-42.67
-61.53
-74.23
-79.55
-78.21
-72.20
-63.64
-54.13
-44.68
-36.11
-29.38
-25.45
-24.73
-26.56
-29.26
-30.72
-29.47
-25.23
-18.99
-12.31
-6.45
-1.77
2.17
6.05
10.20
14.35
17.81
20.00
20.82
20.70
20.29
20.11
20.27
20.47
20.21
19.11
17.07
14.34
11.49
9.20
8.11
8.57
10.50
13.39
16.44
18.82
19.99
20.01
19.36
18.76
18.60
18.71
18.27
16.12
11.20
2.91
-8.72
-23.19
-39.74
-57.51
-75.67
-93.27
-109.34
-122.87
-133.14
-139.79
-142.92
-142.89
-140.16
-135.10
-127.90
-118.80
-108.02
-95.95
-83.07
-69.98
-57.43
-46.19
-36.94
-29.97
-24.94
-20.92
-16.66
-10.96
-3.14
6.89
18.73
31.76
45.44
59.40
73.39
87.14
100.27
112.29
122.62
130.76
136.57
140.50
143.59
147.08
151.65
156.71
160.23
159.32
151.43
135.58
112.87
86.17
59.15
35.15
16.35
3.60
-3.37
-5.56
-4.46
-1.92
-0.05
-0.91
-5.92
-15.27
-27.65
-40.53
-51.02
-56.90
-57.53
-53.92
-48.24
-42.71
-38.66
-36.19
-34.49
-32.65
-30.33
-27.96
-26.32
-25.97
-26.88
-28.31
-29.30
-29.18
-27.88
-26.02
-24.46
-23.82
-24.15
-24.89
-25.17
-24.30
-22.15
-19.24
-16.50
-14.78
-14.54
-15.57
-17.17
-18.42
-18.52
-17.04
-13.95
-9.57
-4.40
0.90
5.57
8.77
9.67
7.65
2.56
-5.06
-13.98
-22.50
-28.88
-31.86
-31.01
-26.84
-20.46
-13.20
-6.12
0.20
5.64
10.27
14.09
16.87
18.30
18.18
16.68
14.37
12.02
10.29
9.50
9.54
10.03
10.63
11.22
11.86
12.71
13.71
14.59
14.93
14.45
13.21
11.64
10.30
9.61
9.60
9.93
10.03
9.43
7.91
5.58
2.75
-0.20
-3.01
-5.54
-7.78
-9.87
-12.06
-14.65
-17.87
-21.65
-25.57
-28.85
-30.62
-30.19
-27.35
-22.44
-16.21
-9.48
-2.93
3.02
8.25
12.72
16.39
19.20
21.08
22.05
22.22
21.80
21.04
20.15
19.27
18.53
17.97
17.59
17.33
16.98
16.25
14.86
12.57
9.41
5.59
1.47
-2.56
-6.21
-9.36
-12.03
-14.29
-16.25
-18.04
-19.75
-21.45
-23.16
-24.89
-26.64
-28.42
-30.31
-32.44
-34.93
-37.82
-40.94
-43.88
-45.95
-46.31
-44.23
-39.35
-31.93
-22.83
-13.28
-4.48
2.74
8.11
11.81
14.21
15.70
16.46
16.64
16.33
15.75
15.15
14.75
14.67
14.84
15.10
15.28
15.28
15.09
14.86
14.75
14.79
14.89
14.83
14.32
13.23
11.52
9.27
6.53
3.22
-0.75
-5.35
-10.23
-14.71
-18.08
-20.08
-21.16
-22.46
-25.38
-30.84
-38.66
-47.35
-54.58
-58.04
-56.43
-49.99
-40.48
-30.39
-21.99
-16.46
-13.65
-12.41
-11.28
-9.32
-6.61
-4.40
-4.90
-10.80
-24.62
-47.67
-79.04
-114.81
-148.16
-170.77
-175.20
-157.63
-119.70
-68.61
-15.00
30.30
59.31
68.57
58.88
33.98
-1.01
-40.64
-79.48
-112.39
-134.88
-144.07
-139.61
-124.16
-102.92
-82.30
-67.88
-62.73
-66.50
-75.83
-85.51
-90.36
-86.97
-74.81
-56.22
-35.24
-15.74
0.05
12.23
22.71
34.05
48.08
65.05
83.45
100.52
113.43
120.45
121.95
120.77
121.68
129.93
149.33
180.50
220.26
262.41
299.79
326.76
340.77
342.49
334.64
320.27
301.67
280.12
256.55
232.39
209.76
190.84
176.71
166.42
156.80
143.55
122.96
93.70
57.55
18.97
-16.57
-44.51
-62.68
-71.56
-73.64
-72.12
-69.72
-68.13
-67.95
-69.04
-70.90
-72.85
-74.15
-74.08
-72.12
-68.17
-62.72
-56.76
-51.48
-48.00
-46.96
-48.43
-51.69
-55.39
-57.75
-57.01
-52.05
-42.90
-30.94
-18.56
-8.44
-2.57
-1.56
-4.59
-9.86
-15.34
-19.54
-21.87
-22.52
-22.21
-21.79
-21.93
-22.95
-24.66
-26.41
-27.30
-26.44
-23.27
-17.83
-10.76
-3.12
3.91
9.53
13.58
16.60
19.51
23.06
27.22
30.94
32.56
30.57
24.66
15.94
6.55
-1.51
-7.41
-11.73
-15.86
-20.77
-26.17
-30.47
-31.74
-28.96
-22.66
-14.83
-7.98
-4.10
-4.03
-7.48
-13.42
-20.61
-27.87
-34.26
-39.29
-42.93
-45.76
-48.68
-52.56
-57.73
-63.72
-69.40
-73.30
-74.22
-71.45
-64.94
-55.11
-42.67
-28.61
-14.13
-0.75
9.96
16.59
18.42
15.64
9.25
0.74
-8.52
-17.77
-26.99
-36.67
-47.41
-59.50
-72.70
-86.36
-99.51
-111.06
-119.90
-125.02
-125.63
-121.44
-112.71
-100.26
-85.28
-68.98
-52.39
-36.10
-20.44
-5.49
8.69
22.00
34.25
45.09
54.20
61.45
67.01
71.43
75.52
80.01
85.27
91.42
98.48
106.67
116.10
126.10
134.55
137.94
132.57
116.24
89.74
56.98
23.69
-4.72
-25.01
-36.65
-41.08
-40.36
-36.22
-29.92
-22.81
-16.82
-14.14
-16.27
-23.01
-32.15
-40.22
-43.81
-40.93
-31.74
-18.33
-3.69
9.36
19.06
24.87
27.10
26.27
22.82
17.11
9.63
1.39
-6.14
-11.38
-13.15
-11.31
-6.88
-1.65
2.72
5.39
6.83
8.45
11.89
18.08
26.64
35.99
43.92
48.55
48.89
45.02
37.70
27.84
16.07
2.85
-11.25
-25.29
-38.01
-48.42
-56.50
-63.49
-71.32
-81.34
-92.94
-103.14
-107.78
-103.65
-90.43
-71.15
-51.01
-35.15
-26.61
-25.71
-30.82
-39.64
-50.22
-61.11
-70.99
-78.37
-81.97
-81.23
-76.88
-70.71
-65.01
-61.70
-61.80
-65.01
-69.75
-73.58
-73.75
-68.23
-56.51
-39.96
-21.45
-4.22
9.18
17.66
21.55
22.17
21.37
21.37
24.60
33.31
48.82
70.81
97.38
125.95
154.56
182.74
211.26
240.92
271.04
298.80
319.72
329.02
323.00
300.06
261.17
209.97
152.65
97.41
53.35
28.50
27.76
51.29
94.36
148.65
204.58
253.74
290.56
312.75
320.73
316.61
303.12
283.13
259.41
234.78
211.98
193.48
181.10
175.52
176.22
181.65
189.51
197.08
201.47
200.11
191.17
174.08
149.68
119.96
87.33
53.73
20.11
-13.82
-49.22
-87.67
-130.37
-177.41
-227.03
-275.31
-316.80
-345.90
-358.89
-355.54
-339.56
-317.37
-295.96
-280.50
-273.10
-272.86
-277.02
-282.21
-285.30
-283.85
-276.30
-262.42
-243.64
-222.96
-204.03
-189.69
-180.67
-175.22
-170.04
-161.84
-148.91
-131.56
-111.48
-90.60
-70.23
-51.06
-33.54
-18.47
-6.74
1.18
5.83
8.80
11.96
16.47
22.13
27.70
31.81
34.06
35.44
37.86
43.01
51.30
61.49
71.16
77.79
79.61
76.14
68.01
56.54
43.32
29.80
17.22
6.31
-2.60
-9.80
-15.85
-21.34
-26.59
-31.57
-36.07
-39.86
-43.01
-45.79
-48.56
-51.60
-55.04
-58.84
-62.74
-66.30
-68.75
-69.14
-66.56
-60.48
-51.09
-39.26
-26.35
-13.69
-2.31
7.33
15.20
21.46
26.26
29.70
31.78
32.59
32.35
31.46
30.38
29.53
29.17
29.30
29.74
30.28
30.82
31.36
32.01
32.81
33.64
34.19
34.08
33.09
31.23
28.76
26.05
23.42
20.85
18.13
14.91
10.99
6.47
1.75
-2.66
-6.42
-9.49
-12.20
-15.01
-18.36
-22.58
-27.82
-34.07
-41.06
-48.15
-54.20
-57.78
-57.53
-52.74
-43.66
-31.49
-18.00
-4.89
6.74
16.45
24.35
30.73
35.80
39.62
42.25
43.83
44.65
45.02
45.10
44.91
44.24
42.90
40.78
37.96
34.71
31.36
28.24
25.48
23.06
20.81
18.53
16.04
13.35
10.52
7.74
5.22
3.11
1.49
0.20
-1.06
-2.75
-5.22
-8.55
-12.50
-16.49
-19.90
-22.31
-23.78
-24.75
-25.95
-28.02
-31.20
-35.21
-39.27
-42.34
-43.44
-41.96
-37.81
-31.41
-23.51
-14.93
-6.36
1.76
9.15
15.68
21.21
25.62
28.85
30.95
32.12
32.61
32.72
32.68
32.58
32.41
32.12
31.72
31.24
30.79
30.41
30.06
29.58
28.76
27.44
25.60
23.38
21.02
18.76
16.77
15.03
13.38
11.55
9.36
6.68
3.59
0.29
-2.98
-6.01
-8.67
-10.96
-12.95
-14.78
-16.75
-19.18
-22.42
-26.66
-31.67
-36.77
-40.88
-42.80
-41.65
-37.16
-29.78
-20.52
-10.64
-1.24
6.94
13.63
18.86
22.85
25.81
27.93
29.30
29.99
30.14
29.97
29.70
29.58
29.69
29.96
30.15
30.00
29.38
28.38
27.27
26.30
25.59
24.92
23.94
22.32
19.96
17.12
14.24
11.73
9.74
8.13
6.55
4.74
2.55
0.04
-2.68
-5.46
-8.22
-10.91
-13.48
-15.97
-18.50
-21.26
-24.58
-28.56
-33.10
-37.68
-41.46
-43.46
-42.85
-39.25
-32.79
-24.20
-14.54
-4.97
3.58
10.50
15.62
19.04
21.03
21.89
21.86
21.25
20.30
19.29
18.43
17.81
17.44
17.23
17.15
17.15
17.26
17.46
17.64
17.62
17.20
16.25
14.75
12.78
10.49
8.02
5.52
3.06
0.72
-1.51
-3.61
-5.66
-7.73
-9.88
-12.16
-14.50
-16.82
-19.05
-21.20
-23.40
-25.91
-28.94
-32.45
-36.09
-39.04
-40.35
-39.12
-34.96
-28.09
-19.33
-9.87
-0.83
6.88
12.81
16.88
19.26
20.25
20.17
19.38
18.22
17.03
16.06
15.47
15.29
15.40
15.57
15.57
15.25
14.59
13.66
12.59
11.44
10.24
8.96
7.58
6.12
4.62
3.12
1.61
0.02
-1.73
-3.66
-5.77
-7.97
-10.15
-12.26
-14.29
-16.33
-18.48
-20.89
-23.69
-27.00
-30.71
-34.51
-37.77
-39.69
-39.48
-36.63
-31.16
-23.54
-14.65
-5.50
3.05
10.40
16.31
20.72
23.77
25.59
26.32
26.08
25.07
23.57
21.92
20.47
19.48
19.03
18.96
19.01
18.89
18.34
17.34
15.94
14.29
12.53
10.74
8.91
7.00
4.93
2.63
0.05
-2.83
-5.98
-9.33
-12.71
-15.96
-18.93
-21.57
-23.93
-26.16
-28.47
-31.07
-34.10
-37.43
-40.65
-43.01
-43.60
-41.67
-36.91
-29.62
-20.71
-11.32
-2.56
4.93
10.92
15.54
19.01
21.45
22.86
23.19
22.48
21.00
19.15
17.46
16.29
15.75
15.71
15.82
15.73
15.25
14.36
13.16
11.79
10.28
8.58
6.57
4.17
1.42
-1.51
-4.38
-7.02
-9.29
-11.26
-13.08
-14.99
-17.19
-19.85
-23.08
-26.88
-31.17
-35.59
-39.60
-42.41
-43.16
-41.20
-36.32
-28.87
-19.71
-9.94
-0.61
7.53
14.13
19.16
22.78
25.17
26.46
26.78
26.27
25.13
23.63
22.00
20.40
18.81
17.20
15.47
13.67
11.92
10.36
9.15
8.29
7.64
6.93
5.84
4.12
1.71
-1.29
-4.58
-7.79
-10.60
-12.85
-14.63
-16.17
-17.88
-20.11
-23.09
-26.82
-31.01
-35.10
-38.27
-39.64
-38.52
-34.58
-28.10
-19.85
-10.94
-2.40
5.04
11.09
15.85
19.50
22.19
23.91
24.67
24.59
23.95
23.15
22.52
22.17
21.96
21.65
21.03
20.08
18.94
17.86
17.00
16.33
15.65
14.63
13.03
10.70
7.68
4.21
0.57
-2.93
-6.10
-8.86
-11.31
-13.65
-16.15
-19.10
-22.67
-26.85
-31.27
-35.27
-37.97
-38.53
-36.43
-31.68
-24.87
-16.93
-8.85
-1.42
4.99
10.33
14.73
18.33
21.18
23.22
24.44
24.92
24.83
24.44
23.93
23.45
22.96
22.37
21.59
20.60
19.42
18.14
16.81
15.39
13.71
11.56
8.80
5.45
1.75
-1.89
-5.06
-7.49
-9.20
-10.50
-11.87
-13.77
-16.48
-19.99
-23.91
-27.64
-30.36
-31.30
-29.91
-26.05
-20.09
-12.77
-5.10
2.06
8.14
12.98
16.72
19.61
21.80
23.27
23.97
23.85
23.06
21.83
20.48
19.24
18.18
17.25
16.28
15.17
13.86
12.39
10.87
9.37
7.88
6.23
4.22
1.70
-1.28
-4.49
-7.49
-9.86
-11.34
-11.97
-12.11
-12.34
-13.23
-15.22
-18.40
-22.43
-26.60
-29.95
-31.51
-30.64
-27.20
-21.63
-14.84
-7.79
-1.23
4.42
9.09
12.84
15.76
17.83
19.04
19.41
19.13
18.39
17.37
16.12
14.63
12.94
11.10
9.31
7.76
6.63
5.98
5.80
5.91
6.07
5.94
5.26
3.89
1.94
-0.33
-2.53
-4.40
-5.83
-6.97
-8.05
-9.29
-10.83
-12.74
-15.07
-17.84
-20.99
-24.24
-27.03
-28.55
-28.10
-25.26
-20.19
-13.52
-6.14
1.20
8.02
13.99
18.75
21.80
22.70
21.42
18.58
15.36
13.05
12.47
13.68
16.04
18.63
20.63
21.57
21.28
19.72
16.98
13.29
9.11
5.03
1.56
-1.18
-3.45
-5.76
-8.55
-11.90
-15.57
-19.05
-21.89
-23.82
-24.85
-25.21
-25.29
-25.46
-26.09
-27.45
-29.68
-32.65
-35.89
-38.56
-39.62
-38.11
-33.49
-25.94
-16.39
-6.20
3.13
10.60
15.93
19.59
22.55
25.75
29.72
34.31
38.90
42.71
45.23
46.48
46.83
46.71
46.28
45.32
43.43
40.43
36.53
32.28
28.29
24.82
21.73
18.59
15.05
11.08
7.00
3.30
0.31
-2.01
-3.95
-5.94
-8.29
-11.01
-13.93
-16.77
-19.29
-21.38
-23.11
-24.66
-26.27
-28.11
-30.17
-32.22
-33.76
-34.21
-33.04
-30.00
-25.26
-19.31
-12.83
-6.46
-0.70
4.17
7.98
10.62
12.07
12.50
12.22
11.69
11.29
11.17
11.23
11.20
10.87
10.18
9.29
8.43
7.75
7.24
6.76
6.13
5.26
4.18
2.95
1.65
0.27
-1.22
-2.85
-4.58
-6.30
-7.88
-9.25
-10.42
-11.48
-12.56
-13.72
-14.92
-16.08
-17.10
-17.97
-18.84
-19.91
-21.37
-23.21
-25.18
-26.80
-27.52
-26.86
-24.56
-20.71
-15.65
-9.94
-4.24
0.87
4.95
7.79
9.40
9.96
9.76
9.15
8.43
7.88
7.66
7.84
8.36
9.00
9.50
9.59
9.20
8.42
7.53
6.79
6.33
6.07
5.75
5.13
4.05
2.63
1.13
-0.14
-1.02
-1.55
-1.91
-2.36
-3.05
-4.01
-5.18
-6.47
-7.85
-9.39
-11.15
-13.16
-15.38
-17.72
-20.17
-22.68
-25.18
-27.47
-29.09
-29.51
-28.22
-25.07
-20.28
-14.46
-8.38
-2.70
2.14
5.99
8.92
11.06
12.50
13.30
13.49
13.13
12.39
11.42
10.46
9.67
9.10
8.75
8.51
8.35
8.20
8.13
8.18
8.38
8.61
8.71
8.52
7.95
7.03
5.88
4.60
3.27
1.82
0.18
-1.78
-4.09
-6.69
-9.41
-12.01
-14.28
-16.12
-17.57
-18.86
-20.30
-22.15
-24.48
-27.19
-29.96
-32.39
-34.12
-34.92
-34.66
-33.37
-31.16
-28.21
-24.72
-20.86
-16.77
-12.54
-8.27
-4.03
0.12
4.24
8.47
12.93
17.64
22.31
26.46
29.44
30.78
30.35
28.40
25.49
22.22
19.05
16.18
13.61
11.27
9.06
6.97
5.02
3.29
1.80
0.59
-0.34
-1.00
-1.46
-1.81
-2.20
-2.81
-3.75
-5.06
-6.64
-8.34
-9.97
-11.49
-12.92
-14.48
-16.43
-18.95
-22.03
-25.35
-28.26
-30.00
-29.89
-27.62
-23.30
-17.49
-11.00
-4.63
1.04
5.74
9.46
12.32
14.45
15.93
16.78
17.08
16.98
16.66
16.29
15.97
15.71
15.45
15.11
14.66
14.09
13.43
12.70
11.90
11.04
10.11
9.13
8.09
6.98
5.76
4.41
2.94
1.39
-0.19
-1.80
-3.50
-5.36
-7.40
-9.55
-11.65
-13.54
-15.17
-16.65
-18.23
-20.20
-22.68
-25.49
-28.15
-29.93
-30.16
-28.38
-24.56
-19.06
-12.58
-5.89
0.34
5.69
9.99
13.31
15.75
17.41
18.39
18.77
18.69
18.36
18.01
17.80
17.82
18.03
18.33
18.64
18.88
19.02
19.01
18.78
18.23
17.27
15.83
13.97
11.79
9.46
7.17
5.05
3.19
1.56
0.09
-1.32
-2.77
-4.32
-5.99
-7.79
-9.74
-11.84
-14.08
-16.36
-18.56
-20.54
-22.17
-23.33
-23.86
-23.49
-21.84
-18.43
-12.91
-5.19
4.33
14.87
25.28
34.38
41.27
45.54
47.50
48.02
48.32
49.50
52.09
55.91
60.04
63.34
64.95
64.80
63.88
64.04
67.40
75.60
88.86
105.50
122.03
133.75
135.98
125.19
100.18
62.51
16.57
-31.15
-73.44
-104.12
-119.62
-119.89
-108.05
-88.87
-66.88
-44.97
-24.22
-4.96
12.00
24.76
31.21
30.71
25.18
18.85
16.38
20.50
30.56
42.92
52.78
56.41
52.43
41.89
27.36
11.97
-1.21
-9.56
-11.25
-5.96
4.55
16.47
24.82
25.17
15.24
-4.37
-30.62
-59.17
-85.83
-107.44
-122.17
-129.48
-129.93
-125.25
-118.24
-112.48
-111.43
-117.07
-128.67
-142.20
-151.22
-149.09
-131.65
-99.26
-57.09
-13.29
23.95
49.14
60.82
61.01
53.45
41.70
28.17
14.25
0.96
-10.45
-18.51
-22.06
-20.99
-16.37
-10.14
-4.29
-0.15
2.02
2.91
3.61
4.98
7.20
9.77
11.81
12.55
11.75
9.77
7.45
5.70
5.13
5.82
7.33
8.94
9.96
10.00
9.00
7.27
5.20
3.11
1.16
-0.66
-2.35
-3.85
-5.01
-5.68
-5.89
-5.83
-5.80
-6.13
-6.96
-8.32
-10.15
-12.47
-15.38
-18.95
-23.03
-27.16
-30.48
-32.01
-31.06
-27.40
-21.51
-14.32
-6.90
-0.14
5.52
10.07
13.76
16.82
19.38
21.37
22.76
23.54
23.86
23.89
23.78
23.56
23.20
22.69
22.13
21.71
21.61
21.79
22.03
21.98
21.35
20.02
18.14
15.98
13.82
11.79
9.88
7.99
6.02
3.92
1.75
-0.39
-2.39
-4.18
-5.71
-7.07
-8.42
-10.00
-12.12
-14.89
-18.17
-21.37
-23.55
-23.64
-20.85
-14.96
-6.46
3.57
13.93
23.64
32.35
40.23
47.76
55.29
62.72
69.49
74.88
78.48
80.49
81.84
83.81
87.47
93.10
100.00
106.84
112.30
115.82
117.95
119.99
123.18
127.81
132.87
136.31
135.80
129.34
115.74
94.63
66.35
31.98
-6.55
-46.37
-83.94
-115.75
-139.32
-153.96
-160.89
-162.40
-160.41
-154.91
-143.54
-122.67
-89.96
-46.84
0.63
43.62
74.49
90.64
95.65
96.75
100.14
107.10
113.52
113.04
101.72
81.15
57.90
39.87
32.06
34.13
41.46
48.10
50.06
46.64
39.80
32.19
25.54
20.12
15.24
10.24
4.98
-0.19
-5.00
-9.67
-15.09
-22.37
-32.21
-44.56
-58.65
-73.42
-87.94
-101.63
-114.09
-125.05
-134.25
-141.75
-148.10
-154.31
-161.33
-169.47
-178.11
-185.91
-191.35
-193.30
-191.25
-185.24
-175.73
-163.52
-149.90
-136.67
-125.78
-118.63
-115.10
-113.04
-108.51
-96.91
-74.72
-41.04
1.56
47.55
90.06
122.89
142.36
148.07
142.54
129.75
113.58
96.74
80.63
65.81
52.76
42.15
34.57
30.11
27.92
26.49
24.21
20.07
14.04
6.91
-0.03
-5.70
-9.56
-11.75
-12.88
-13.81
-15.23
-17.56
-20.91
-25.09
-29.71
-34.21
-37.98
-40.28
-40.43
-37.91
-32.48
-24.37
-14.29
-3.35
7.11
15.84
22.01
25.35
26.17
25.14
22.96
20.16
17.03
13.67
10.19
6.78
3.79
1.50
0.05
-0.65
-0.89
-1.01
-1.25
-1.64
-2.00
-1.98
-1.11
1.15
5.36
11.95
20.95
31.70
42.87
52.62
59.16
61.39
59.34
54.03
46.90
39.11
30.91
21.73
10.64
-2.74
-17.85
-33.17
-46.77
-57.04
-63.07
-64.88
-62.94
-57.97
-50.66
-41.81
-32.36
-23.50
-16.51
-12.34
-11.32
-12.91
-15.81
-18.30
-18.79
-16.38
-11.08
-3.78
4.15
11.39
17.12
21.15
23.84
25.66
26.98
27.94
28.47
28.51
28.04
27.10
25.78
24.16
22.41
20.71
19.28
18.23
17.51
16.91
16.10
14.71
12.39
8.87
3.97
-2.19
-9.13
-15.93
-21.40
-24.41
-24.26
-20.94
-15.14
-7.91
-0.35
6.78
13.22
19.03
24.38
29.29
33.51
36.67
38.49
38.97
38.40
37.19
35.62
33.68
31.08
27.55
23.01
17.74
12.32
7.34
3.19
-0.11
-2.81
-5.27
-7.66
-9.93
-11.81
-13.03
-13.54
-13.63
-13.84
-14.73
-16.65
-19.58
-23.19
-27.08
-30.95
-34.58
-37.74
-39.99
-40.69
-39.18
-35.12
-28.82
-21.13
-13.25
-6.22
-0.59
3.66
6.95
9.74
12.29
14.62
16.60
18.11
19.15
19.73
19.80
19.09
17.23
13.92
9.10
3.11
-3.38
-9.53
-14.63
-18.22
-20.19
-20.77
-20.36
-19.40
-18.23
-17.03
-15.88
-14.76
-13.64
-12.42
-10.98
-9.16
-6.91
-4.37
-1.79
0.52
2.47
4.31
6.63
9.91
14.22
19.03
23.31
25.94
26.16
23.80
19.26
13.30
6.80
0.65
-4.43
-8.09
-10.60
-12.97
-16.83
-23.48
-32.76
-42.28
-47.70
-44.39
-29.48
-3.68
28.47
60.00
83.92
95.56
93.78
80.70
60.50
37.96
17.45
2.51
-4.46
-2.36
8.22
25.09
44.86
63.95
79.70
90.90
97.94
102.38
106.26
111.45
119.18
129.75
142.34
155.29
166.82
175.96
182.95
188.87
194.50
199.14
200.13
193.76
176.95
148.70
110.57
65.89
18.49
-28.27
-71.80
-109.94
-140.85
-163.15
-176.46
-181.39
-179.09
-170.57
-156.38
-137.00
-113.47
-87.76
-62.22
-38.65
-17.54
1.73
19.84
36.39
49.52
56.73
56.33
48.62
36.08
22.57
11.82
6.12
5.73
9.12
13.73
17.18
18.15
16.82
14.52
12.77
12.44
13.15
13.72
12.93
10.44
6.94
3.53
0.90
-1.26
-4.00
-8.44
-14.84
-22.44
-29.66
-34.87
-36.98
-35.60
-30.89
-23.44
-14.44
-5.99
-1.21
-3.67
-16.05
-38.88
-69.86
-104.41
-136.96
-162.61
-178.06
-181.80
-173.69
-154.79
-127.61
-96.62
-68.03
-48.64
-43.57
-53.89
-75.52
-99.76
-115.88
-114.42
-90.40
-45.28
12.95
71.73
117.22
138.19
129.23
92.27
36.06
-26.23
-80.47
-115.10
-123.75
-106.61
-70.12
-25.28
15.37
41.30
47.21
34.65
11.30
-12.13
-26.21
-26.52
-15.23
-0.07
8.92
3.45
-19.84
-57.91
-102.06
-140.62
-162.49
-160.72
-134.69
-90.22
-37.57
11.96
49.57
71.03
76.69
69.87
54.61
34.20
10.82
-13.98
-38.58
-61.13
-79.83
-93.53
-101.82
-104.76
-102.31
-94.03
-79.18
-57.45
-29.53
2.44
35.14
64.88
88.61
104.74
113.37
115.99
114.74
111.59
107.71
103.23
97.54
89.59
78.44
63.59
45.30
24.59
3.11
-17.23
-34.72
-48.19
-57.24
-62.17
-63.67
-62.58
-59.70
-55.72
-51.21
-46.63
-42.34
-38.63
-35.73
-33.82
-32.82
-32.11
-30.44
-26.23
-18.27
-6.36
8.41
23.93
37.85
48.26
54.18
55.55
53.01
47.65
40.71
33.37
26.42
20.02
13.77
7.09
-0.21
-7.57
-13.81
-17.72
-18.69
-16.93
-13.22
-8.32
-2.57
4.12
12.02
21.23
31.46
42.15
52.62
62.19
70.04
75.19
76.58
73.42
65.68
54.28
40.89
27.30
14.73
3.53
-6.67
-16.31
-25.36
-33.13
-38.52
-40.67
-39.36
-35.12
-28.99
-22.10
-15.37
-9.37
-4.38
-0.39
2.80
5.55
8.22
10.93
13.39
15.05
15.28
13.75
10.60
6.27
1.19
-4.56
-11.24
-19.14
-28.05
-37.04
-44.61
-49.37
-50.70
-49.27
-46.80
-45.35
-46.35
-49.88
-54.49
-57.70
-56.92
-50.48
-38.18
-21.37
-2.28
16.75
34.06
49.04
61.82
72.87
82.44
90.34
96.08
99.09
99.06
95.96
89.97
81.54
71.25
59.85
47.87
35.36
21.49
4.86
-15.93
-41.26
-69.77
-98.29
-122.53
-138.41
-143.31
-136.90
-121.09
-99.30
-75.42
-52.80
-33.72
-19.17
-9.16
-3.01
0.31
1.87
2.72
3.78
5.72
8.82
12.91
17.35
21.33
24.12
25.45
25.57
25.12
24.88
25.48
27.12
29.51
32.02
33.90
34.55
33.73
31.67
28.96
26.34
24.41
23.39
22.99
22.54
21.26
18.69
14.98
10.89
7.56
6.09
7.11
10.59
16.03
22.60
29.47
35.86
41.11
44.69
46.38
46.36
45.23
43.80
42.61
41.67
40.39
37.91
33.64
27.54
20.22
12.55
5.19
-1.65
-8.11
-14.37
-20.37
-25.68
-29.78
-32.34
-33.46
-33.64
-33.51
-33.63
-34.24
-35.33
-36.61
-37.63
-37.89
-37.05
-35.04
-32.10
-28.61
-24.78
-20.60
-15.79
-10.15
-3.84
2.52
8.01
11.94
14.06
14.78
14.83
14.94
15.54
16.67
18.14
19.70
21.18
22.50
23.69
24.82
26.00
27.30
28.69
30.04
31.14
31.83
32.16
32.32
32.65
33.38
34.43
35.36
35.43
33.91
30.27
24.41
16.63
7.50
-2.33
-12.20
-21.51
-29.71
-36.39
-41.25
-44.14
-45.09
-44.26
-41.87
-38.29
-33.94
-29.37
-25.10
-21.56
-18.89
-16.90
-15.14
-13.12
-10.56
-7.51
-4.35
-1.63
0.20
1.04
1.20
1.16
1.47
2.38
3.86
5.67
7.53
9.29
10.95
12.55
14.04
15.24
15.86
15.70
14.74
13.17
11.36
9.62
8.13
6.82
5.49
3.90
1.86
-0.63
-3.43
-6.21
-8.57
-10.05
-10.26
-9.00
-6.33
-2.50
2.04
6.84
11.48
15.57
18.82
20.93
21.65
20.91
18.83
15.76
12.14
8.48
5.14
2.39
0.34
-0.99
-1.66
-1.81
-1.63
-1.33
-1.14
-1.18
-1.52
-2.12
-2.91
-3.76
-4.53
-5.13
-5.51
-5.73
-5.96
-6.48
-7.52
-9.24
-11.59
-14.29
-16.91
-18.96
-19.97
-19.67
-17.98
-15.03
-11.15
-6.80
-2.49
1.35
4.48
6.84
8.58
9.92
11.04
12.02
12.87
13.53
14.00
14.36
14.73
15.15
15.54
15.72
15.48
14.73
13.57
12.21
10.93
9.89
9.12
8.47
7.72
6.71
5.33
3.67
1.84
0.01
-1.72
-3.38
-5.11
-7.16
-9.77
-13.07
-16.92
-20.89
-24.34
-26.58
-27.13
-25.77
-22.69
-18.31
-13.22
-7.99
-3.07
1.21
4.73
7.44
9.47
10.94
12.00
12.76
13.23
13.39
13.17
12.53
11.51
10.23
8.86
7.65
6.77
6.25
5.98
5.69
5.08
3.93
2.22
0.11
-2.14
-4.23
-5.96
-7.18
-7.87
-8.08
-7.99
-7.89
-8.15
-9.05
-10.63
-12.62
-14.42
-15.35
-14.85
-12.70
-9.09
-4.48
0.45
5.09
8.93
11.73
13.38
13.98
13.72
12.85
11.62
10.23
8.83
7.44
6.04
4.62
3.15
1.68
0.27
-0.98
-2.00
-2.74
-3.22
-3.51
-3.68
-3.88
-4.20
-4.74
-5.44
-6.20
-6.87
-7.32
-7.55
-7.63
-7.74
-8.05
-8.68
-9.64
-10.82
-11.96
-12.69
-12.57
-11.25
-8.62
-4.88
-0.55
3.63
7.05
9.33
10.50
10.88
10.87
10.70
10.44
10.02
9.36
8.57
7.80
7.21
6.80
6.42
5.87
5.03
3.93
2.77
1.77
1.06
0.57
0.15
-0.42
-1.30
-2.52
-4.02
-5.63
-7.18
-8.50
-9.49
-10.15
-10.56
-10.92
-11.44
-12.35
-13.77
-15.59
-17.48
-18.91
-19.36
-18.43
-16.08
-12.56
-8.39
-4.11
-0.18
3.14
5.74
7.60
8.78
9.38
9.53
9.45
9.31
9.25
9.30
9.40
9.44
9.34
9.04
8.53
7.85
7.05
6.20
5.39
4.71
4.15
3.61
2.91
1.88
0.41
-1.42
-3.43
-5.37
-7.06
-8.42
-9.52
-10.54
-11.68
-13.19
-15.17
-17.49
-19.74
-21.27
-21.40
-19.70
-16.17
-11.28
-5.79
-0.49
4.10
7.72
10.35
12.14
13.21
13.69
13.72
13.45
13.05
12.64
12.24
11.84
11.36
10.65
9.64
8.30
6.76
5.27
4.08
3.31
2.89
2.56
1.97
0.92
-0.60
-2.40
-4.26
-5.97
-7.49
-8.84
-10.12
-11.45
-12.98
-14.79
-16.89
-19.06
-20.83
-21.61
-20.84
-18.26
-14.04
-8.73
-3.12
2.10
6.41
9.62
11.77
12.98
13.43
13.24
12.55
11.53
10.37
9.29
8.42
7.83
7.48
7.33
7.32
7.42
7.58
7.71
7.67
7.31
6.47
5.14
3.32
1.14
-1.26
-3.73
-6.08
-8.15
-9.83
-11.16
-12.36
-13.78
-15.73
-18.29
-21.14
-23.61
-24.84
-24.15
-21.35
-16.77
-11.18
-5.47
-0.33
3.86
7.05
9.36
10.91
11.78
12.05
11.81
11.26
10.63
10.10
9.71
9.38
8.99
8.40
7.64
6.81
6.12
5.73
5.71
5.97
6.27
6.36
6.00
5.09
3.67
1.91
0.08
-1.60
-3.05
-4.32
-5.66
-7.39
-9.71
-12.60
-15.70
-18.38
-19.86
-19.54
-17.12
-12.79
-7.17
-1.09
4.60
9.31
12.78
15.05
16.33
16.84
16.75
16.24
15.44
14.54
13.70
13.03
12.52
12.03
11.43
10.57
9.43
8.11
6.85
5.86
5.33
5.30
5.58
5.89
5.87
5.29
4.08
2.40
0.52
-1.25
-2.75
-4.00
-5.14
-6.46
-8.22
-10.62
-13.65
-17.05
-20.28
-22.62
-23.35
-22.01
-18.53
-13.34
-7.22
-1.07
4.37
8.68
11.78
13.84
15.12
15.77
15.87
15.40
14.38
12.95
11.32
9.82
8.68
8.03
7.86
8.00
8.24
8.37
8.26
7.83
7.11
6.14
4.99
3.71
2.37
0.99
-0.36
-1.66
-2.87
-4.04
-5.29
-6.76
-8.61
-10.87
-13.51
-16.37
-19.23
-21.75
-23.61
-24.38
-23.70
-21.34
-17.35
-12.12
-6.35
-0.81
3.87
7.41
9.89
11.64
12.95
13.95
14.55
14.62
14.09
13.12
11.99
11.02
10.40
10.15
10.15
10.20
10.14
9.85
9.28
8.46
7.49
6.48
5.54
4.68
3.79
2.69
1.27
-0.49
-2.40
-4.23
-5.78
-7.03
-8.11
-9.24
-10.67
-12.54
-14.90
-17.65
-20.53
-23.10
-24.76
-24.90
-23.06
-19.14
-13.54
-7.00
-0.44
5.38
10.02
13.43
15.79
17.41
18.55
19.34
19.85
20.08
20.01
19.68
19.13
18.48
17.84
17.28
16.77
16.22
15.50
14.57
13.48
12.37
11.39
10.61
9.93
9.16
8.07
6.50
4.49
2.24
0.01
-1.98
-3.65
-5.06
-6.39
-7.81
-9.47
-11.43
-13.72
-16.32
-19.14
-21.90
-24.18
-25.43
-25.19
-23.28
-19.90
-15.57
-10.96
-6.55
-2.56
1.13
4.72
8.33
11.87
15.05
17.47
18.78
18.76
17.42
15.00
11.95
8.82
6.16
4.36
3.51
3.48
3.94
4.56
5.13
5.56
5.84
5.88
5.57
4.73
3.27
1.24
-1.10
-3.43
-5.46
-7.06
-8.32
-9.49
-10.91
-12.85
-15.46
-18.66
-22.15
-25.45
-27.98
-29.14
-28.53
-26.04
-21.90
-16.62
-10.86
-5.20
-0.04
4.44
8.21
11.27
13.60
15.17
15.98
16.16
15.90
15.44
14.97
14.61
14.38
14.23
14.15
14.01
13.73
13.15
12.22
10.94
9.44
7.90
6.42
5.00
3.48
1.71
-0.39
-2.71
-4.98
-6.93
-8.37
-9.31
-9.97
-10.75
-12.01
-14.06
-16.90
-20.24
-23.54
-26.05
-27.09
-26.18
-23.24
-18.58
-12.83
-6.77
-1.07
3.81
7.72
10.71
12.90
14.40
15.21
15.36
14.95
14.19
13.37
12.74
12.42
12.38
12.47
12.50
12.38
12.07
11.62
11.10
10.55
10.02
9.50
8.96
8.29
7.35
6.02
4.24
2.08
-0.29
-2.65
-4.81
-6.66
-8.27
-9.84
-11.61
-13.82
-16.55
-19.70
-22.89
-25.58
-27.09
-26.89
-24.73
-20.73
-15.41
-9.46
-3.62
1.57
5.85
9.12
11.47
12.95
13.64
13.62
13.04
12.17
11.32
10.76
10.64
10.93
11.43
11.91
12.10
11.91
11.39
10.69
9.97
9.29
8.56
7.53
6.01
3.93
1.50
-0.88
-2.79
-3.94
-4.34
-4.24
-4.04
-4.07
-4.50
-5.30
-6.26
-7.10
-7.36
-6.46
-3.64
1.85
10.52
22.45
37.14
53.65
70.81
87.49
102.75
115.90
126.42
134.02
138.70
140.93
141.80
142.76
145.28
150.27
157.74
166.83
176.13
184.23
190.05
193.12
193.44
191.43
187.64
182.63
176.67
169.40
159.81
146.47
128.28
105.16
78.27
49.61
21.09
-6.25
-32.38
-57.61
-81.83
-103.89
-121.93
-134.22
-140.14
-140.49
-137.18
-132.30
-127.35
-122.92
-118.74
-114.05
-107.99
-99.75
-88.90
-75.54
-60.53
-45.45
-32.23
-22.53
-17.09
-15.59
-16.86
-19.61
-23.04
-27.04
-31.99
-38.05
-44.97
-52.02
-58.50
-64.07
-68.83
-72.89
-75.88
-76.78
-74.25
-67.42
-56.50
-43.03
-29.39
-18.04
-10.88
-9.03
-12.96
-22.68
-37.73
-56.80
-77.58
-96.94
-111.77
-120.04
-121.44
-117.35
-110.04
-101.39
-92.03
-81.15
-67.12
-48.57
-25.38
1.00
27.83
51.97
70.65
82.03
85.41
80.98
69.51
52.26
30.88
7.32
-16.37
-38.50
-58.03
-74.55
-88.03
-98.20
-104.35
-105.49
-100.92
-90.78
-76.15
-58.69
-39.89
-20.67
-1.41
17.58
35.40
50.48
60.89
65.12
62.69
54.21
41.12
25.02
7.33
-10.96
-29.02
-46.01
-60.92
-72.57
-79.56
-80.36
-73.60
-58.72
-36.78
-10.82
14.47
34.15
44.93
46.47
41.55
34.61
29.75
28.90
31.46
35.16
37.70
37.97
36.23
33.38
29.98
25.73
19.74
11.27
0.48
-11.43
-22.54
-31.07
-35.99
-37.39
-36.22
-33.96
-32.15
-32.05
-34.46
-39.54
-46.73
-54.68
-61.44
-64.84
-63.06
-55.27
-41.96
-24.99
-7.07
8.94
20.88
27.73
29.73
28.10
24.35
19.95
15.89
12.68
10.46
9.12
8.48
8.28
8.27
8.15
7.70
6.86
5.77
4.73
4.14
4.32
5.30
6.80
8.30
9.21
9.08
7.79
5.57
2.84
0.06
-2.50
-4.78
-7.01
-9.50
-12.54
-16.34
-20.90
-26.08
-31.44
-36.33
-39.90
-41.29
-39.88
-35.56
-28.80
-20.53
-11.83
-3.64
3.54
9.57
14.58
18.77
22.20
24.84
26.64
27.60
27.85
27.60
27.08
26.46
25.79
25.06
24.22
23.22
22.05
20.70
19.25
17.75
16.29
14.89
13.49
11.96
10.12
7.85
5.17
2.28
-0.60
-3.28
-5.73
-8.10
-10.64
-13.59
-17.13
-21.28
-25.89
-30.57
-34.66
-37.38
-37.96
-35.90
-31.24
-24.57
-16.81
-8.93
-1.65
4.67
9.99
14.41
18.02
20.81
22.79
23.98
24.49
24.52
24.26
23.86
23.40
22.88
22.25
21.46
20.49
19.36
18.12
16.83
15.55
14.24
12.87
11.32
9.52
7.38
4.92
2.24
-0.50
-3.12
-5.48
-7.50
-9.27
-10.98
-12.89
-15.25
-18.23
-21.93
-26.19
-30.63
-34.55
-37.02
-37.21
-34.57
-29.19
-21.77
-13.38
-5.09
2.35
8.66
13.96
18.45
22.26
25.34
27.56
28.83
29.20
28.87
28.04
26.89
25.51
23.96
22.25
20.43
18.54
16.62
14.70
12.81
11.02
9.36
7.89
6.55
5.29
4.02
2.66
1.17
-0.51
-2.43
-4.67
-7.25
-10.10
-13.06
-15.92
-18.51
-20.83
-23.10
-25.58
-28.55
-32.02
-35.67
-38.85
-40.70
-40.52
-37.88
-32.86
-25.99
-18.07
-9.95
-2.38
4.13
9.34
13.15
15.72
17.27
18.13
18.65
19.04
19.39
19.62
19.60
19.26
18.64
17.90
17.17
16.57
16.06
15.59
15.09
14.53
13.91
13.24
12.43
11.31
9.76
7.69
5.18
2.38
-0.47
-3.18
-5.58
-7.61
-9.30
-10.74
-12.10
-13.61
-15.42
-17.69
-20.44
-23.64
-27.12
-30.59
-33.56
-35.38
-35.40
-33.17
-28.69
-22.48
-15.42
-8.52
-2.55
2.18
5.76
8.50
10.72
12.54
13.92
14.75
14.95
14.52
13.55
12.19
10.57
8.84
7.14
5.65
4.56
4.00
4.02
4.51
5.21
5.77
5.91
5.50
4.68
3.73
2.96
2.59
2.51
2.42
1.92
0.70
-1.25
-3.66
-6.07
-8.06
-9.43
-10.27
-10.91
-11.79
-13.23
-15.37
-18.02
-20.68
-22.73
-23.49
-22.51
-19.65
-15.17
-9.64
-3.85
1.41
5.54
8.14
9.16
8.71
7.11
4.79
2.21
-0.16
-1.90
-2.75
-2.63
-1.65
-0.09
1.68
3.30
4.60
5.64
6.64
7.94
9.76
12.16
14.98
17.93
20.74
23.18
25.13
26.46
27.05
26.71
25.32
22.85
19.50
15.68
11.86
8.44
5.59
3.19
0.87
-1.84
-5.29
-9.66
-14.77
-20.10
-24.86
-28.22
-29.46
-28.23
-24.69
-19.46
-13.46
-7.61
-2.67
0.93
3.07
3.79
3.26
1.70
-0.56
-3.06
-5.16
-6.18
-5.53
-2.89
1.64
7.48
13.59
18.67
21.42
21.00
17.37
11.55
5.31
0.69
-0.84
1.12
5.86
11.99
18.15
23.56
28.02
31.57
33.91
34.17
31.07
23.59
11.66
-3.39
-19.04
-32.29
-40.72
-43.36
-40.96
-35.70
-30.10
-25.98
-23.72
-22.19
-19.48
-13.95
-5.08
6.20
17.91
27.68
33.58
34.67
31.08
23.90
14.79
5.58
-2.21
-7.60
-10.24
-10.33
-8.36
-4.86
-0.32
4.79
9.98
14.67
18.37
20.75
21.87
22.10
21.98
21.88
21.74
21.05
18.81
14.14
6.64
-3.10
-13.50
-22.51
-28.23
-29.75
-27.34
-22.23
-15.89
-9.51
-3.74
1.06
4.36
5.33
3.01
-2.95
-11.91
-22.11
-31.21
-37.19
-38.98
-36.81
-31.87
-25.67
-19.41
-13.80
-9.07
-5.36
-3.01
-2.54
-4.49
-8.94
-15.37
-22.61
-29.30
-34.40
-37.35
-37.97
-36.09
-31.42
-23.85
-14.00
-3.60
4.93
9.48
9.50
6.51
3.53
3.59
8.21
16.64
26.35
34.34
38.52
38.40
34.85
29.35
23.14
16.82
10.49
4.06
-2.36
-8.35
-13.24
-16.40
-17.51
-16.69
-14.42
-11.39
-8.22
-5.28
-2.60
0.03
2.94
6.36
10.28
14.37
18.06
20.74
21.94
21.61
20.08
17.95
15.77
13.85
12.24
10.76
9.28
7.87
6.84
6.53
7.10
8.33
9.68
10.51
10.38
9.24
7.50
5.77
4.55
4.02
3.92
3.72
2.88
1.09
-1.61
-4.92
-8.34
-11.40
-13.68
-14.85
-14.70
-12.99
-9.60
-4.47
2.32
10.57
19.84
29.56
39.01
47.45
54.36
59.52
63.20
66.05
69.07
73.13
78.84
86.24
94.80
103.51
110.87
115.24
115.31
110.76
102.63
93.28
85.49
81.17
80.32
80.79
79.31
72.97
60.82
44.49
27.56
14.11
7.23
8.16
16.16
29.19
44.48
59.09
70.50
77.01
78.14
74.66
68.34
61.18
54.62
48.90
43.08
35.61
25.08
10.92
-6.47
-26.00
-46.40
-66.52
-85.43
-102.24
-116.12
-126.54
-133.52
-137.89
-140.96
-144.00
-147.70
-151.88
-155.83
-158.83
-160.60
-161.20
-160.76
-158.98
-155.00
-147.71
-136.30
-120.70
-101.62
-80.30
-58.01
-35.87
-14.82
3.98
19.05
28.85
32.49
30.59
25.40
20.15
17.60
18.79
22.67
27.01
29.96
31.30
32.64
36.23
43.29
52.90
62.28
68.29
69.18
65.67
60.57
57.50
59.16
66.18
77.03
88.84
98.69
104.81
106.96
105.97
102.79
97.67
89.97
78.95
64.70
48.92
34.65
25.11
22.15
25.25
31.64
37.62
40.19
38.16
32.29
24.35
15.89
7.43
-1.55
-11.94
-24.02
-36.97
-49.01
-58.19
-63.32
-64.71
-64.22
-64.56
-68.32
-77.01
-90.50
-107.17
-124.52
-140.01
-151.67
-158.41
-159.94
-156.51
-148.73
-137.38
-123.43
-107.94
-92.11
-77.24
-64.70
-55.68
-50.98
-50.68
-54.00
-59.49
-65.37
-70.07
-72.60
-72.56
-69.90
-64.69
-56.99
-47.21
-36.34
-26.15
-18.77
-16.06
-18.83
-26.53
-37.45
-49.46
-60.71
-70.11
-77.38
-82.60
-85.75
-86.48
-84.23
-78.67
-70.03
-59.20
-47.33
-35.41
-23.69
-11.78
0.99
14.91
29.34
42.78
53.38
59.69
61.20
58.49
52.77
45.42
37.48
29.68
22.51
16.43
11.92
9.28
8.36
8.59
8.89
8.04
4.95
-1.03
-9.87
-20.66
-31.65
-40.35
-44.05
-40.49
-28.67
-9.40
14.69
39.65
61.17
75.60
80.80
76.57
64.66
48.42
32.05
19.76
14.75
18.44
30.17
47.41
66.70
84.58
98.52
107.22
110.51
108.99
103.70
95.96
87.34
79.49
73.78
70.91
70.66
71.89
72.99
72.47
69.47
63.94
56.45
47.76
38.50
29.08
19.79
10.94
2.93
-3.93
-9.63
-14.50
-19.11
-23.93
-29.08
-34.32
-39.23
-43.43
-46.85
-49.65
-52.16
-54.66
-57.35
-60.21
-63.01
-65.32
-66.53
-65.93
-62.93
-57.31
-49.31
-39.67
-29.40
-19.45
-10.47
-2.72
3.83
9.30
13.74
17.10
19.26
20.23
20.20
19.53
18.64
17.88
17.43
17.26
17.22
17.09
16.66
15.77
14.27
12.10
9.28
5.99
2.53
-0.76
-3.56
-5.71
-7.26
-8.52
-9.84
-11.59
-13.96
-16.87
-20.02
-23.04
-25.60
-27.57
-29.09
-30.34
-31.45
-32.30
-32.54
-31.76
-29.69
-26.36
-22.07
-17.20
-12.04
-6.76
-1.40
3.84
8.64
12.56
15.34
17.10
18.36
19.89
22.34
25.96
30.55
35.52
40.22
44.10
46.84
48.33
48.58
47.59
45.37
41.98
37.60
32.64
27.56
22.82
18.65
15.08
11.94
9.03
6.29
3.79
1.68
0.09
-1.02
-1.90
-2.90
-4.39
-6.66
-9.94
-14.36
-19.86
-26.15
-32.54
-38.13
-41.92
-43.18
-41.63
-37.55
-31.58
-24.47
-16.88
-9.32
-2.23
3.97
8.77
11.78
12.94
12.57
11.45
10.42
10.06
10.43
10.95
10.74
8.99
5.44
0.51
-4.90
-9.78
-13.45
-15.69
-16.62
-16.58
-16.08
-15.96
-17.44
-21.79
-29.63
-40.09
-50.73
-58.21
-59.75
-54.46
-43.85
-31.13
-19.74
-11.87
-7.72
-5.81
-4.01
-0.73
4.54
11.23
18.37
25.28
31.90
38.79
46.58
55.50
65.04
74.15
81.80
87.63
92.24
96.82
102.43
109.21
116.10
121.17
122.49
119.09
111.43
101.46
91.87
85.07
82.22
82.80
84.85
85.88
83.92
78.28
69.75
59.96
50.56
42.41
35.49
29.26
23.25
17.45
12.25
8.06
4.89
2.19
-0.83
-4.73
-9.62
-15.03
-20.24
-24.71
-28.28
-31.21
-33.88
-36.43
-38.54
-39.43
-38.26
-34.45
-28.12
-20.06
-11.52
-3.72
2.50
7.00
10.20
12.80
15.51
18.75
22.64
27.00
31.54
35.92
39.92
43.50
46.80
50.12
53.71
57.66
61.86
66.07
70.02
73.59
76.88
79.99
82.97
85.61
87.39
87.61
85.55
80.71
72.91
62.30
49.23
34.28
18.24
2.22
-12.48
-24.63
-33.56
-39.65
-44.21
-49.01
-55.45
-63.86
-73.63
-83.66
-93.31
-102.80
-113.04
-124.79
-137.98
-151.32
-162.76
-170.25
-172.54
-169.60
-162.54
-153.20
-143.60
-135.28
-128.83
-123.71
-118.52
-111.69
-102.30
-90.57
-77.64
-64.95
-53.48
-43.40
-34.23
-25.61
-17.68
-11.26
-7.35
-6.47
-8.15
-10.97
-13.04
-12.70
-9.19
-2.88
4.79
11.88
16.56
17.73
15.24
9.78
2.42
-5.86
-14.30
-22.31
-29.16
-33.85
-35.30
-32.94
-27.15
-19.35
-11.48
-5.19
-1.22
0.80
1.88
2.97
4.45
6.24
7.98
9.52
10.92
12.24
13.36
13.86
13.36
11.89
10.03
8.78
9.05
11.14
14.61
18.37
21.22
22.37
21.63
19.38
16.26
12.78
9.22
5.55
1.78
-1.90
-5.01
-6.92
-7.23
-5.99
-3.85
-1.83
-0.91
-1.68
-4.10
-7.56
-11.14
-13.91
-15.11
-14.32
-11.42
-6.52
-0.02
7.47
15.17
22.23
27.99
32.12
34.64
35.82
36.01
35.42
34.12
32.08
29.31
25.98
22.45
19.15
16.48
14.68
13.82
13.77
14.28
14.98
15.51
15.55
14.97
13.79
12.16
10.27
8.23
6.05
3.73
1.30
-1.12
-3.34
-5.26
-6.89
-8.40
-10.04
-12.05
-14.58
-17.68
-21.24
-25.02
-28.52
-31.12
-32.13
-31.07
-27.83
-22.79
-16.72
-10.53
-4.97
-0.44
3.02
5.65
7.64
9.09
9.92
10.01
9.40
8.34
7.24
6.52
6.34
6.61
7.05
7.37
7.45
7.40
7.43
7.66
7.99
8.11
7.63
6.31
4.18
1.50
-1.32
-3.93
-6.12
-7.91
-9.46
-11.01
-12.83
-15.16
-18.12
-21.66
-25.44
-28.86
-31.17
-31.68
-29.98
-26.12
-20.54
-14.00
-7.29
-1.04
4.40
8.98
12.80
16.02
18.67
20.68
21.94
22.40
22.15
21.40
20.47
19.62
19.02
18.68
18.51
18.33
18.01
17.44
16.57
15.36
13.76
11.71
9.20
6.31
3.21
0.15
-2.63
-5.03
-7.10
-8.99
-10.91
-13.09
-15.68
-18.79
-22.39
-26.22
-29.70
-32.05
-32.44
-30.39
-25.92
-19.66
-12.60
-5.74
0.23
5.03
8.72
11.52
13.61
15.06
15.91
16.21
16.15
15.93
15.82
15.95
16.36
16.92
17.43
17.76
17.82
17.71
17.53
17.39
17.30
17.06
16.44
15.20
13.27
10.77
8.03
5.41
3.22
1.56
0.28
-0.95
-2.57
-5.00
-8.46
-12.84
-17.65
-22.02
-25.00
-25.79
-24.06
-20.06
-14.54
-8.47
-2.72
2.18
6.08
9.14
11.66
13.84
15.77
17.38
18.61
19.38
19.71
19.70
19.46
19.08
18.61
18.10
17.56
17.06
16.67
16.46
16.36
16.24
15.90
15.17
13.96
12.27
10.21
7.91
5.52
3.18
0.97
-1.09
-3.03
-4.94
-6.97
-9.31
-12.14
-15.49
-19.20
-22.84
-25.78
-27.33
-26.98
-24.50
-20.10
-14.35
-7.94
-1.57
4.29
9.43
13.84
17.60
20.73
23.16
24.77
25.46
25.34
24.67
23.86
23.25
22.99
22.98
23.02
22.93
22.69
22.44
22.26
22.08
21.58
20.43
18.45
15.75
12.74
9.88
7.47
5.50
3.74
1.93
-0.05
-2.10
-4.01
-5.64
-7.02
-8.34
-9.94
-12.07
-14.85
-18.14
-21.57
-24.54
-26.37
-26.44
-24.42
-20.41
-14.90
-8.71
-2.65
2.71
7.13
10.70
13.68
16.32
18.68
20.66
22.07
22.80
22.84
22.38
21.67
20.95
20.34
19.80
19.20
18.46
17.56
16.57
15.64
14.82
14.05
13.17
11.98
10.36
8.34
6.10
3.87
1.79
-0.13
-2.03
-4.03
-6.18
-8.40
-10.49
-12.28
-13.67
-14.70
-15.52
-16.37
-17.47
-19.02
-21.02
-23.26
-25.28
-26.44
-26.13
-24.03
-20.17
-15.04
-9.36
-3.86
0.99
4.98
8.15
10.65
12.59
14.04
15.09
15.85
16.45
17.02
17.57
18.03
18.24
18.04
17.43
16.56
15.65
14.88
14.34
13.96
13.57
13.03
12.23
11.18
9.91
8.49
6.97
5.37
3.71
1.94
0.04
-2.04
-4.26
-6.57
-8.85
-10.93
-12.70
-14.10
-15.21
-16.24
-17.50
-19.25
-21.59
-24.36
-27.13
-29.27
-30.12
-29.24
-26.52
-22.23
-16.96
-11.38
-6.07
-1.40
2.53
5.81
8.52
10.76
12.51
13.77
14.55
14.97
15.12
15.10
14.93
14.60
14.09
13.44
12.70
11.90
11.06
10.21
9.37
8.63
8.03
7.56
7.14
6.60
5.86
4.91
3.91
3.04
2.41
2.00
1.64
1.09
0.14
-1.25
-2.97
-4.82
-6.61
-8.25
-9.79
-11.36
-13.12
-15.14
-17.43
-19.93
-22.51
-24.94
-26.89
-27.92
-27.58
-25.64
-22.17
-17.61
-12.57
-7.67
-3.33
0.31
3.30
5.76
7.79
9.41
10.61
11.46
12.06
12.56
13.05
13.59
14.10
14.50
14.65
14.44
13.85
12.88
11.68
10.42
9.33
8.54
8.06
7.74
7.36
6.64
5.46
3.88
2.08
0.32
-1.23
-2.51
-3.57
-4.56
-5.56
-6.64
-7.79
-8.95
-10.04
-11.01
-11.84
-12.61
-13.41
-14.35
-15.54
-17.05
-18.83
-20.74
-22.46
-23.52
-23.41
-21.76
-18.53
-14.07
-9.07
-4.34
-0.45
2.36
4.22
5.41
6.17
6.58
6.66
6.43
6.06
5.83
6.00
6.65
7.67
8.78
9.67
10.16
10.25
10.04
9.71
9.40
9.20
9.10
9.01
8.76
8.18
7.18
5.75
4.07
2.40
0.98
-0.04
-0.72
-1.26
-1.89
-2.81
-4.08
-5.59
-7.18
-8.63
-9.84
-10.79
-11.59
-12.48
-13.69
-15.40
-17.64
-20.19
-22.63
-24.43
-25.04
-24.11
-21.58
-17.71
-13.04
-8.21
-3.81
-0.22
2.42
4.19
5.29
5.92
6.24
6.35
6.35
6.36
6.47
6.77
7.28
7.86
8.35
8.59
8.50
8.15
7.72
7.37
7.22
7.25
7.32
7.23
6.82
6.03
4.92
3.60
2.27
1.05
0.01
-0.94
-1.90
-3.00
-4.29
-5.73
-7.18
-8.54
-9.74
-10.81
-11.86
-13.04
-14.51
-16.38
-18.62
-21.10
-23.43
-25.09
-25.52
-24.34
-21.48
-17.24
-12.22
-7.09
-2.44
1.34
4.12
5.93
6.94
7.40
7.54
7.57
7.63
7.77
8.01
8.33
8.70
9.13
9.59
10.04
10.42
10.73
10.97
11.17
11.34
11.41
11.25
10.72
9.72
8.25
6.49
4.65
3.00
1.71
0.77
0.03
-0.74
-1.82
-3.36
-5.30
-7.45
-9.49
-11.17
-12.40
-13.30
-14.16
-15.33
-17.06
-19.40
-22.10
-24.67
-26.47
-26.93
-25.67
-22.71
-18.36
-13.18
-7.80
-2.79
1.47
4.79
7.15
8.69
9.63
10.24
10.75
11.28
11.85
12.40
12.83
13.10
13.23
13.26
13.22
13.14
13.00
12.83
12.63
12.38
12.04
11.49
10.64
9.42
7.92
6.29
4.75
3.47
2.52
1.85
1.23
0.40
-0.90
-2.72
-4.96
-7.31
-9.41
-11.06
-12.32
-13.46
-14.87
-16.86
-19.41
-22.24
-24.85
-26.68
-27.28
-26.38
-23.94
-20.09
-15.16
-9.64
-4.12
0.84
4.85
7.76
9.73
11.02
11.95
12.73
13.42
14.01
14.45
14.73
14.84
14.80
14.58
14.24
13.85
13.54
13.42
13.52
13.78
13.99
13.92
13.36
12.15
10.32
8.04
5.64
3.45
1.71
0.45
-0.53
-1.53
-2.83
-4.49
-6.40
-8.28
-9.92
-11.24
-12.40
-13.71
-15.42
-17.70
-20.49
-23.48
-26.11
-27.74
-27.81
-26.01
-22.43
-17.51
-11.94
-6.42
-1.54
2.42
5.40
7.57
9.20
10.51
11.64
12.60
13.39
13.99
14.43
14.79
15.13
15.49
15.79
15.97
15.94
15.74
15.44
15.12
14.78
14.33
13.59
12.39
10.73
8.74
6.69
4.88
3.51
2.58
1.87
1.10
-0.04
-1.66
-3.70
-5.98
-8.23
-10.31
-12.14
-13.81
-15.45
-17.26
-19.39
-21.88
-24.56
-27.02
-28.65
-28.78
-26.95
-23.06
-17.50
-11.08
-4.69
0.89
5.26
8.41
10.59
12.13
13.25
14.08
14.65
14.99
15.21
15.41
15.68
15.98
16.25
16.36
16.26
15.99
15.65
15.29
14.94
14.51
13.91
13.06
11.91
10.52
8.98
7.40
5.89
4.54
3.34
2.25
1.09
-0.30
-2.07
-4.22
-6.62
-8.99
-11.05
-12.64
-13.80
-14.82
-16.10
-17.97
-20.50
-23.38
-25.95
-27.42
-27.16
-24.86
-20.73
-15.36
-9.51
-3.87
1.06
5.10
8.25
10.63
12.38
13.62
14.48
15.10
15.57
15.96
16.26
16.44
16.44
16.21
15.78
15.21
14.60
14.06
13.64
13.37
13.15
12.89
12.45
11.72
10.66
9.31
7.76
6.19
4.72
3.45
2.40
1.45
0.45
-0.74
-2.20
-3.85
-5.51
-7.00
-8.23
-9.26
-10.31
-11.68
-13.60
-16.12
-19.07
-22.03
-24.40
-25.63
-25.26
-23.18
-19.55
-14.84
-9.65
-4.58
-0.06
3.68
6.62
8.90
10.73
12.28
13.61
14.69
15.47
15.92
16.14
16.29
16.55
16.92
17.25
17.31
16.90
16.07
15.05
14.13
13.55
13.27
13.09
12.69
11.82
10.44
8.69
6.83
5.11
3.65
2.43
1.31
0.13
-1.19
-2.65
-4.15
-5.55
-6.77
-7.84
-8.93
-10.24
-11.97
-14.18
-16.78
-19.58
-22.23
-24.38
-25.63
-25.62
-24.12
-21.09
-16.74
-11.53
-6.11
-1.07
3.11
6.23
8.37
9.76
10.69
11.41
12.08
12.74
13.43
14.16
14.94
15.71
16.33
16.61
16.38
15.58
14.35
13.00
11.87
11.16
10.83
10.61
10.18
9.26
7.80
5.94
3.96
2.10
0.47
-0.96
-2.33
-3.78
-5.33
-6.88
-8.27
-9.32
-9.99
-10.44
-10.91
-11.73
-13.09
-15.07
-17.56
-20.31
-22.89
-24.81
-25.53
-24.61
-21.96
-17.86
-12.91
-7.89
-3.42
0.17
2.92
5.10
6.97
8.68
10.19
11.43
12.29
12.81
13.09
13.23
13.28
13.26
13.15
12.94
12.68
12.43
12.24
12.14
12.06
11.93
11.62
11.02
10.06
8.78
7.25
5.66
4.19
3.02
2.17
1.57
1.06
0.45
-0.32
-1.25
-2.24
-3.20
-4.10
-5.00
-6.04
-7.38
-9.15
-11.37
-13.97
-16.72
-19.22
-20.95
-21.38
-20.15
-17.19
-12.84
-7.77
-2.75
1.62
5.00
7.42
9.10
10.31
11.20
11.79
12.07
12.04
11.80
11.48
11.22
11.08
11.05
11.12
11.24
11.36
11.44
11.43
11.27
10.98
10.56
10.04
9.43
8.71
7.84
6.79
5.62
4.40
3.21
2.07
0.94
-0.28
-1.64
-3.11
-4.59
-5.92
-6.98
-7.74
-8.28
-8.73
-9.28
-10.13
-11.43
-13.22
-15.40
-17.61
-19.32
-19.93
-18.95
-16.22
-12.01
-6.96
-1.88
2.54
5.85
7.99
9.17
9.71
9.87
9.82
9.64
9.35
9.02
8.72
8.53
8.41
8.32
8.16
7.90
7.54
7.15
6.79
6.48
6.21
5.91
5.53
5.05
4.48
3.85
3.24
2.70
2.25
1.85
1.41
0.81
-0.04
-1.14
-2.37
-3.58
-4.58
-5.35
-5.94
-6.53
-7.29
-8.34
-9.77
-11.53
-13.52
-15.51
-17.13
-17.92
-17.46
-15.53
-12.24
-8.02
-3.53
0.60
3.95
6.35
7.87
8.67
8.92
8.78
8.40
7.95
7.62
7.53
7.73
8.10
8.48
8.70
8.68
8.44
8.05
7.59
7.09
6.55
5.93
5.27
4.61
4.00
3.45
2.88
2.19
1.31
0.29
-0.72
-1.59
-2.23
-2.71
-3.20
-3.86
-4.75
-5.78
-6.77
-7.58
-8.24
-8.90
-9.79
-11.10
-12.82
-14.71
-16.33
-17.21
-16.95
-15.38
-12.66
-9.14
-5.38
-1.88
1.00
3.11
4.49
5.31
5.74
5.94
6.01
6.00
5.99
6.03
6.13
6.27
6.37
6.36
6.19
5.86
5.45
5.08
4.82
4.69
4.65
4.56
4.26
3.64
2.73
1.66
0.61
-0.25
-0.90
-1.43
-2.02
-2.83
-3.88
-5.11
-6.34
-7.40
-8.19
-8.73
-9.13
-9.57
-10.29
-11.39
-12.86
-14.46
-15.72
-16.12
-15.24
-13.01
-9.69
-5.85
-2.12
0.97
3.17
4.50
5.18
5.48
5.65
5.77
5.83
5.76
5.53
5.19
4.86
4.62
4.51
4.46
4.33
4.05
3.67
3.30
3.03
2.92
2.87
2.73
2.38
1.77
0.97
0.12
-0.64
-1.20
-1.55
-1.74
-1.92
-2.21
-2.72
-3.45
-4.32
-5.26
-6.20
-7.13
-8.10
-9.17
-10.43
-11.91
-13.58
-15.30
-16.81
-17.69
-17.56
-16.10
-13.31
-9.54
-5.35
-1.42
1.76
3.97
5.28
5.96
6.26
6.38
6.37
6.26
6.05
5.80
5.62
5.61
5.74
5.89
5.91
5.68
5.20
4.62
4.16
3.97
4.05
4.24
4.30
4.00
3.26
2.17
0.94
-0.21
-1.16
-1.89
-2.52
-3.15
-3.89
-4.76
-5.69
-6.61
-7.41
-8.03
-8.45
-8.70
-8.87
-9.07
-9.49
-10.24
-11.35
-12.62
-13.61
-13.79
-12.73
-10.31
-6.79
-2.79
0.98
3.98
5.98
7.10
7.64
7.91
8.08
8.18
8.15
7.97
7.61
7.15
6.63
6.09
5.52
4.95
4.40
3.94
3.59
3.38
3.26
3.17
3.02
2.78
2.45
2.04
1.57
1.10
0.67
0.33
0.10
-0.08
-0.33
-0.76
-1.44
-2.33
-3.31
-4.24
-5.02
-5.67
-6.28
-7.02
-8.00
-9.30
-10.91
-12.63
-14.21
-15.24
-15.37
-14.35
-12.21
-9.22
-5.83
-2.51
0.41
2.74
4.47
5.64
6.31
6.54
6.43
6.13
5.84
5.72
5.84
6.14
6.46
6.66
6.70
6.60
6.49
6.44
6.45
6.44
6.32
5.99
5.47
4.83
4.16
3.56
3.04
2.58
2.11
1.54
0.82
-0.05
-0.99
-1.91
-2.70
-3.33
-3.85
-4.36
-4.99
-5.81
-6.87
-8.18
-9.71
-11.35
-12.90
-14.06
-14.46
-13.80
-11.97
-9.10
-5.58
-1.90
1.46
4.14
6.00
7.09
7.56
7.64
7.52
7.37
7.28
7.27
7.32
7.39
7.47
7.58
7.77
8.07
8.44
8.82
9.11
9.21
9.04
8.57
7.78
6.73
5.50
4.23
3.08
2.12
1.41
0.86
0.35
-0.27
-1.09
-2.12
-3.32
-4.55
-5.71
-6.71
-7.59
-8.44
-9.43
-10.69
-12.23
-13.91
-15.42
-16.34
-16.28
-15.00
-12.52
-9.12
-5.28
-1.52
1.73
4.25
6.04
7.22
8.01
8.54
8.89
9.05
9.04
8.90
8.70
8.54
8.45
8.40
8.29
8.02
7.53
6.86
6.14
5.52
5.08
4.78
4.50
4.07
3.41
2.52
1.54
0.63
-0.08
-0.53
-0.79
-0.95
-1.13
-1.40
-1.81
-2.34
-2.92
-3.51
-4.12
-4.83
-5.77
-7.06
-8.73
-10.61
-12.36
-13.56
-13.80
-12.88
-10.83
-7.93
-4.66
-1.47
1.30
3.47
5.06
6.13
6.80
7.10
7.08
6.80
6.38
6.00
5.77
5.78
5.96
6.18
6.31
6.31
6.22
6.15
6.20
6.37
6.58
6.69
6.56
6.18
5.63
5.04
4.52
4.09
3.67
3.15
2.48
1.63
0.66
-0.37
-1.40
-2.41
-3.40
-4.39
-5.35
-6.29
-7.24
-8.22
-9.30
-10.49
-11.72
-12.82
-13.50
-13.48
-12.52
-10.62
-7.97
-4.93
-1.91
0.78
2.94
4.55
5.66
6.35
6.72
6.85
6.80
6.66
6.46
6.21
5.90
5.54
5.23
5.07
5.13
5.37
5.66
5.83
5.75
5.38
4.76
3.99
3.14
2.27
1.45
0.76
0.29
0.08
0.05
0.01
-0.30
-1.05
-2.25
-3.73
-5.20
-6.39
-7.21
-7.77
-8.32
-9.13
-10.37
-11.95
-13.55
-14.73
-15.04
-14.21
-12.22
-9.30
-5.89
-2.44
0.67
3.20
5.07
6.35
7.14
7.55
7.67
7.59
7.34
6.96
6.54
6.11
5.77
5.52
5.38
5.26
5.11
4.87
4.53
4.15
3.77
3.44
3.14
2.84
2.50
2.12
1.72
1.34
0.99
0.64
0.18
-0.51
-1.49
-2.77
-4.26
-5.77
-7.12
-8.17
-8.91
-9.48
-10.07
-10.89
-12.06
-13.51
-14.98
-16.10
-16.42
-15.59
-13.53
-10.44
-6.76
-3.07
0.16
2.64
4.36
5.49
6.22
6.73
7.05
7.17
7.09
6.85
6.54
6.26
6.03
5.84
5.64
5.44
5.29
5.28
5.44
5.69
5.90
5.88
5.57
5.02
4.38
3.81
3.39
3.11
2.87
2.53
2.00
1.31
0.51
-0.33
-1.12
-1.84
-2.47
-3.05
-3.60
-4.17
-4.81
-5.61
-6.69
-8.12
-9.87
-11.67
-13.11
-13.71
-13.18
-11.52
-9.08
-6.34
-3.75
-1.59
0.11
1.42
2.42
3.20
3.74
4.08
4.24
4.27
4.24
4.18
4.13
4.12
4.20
4.37
4.64
4.96
5.26
5.49
5.66
5.76
5.78
5.70
5.45
5.01
4.40
3.69
2.97
2.31
1.72
1.17
0.60
-0.05
-0.77
-1.54
-2.33
-3.12
-3.91
-4.74
-5.62
-6.62
-7.79
-9.18
-10.77
-12.46
-13.98
-14.99
-15.15
-14.24
-12.28
-9.54
-6.44
-3.41
-0.78
1.32
2.88
4.04
4.88
5.46
5.79
5.90
5.86
5.82
5.91
6.20
6.62
7.02
7.22
7.14
6.87
6.57
6.40
6.39
6.44
6.40
6.15
5.67
5.06
4.46
3.93
3.49
3.07
2.58
1.97
1.21
0.31
-0.70
-1.76
-2.79
-3.71
-4.50
-5.20
-5.93
-6.85
-8.11
-9.70
-11.50
-13.18
-14.39
-14.77
-14.14
-12.45
-9.84
-6.57
-2.98
0.55
3.70
6.23
8.01
9.07
9.51
9.52
9.27
8.91
8.55
8.26
8.06
7.94
7.83
7.66
7.36
6.91
6.35
5.78
5.30
4.94
4.69
4.48
4.27
4.01
3.69
3.30
2.87
2.38
1.82
1.13
0.27
-0.77
-1.96
-3.18
-4.30
-5.23
-5.93
-6.46
-6.98
-7.68
-8.66
-9.97
-11.44
-12.83
-13.86
-14.25
-13.85
-12.61
-10.65
-8.17
-5.45
-2.78
-0.39
1.59
3.14
4.32
5.23
5.98
6.65
7.24
7.73
8.09
8.32
8.45
8.54
8.66
8.81
8.94
9.00
8.94
8.76
8.48
8.13
7.67
7.06
6.29
5.41
4.54
3.78
3.15
2.59
1.93
1.04
-0.14
-1.55
-3.01
-4.34
-5.42
-6.21
-6.76
-7.21
-7.74
-8.54
-9.69
-11.12
-12.58
-13.62
-13.81
-12.80
-10.58
-7.43
-3.89
-0.53
2.22
4.19
5.44
6.16
6.55
6.73
6.76
6.68
6.57
6.48
6.49
6.64
6.91
7.27
7.65
8.01
8.27
8.37
8.27
7.96
7.43
6.71
5.84
4.84
3.77
2.69
1.67
0.77
0.01
-0.64
-1.22
-1.79
-2.38
-3.00
-3.66
-4.35
-5.05
-5.77
-6.52
-7.36
-8.34
-9.50
-10.77
-12.01
-12.94
-13.22
-12.56
-10.81
-8.10
-4.79
-1.38
1.63
3.90
5.31
5.98
6.14
6.03
5.84
5.66
5.51
5.40
5.33
5.34
5.45
5.65
5.92
6.18
6.38
6.48
6.51
6.49
6.44
6.34
6.11
5.66
4.95
4.05
3.08
2.11
1.19
0.26
-0.74
-1.83
-2.91
-3.87
-4.64
-5.22
-5.73
-6.33
-7.16
-8.27
-9.62
-11.07
-12.40
-13.31
-13.48
-12.67
-10.77
-7.94
-4.52
-1.03
2.11
4.57
6.28
7.32
7.84
8.02
7.97
7.77
7.48
7.14
6.83
6.61
6.50
6.47
6.44
6.32
6.03
5.53
4.88
4.19
3.56
3.07
2.74
2.52
2.32
2.06
1.67
1.11
0.38
-0.47
-1.39
-2.26
-3.03
-3.66
-4.20
-4.74
-5.32
-5.99
-6.78
-7.74
-8.90
-10.32
-11.89
-13.36
-14.34
-14.44
-13.44
-11.41
-8.65
-5.62
-2.71
-0.14
1.98
3.67
4.93
5.75
6.12
6.11
5.86
5.57
5.41
5.48
5.71
5.99
6.15
6.14
5.96
5.75
5.64
5.70
5.89
6.05
5.98
5.56
4.81
3.85
2.87
2.05
1.42
0.92
0.42
-0.17
-0.89
-1.71
-2.58
-3.48
-4.40
-5.37
-6.41
-7.49
-8.58
-9.67
-10.78
-11.88
-12.87
-13.49
-13.47
-12.58
-10.78
-8.30
-5.52
-2.87
-0.67
0.97
2.14
3.00
3.72
4.39
4.99
5.50
5.86
6.07
6.15
6.12
6.01
5.85
5.72
5.67
5.77
5.98
6.20
6.27
6.05
5.46
4.56
3.52
2.55
1.78
1.27
0.95
0.68
0.36
-0.10
-0.70
-1.39
-2.12
-2.85
-3.56
-4.30
-5.13
-6.14
-7.38
-8.87
-10.51
-12.09
-13.25
-13.63
-12.94
-11.13
-8.41
-5.26
-2.26
0.15
1.77
2.70
3.19
3.50
3.75
3.92
3.93
3.76
3.49
3.25
3.15
3.24
3.47
3.75
4.04
4.32
4.64
5.00
5.37
5.68
5.83
5.76
5.46
4.93
4.20
3.30
2.27
1.18
0.12
-0.82
-1.59
-2.21
-2.76
-3.34
-4.01
-4.76
-5.52
-6.26
-7.02
-7.96
-9.18
-10.66
-12.20
-13.44
-14.03
-13.74
-12.58
-10.73
-8.42
-5.87
-3.22
-0.58
1.91
4.05
5.67
6.65
7.03
7.02
6.84
6.71
6.72
6.84
6.97
7.07
7.12
7.18
7.29
7.47
7.67
7.74
7.55
7.03
6.19
5.16
4.11
3.21
2.52
2.06
1.72
1.39
0.93
0.27
-0.65
-1.77
-2.97
-4.09
-4.99
-5.66
-6.17
-6.69
-7.41
-8.41
-9.69
-11.13
-12.54
-13.71
-14.37
-14.29
-13.28
-11.32
-8.59
-5.44
-2.28
0.50
2.69
4.22
5.17
5.66
5.79
5.71
5.50
5.31
5.24
5.40
5.76
6.26
6.74
7.03
7.04
6.72
6.16
5.51
4.93
4.50
4.19
3.91
3.53
3.00
2.37
1.70
1.06
0.46
-0.17
-0.85
-1.58
-2.23
-2.69
-2.93
-3.01
-3.14
-3.52
-4.31
-5.56
-7.21
-9.06
-10.84
-12.26
-13.03
-12.96
-11.94
-10.05
-7.48
-4.53
-1.55
1.18
3.47
5.24
6.48
7.22
7.51
7.39
6.93
6.29
5.63
5.16
4.98
5.08
5.38
5.68
5.89
5.95
5.89
5.76
5.58
5.36
5.06
4.68
4.22
3.70
3.13
2.51
1.83
1.12
0.35
-0.47
-1.35
-2.31
-3.36
-4.50
-5.70
-6.91
-8.09
-9.28
-10.52
-11.90
-13.45
-15.04
-16.38
-17.06
-16.67
-15.01
-12.17
-8.54
-4.68
-1.15
1.72
3.80
5.16
5.98
6.42
6.62
6.66
6.66
6.73
6.94
7.30
7.73
8.13
8.39
8.46
8.38
8.21
8.02
7.87
7.75
7.63
7.44
7.13
6.68
6.07
5.29
4.40
3.45
2.49
1.55
0.62
-0.36
-1.45
-2.64
-3.87
-5.07
-6.18
-7.23
-8.39
-9.83
-11.62
-13.66
-15.60
-16.99
-17.36
-16.47
-14.29
-11.10
-7.39
-3.66
-0.35
2.30
4.25
5.61
6.57
7.28
7.84
8.24
8.49
8.61
8.67
8.72
8.80
8.88
8.85
8.64
8.19
7.59
6.95
6.46
6.20
6.20
6.34
6.44
6.34
5.88
5.03
3.80
2.30
0.67
-0.93
-2.33
-3.42
-4.15
-4.62
-5.02
-5.58
-6.54
-8.04
-10.06
-12.36
-14.52
-16.01
-16.36
-15.29
-12.87
-9.51
-5.78
-2.26
0.68
2.95
4.69
6.07
7.24
8.20
8.89
9.26
9.32
9.17
8.91
8.60
8.24
7.79
7.23
6.54
5.78
5.00
4.25
3.59
3.01
2.52
2.10
1.69
1.22
0.58
-0.34
-1.57
-3.05
-4.67
-6.19
-7.42
-8.20
-8.54
-8.56
-8.51
-8.70
-9.34
-10.46
-11.91
-13.35
-14.34
-14.51
-13.64
-11.72
-8.97
-5.75
-2.50
0.42
2.77
4.53
5.78
6.71
7.50
8.21
8.84
9.31
9.60
9.75
9.86
10.04
10.30
10.58
10.70
10.53
10.01
9.22
8.33
7.48
6.72
5.95
5.00
3.75
2.19
0.46
-1.22
-2.67
-3.80
-4.62
-5.26
-5.83
-6.51
-7.43
-8.70
-10.35
-12.28
-14.22
-15.77
-16.50
-16.06
-14.33
-11.45
-7.76
-3.69
0.32
3.94
6.95
9.25
10.85
11.81
12.27
12.36
12.23
11.98
11.68
11.41
11.21
11.08
11.02
10.91
10.68
10.22
9.53
8.69
7.79
6.91
6.05
5.10
3.92
2.44
0.70
-1.16
-2.92
-4.41
-5.58
-6.53
-7.43
-8.48
-9.76
-11.28
-12.94
-14.55
-15.88
-16.66
-16.62
-15.56
-13.43
-10.36
-6.63
-2.65
1.18
4.56
7.31
9.36
10.78
11.65
12.12
12.33
12.36
12.22
11.85
11.23
10.37
9.38
8.42
7.65
7.13
6.78
6.45
5.98
5.29
4.37
3.29
2.14
0.96
-0.25
-1.47
-2.69
-3.85
-4.89
-5.80
-6.63
-7.51
-8.59
-9.99
-11.73
-13.69
-15.57
-16.98
-17.50
-16.83
-14.90
-11.88
-8.17
-4.26
-0.67
2.26
4.36
5.67
6.33
6.58
6.63
6.65
6.74
6.93
7.19
7.48
7.75
7.97
8.07
8.01
7.75
7.29
6.67
5.97
5.25
4.56
3.86
3.09
2.13
0.93
-0.53
-2.07
-3.50
-4.59
-5.22
-5.46
-5.48
-5.57
-6.02
-6.99
-8.49
-10.33
-12.17
-13.59
-14.18
-13.67
-11.99
-9.32
-6.04
-2.57
0.67
3.44
5.64
7.29
8.48
9.28
9.76
9.99
10.07
10.08
10.07
10.08
10.06
9.97
9.78
9.50
9.16
8.75
8.27
7.68
6.96
6.12
5.20
4.25
3.30
2.35
1.40
0.43
-0.55
-1.55
-2.56
-3.58
-4.62
-5.70
-6.86
-8.18
-9.74
-11.57
-13.60
-15.62
-17.28
-18.23
-18.19
-17.03
-14.81
-11.76
-8.19
-4.44
-0.81
2.43
5.08
7.09
8.47
9.33
9.83
10.08
10.11
9.98
9.71
9.39
9.14
9.04
9.10
9.21
9.23
9.05
8.66
8.11
7.49
6.86
6.17
5.36
4.35
3.17
1.90
0.68
-0.39
-1.28
-2.06
-2.84
-3.71
-4.68
-5.68
-6.62
-7.48
-8.36
-9.42
-10.81
-12.53
-14.41
-16.07
-17.09
-17.10
-15.92
-13.59
-10.34
-6.57
-2.73
0.76
3.56
5.53
6.74
7.35
7.61
7.72
7.77
7.82
7.88
7.96
8.10
8.33
8.63
8.92
9.09
9.05
8.75
8.23
7.55
6.77
5.93
5.02
3.99
2.83
1.59
0.33
-0.83
-1.83
-2.66
-3.38
-4.07
-4.81
-5.61
-6.46
-7.30
-8.12
-8.92
-9.74
-10.68
-11.85
-13.30
-14.95
-16.59
-17.85
-18.34
-17.71
-15.84
-12.85
-9.13
-5.15
-1.36
1.90
4.50
6.42
7.73
8.54
8.97
9.15
9.16
9.07
8.95
8.84
8.76
8.76
8.81
8.89
8.92
8.84
8.64
8.34
8.01
7.72
7.45
7.16
6.75
6.16
5.39
4.48
3.54
2.63
1.77
0.93
0.10
-0.76
-1.62
-2.50
-3.48
-4.64
-6.10
-7.93
-10.14
-12.59
-15.06
-17.25
-18.79
-19.35
-18.70
-16.78
-13.81
-10.21
-6.54
-3.29
-0.75
1.08
2.43
3.58
4.75
5.94
7.04
7.88
8.33
8.41
8.22
7.96
7.78
7.76
7.91
8.15
8.33
8.32
8.01
7.34
6.38
5.26
4.09
3.00
1.99
1.05
0.16
-0.65
-1.33
-1.84
-2.22
-2.58
-3.04
-3.70
-4.55
-5.51
-6.50
-7.53
-8.71
-10.21
-12.07
-14.17
-16.18
-17.61
-18.03
-17.19
-15.08
-11.96
-8.24
-4.34
-0.66
2.57
5.18
7.13
8.45
9.22
9.61
9.82
10.04
10.36
10.74
11.06
11.20
11.11
10.81
10.41
9.97
9.48
8.88
8.07
7.06
5.91
4.75
3.66
2.65
1.70
0.76
-0.19
-1.17
-2.19
-3.26
-4.39
-5.57
-6.74
-7.86
-8.88
-9.81
-10.71
-11.64
-12.73
-14.03
-15.58
-17.26
-18.84
-19.90
-19.98
-18.70
-15.94
-11.92
-7.19
-2.47
1.61
4.64
6.56
7.62
8.17
8.49
8.72
8.89
8.96
8.95
8.97
9.14
9.53
10.08
10.63
10.98
10.96
10.56
9.86
9.02
8.19
7.46
6.82
6.18
5.44
4.54
3.49
2.34
1.16
-0.01
-1.18
-2.36
-3.56
-4.74
-5.86
-6.88
-7.87
-8.95
-10.27
-11.94
-13.87
-15.76
-17.15
-17.56
-16.65
-14.43
-11.16
-7.32
-3.44
0.10
3.04
5.29
6.87
7.82
8.26
8.33
8.22
8.11
8.15
8.38
8.78
9.29
9.81
10.24
10.51
10.52
10.24
9.67
8.89
7.99
7.08
6.22
5.41
4.57
3.64
2.55
1.30
-0.06
-1.43
-2.69
-3.80
-4.77
-5.69
-6.65
-7.76
-9.04
-10.46
-11.98
-13.56
-15.15
-16.69
-18.03
-18.93
-19.08
-18.23
-16.33
-13.49
-10.03
-6.36
-2.81
0.43
3.26
5.69
7.70
9.25
10.28
10.77
10.83
10.64
10.38
10.22
10.22
10.32
10.42
10.47
10.44
10.34
10.21
10.01
9.69
9.15
8.34
7.27
6.04
4.79
3.62
2.55
1.52
0.47
-0.65
-1.81
-2.98
-4.11
-5.25
-6.44
-7.79
-9.35
-11.16
-13.21
-15.41
-17.61
-19.49
-20.64
-20.67
-19.28
-16.49
-12.58
-8.07
-3.52
0.58
3.96
6.48
8.15
9.10
9.48
9.53
9.46
9.48
9.65
9.90
10.08
10.06
9.81
9.41
8.97
8.62
8.34
8.07
7.71
7.21
6.58
5.88
5.17
4.44
3.64
2.68
1.54
0.24
-1.12
-2.38
-3.47
-4.35
-5.11
-5.87
-6.77
-7.94
-9.45
-11.27
-13.24
-15.09
-16.45
-16.93
-16.23
-14.23
-11.07
-7.13
-2.89
1.17
4.69
7.50
9.58
11.03
11.97
12.54
12.83
12.89
12.78
12.51
12.16
11.76
11.33
10.90
10.47
10.03
9.58
9.14
8.69
8.19
7.57
6.80
5.88
4.85
3.74
2.58
1.42
0.26
-0.85
-1.87
-2.78
-3.59
-4.37
-5.19
-6.06
-6.98
-7.93
-8.93
-10.05
-11.38
-12.92
-14.56
-15.99
-16.83
-16.76
-15.57
-13.33
-10.28
-6.81
-3.33
-0.14
2.58
4.78
6.51
7.85
8.88
9.67
10.25
10.67
10.92
11.02
10.97
10.80
10.57
10.34
10.15
10.01
9.87
9.66
9.31
8.77
7.98
6.96
5.72
4.35
2.91
1.53
0.27
-0.82
-1.78
-2.67
-3.57
-4.54
-5.60
-6.72
-7.87
-9.04
-10.23
-11.50
-12.89
-14.39
-15.87
-17.09
-17.69
-17.37
-15.99
-13.62
-10.55
-7.18
-3.88
-0.90
1.66
3.77
5.43
6.59
7.24
7.39
7.18
6.77
6.37
6.10
6.00
6.01
6.06
6.13
6.22
6.38
6.62
6.93
7.19
7.28
7.07
6.48
5.55
4.40
3.22
2.17
1.32
0.63
-0.05
-0.86
-1.89
-3.08
-4.30
-5.34
-6.13
-6.70
-7.20
-7.86
-8.87
-10.31
-12.07
-13.88
-15.32
-15.98
-15.51
-13.80
-11.00
-7.49
-3.78
-0.33
2.54
4.73
6.28
7.33
8.01
8.44
8.76
9.04
9.35
9.69
9.99
10.12
10.01
9.69
9.28
8.95
8.79
8.76
8.69
8.39
7.76
6.82
5.69
4.52
3.40
2.38
1.43
0.58
-0.19
-0.82
-1.35
-1.84
-2.36
-3.03
-3.89
-4.97
-6.25
-7.70
-9.26
-10.90
-12.56
-14.18
-15.64
-16.74
-17.21
-16.76
-15.21
-12.59
-9.16
-5.38
-1.71
1.47
4.00
5.87
7.20
8.10
8.66
8.90
8.85
8.58
8.23
7.94
7.79
7.77
7.81
7.80
7.70
7.50
7.29
7.11
6.95
6.74
6.38
5.82
5.04
4.16
3.27
2.43
1.66
0.89
0.08
-0.84
-1.85
-2.94
-4.05
-5.15
-6.18
-7.15
-8.10
-9.06
-10.13
-11.39
-12.87
-14.48
-16.02
-17.14
-17.49
-16.79
-14.99
-12.23
-8.86
-5.33
-2.08
0.58
2.49
3.70
4.36
4.73
5.00
5.27
5.54
5.72
5.75
5.61
5.38
5.18
5.09
5.11
5.21
5.36
5.51
5.64
5.65
5.44
4.93
4.10
3.06
1.96
0.95
0.13
-0.53
-1.09
-1.64
-2.20
-2.74
-3.21
-3.57
-3.81
-3.97
-4.11
-4.32
-4.71
-5.41
-6.49
-7.91
-9.51
-10.99
-12.00
-12.21
-11.46
-9.75
-7.30
-4.53
-1.86
0.33
1.85
2.73
3.13
3.30
3.46
3.73
4.16
4.69
5.26
5.79
6.27
6.69
7.04
7.29
7.43
7.43
7.34
7.20
7.06
6.92
6.69
6.31
5.71
4.88
3.90
2.87
1.86
0.91
0.00
-0.88
-1.76
-2.63
-3.49
-4.35
-5.23
-6.16
-7.14
-8.20
-9.33
-10.55
-11.84
-13.12
-14.25
-14.99
-15.09
-14.35
-12.66
-10.12
-6.99
-3.67
-0.61
1.88
3.65
4.83
5.62
6.24
6.77
7.19
7.41
7.40
7.20
6.96
6.80
6.76
6.77
6.72
6.53
6.20
5.84
5.52
5.27
5.06
4.77
4.35
3.75
2.99
2.08
1.06
-0.03
-1.16
-2.25
-3.25
-4.10
-4.81
-5.45
-6.14
-6.98
-8.03
-9.32
-10.81
-12.37
-13.82
-14.90
-15.38
-15.06
-13.87
-11.87
-9.25
-6.32
-3.41
-0.79
1.36
3.01
4.26
5.26
6.11
6.87
7.49
7.91
8.12
8.18
8.22
8.38
8.70
9.11
9.48
9.66
9.57
9.24
8.73
8.13
7.53
6.97
6.43
5.83
5.09
4.11
2.86
1.43
-0.04
-1.31
-2.24
-2.82
-3.18
-3.58
-4.25
-5.37
-6.92
-8.80
-10.77
-12.55
-13.81
-14.24
-13.65
-11.99
-9.45
-6.40
-3.28
-0.47
1.82
3.53
4.75
5.58
6.13
6.44
6.53
6.42
6.17
5.91
5.73
5.72
5.89
6.18
6.50
6.77
6.97
7.05
7.03
6.81
6.36
5.63
4.70
3.66
2.62
1.65
0.71
-0.22
-1.17
-2.10
-2.96
-3.71
-4.39
-5.12
-6.06
-7.35
-9.00
-10.94
-12.97
-14.77
-16.01
-16.37
-15.63
-13.78
-10.99
-7.62
-4.11
-0.83
1.94
4.10
5.66
6.70
7.34
7.65
7.74
7.71
7.62
7.56
7.53
7.51
7.42
7.19
6.80
6.27
5.66
5.07
4.58
4.22
4.00
3.87
3.73
3.47
3.01
2.30
1.33
0.13
-1.23
-2.66
-4.06
-5.32
-6.40
-7.33
-8.26
-9.38
-10.82
-12.56
-14.38
-15.90
-16.67
-16.37
-14.91
-12.46
-9.41
-6.23
-3.28
-0.77
1.31
3.06
4.59
5.94
7.08
7.94
8.46
8.68
8.66
8.49
8.23
7.91
7.55
7.18
6.87
6.67
6.55
6.46
6.28
5.91
5.38
4.76
4.18
3.71
3.33
2.95
2.43
1.66
0.63
-0.64
-2.07
-3.59
-5.15
-6.74
-8.34
-9.93
-11.42
-12.71
-13.60
-13.90
-13.41
-12.02
-9.78
-6.88
-3.64
-0.40
2.55
5.04
7.02
8.54
9.64
10.37
10.71
10.69
10.35
9.81
9.23
8.73
8.36
8.10
7.81
7.39
6.77
5.99
5.17
4.45
3.93
3.60
3.32
2.91
2.22
1.19
-0.11
-1.49
-2.71
-3.62
-4.20
-4.56
-4.91
-5.40
-6.16
-7.23
-8.62
-10.28
-12.09
-13.84
-15.23
-15.89
-15.55
-14.10
-11.67
-8.61
-5.35
-2.28
0.37
2.52
4.20
5.48
6.46
7.18
7.70
8.06
8.31
8.51
8.71
8.90
9.03
9.02
8.83
8.48
8.01
7.54
7.13
6.80
6.52
6.22
5.84
5.33
4.65
3.75
2.60
1.19
-0.41
-2.05
-3.52
-4.66
-5.43
-5.91
-6.33
-6.94
-7.93
-9.33
-11.02
-12.73
-14.15
-15.03
-15.18
-14.51
-13.04
-10.87
-8.21
-5.36
-2.63
-0.28
1.58
2.97
4.01
4.83
5.48
5.95
6.20
6.24
6.19
6.19
6.35
6.64
6.93
7.07
6.96
6.64
6.22
5.83
5.49
5.13
4.60
3.81
2.81
1.75
0.80
0.06
-0.51
-1.07
-1.73
-2.51
-3.33
-4.10
-4.79
-5.51
-6.43
-7.69
-9.24
-10.82
-12.08
-12.64
-12.27
-10.89
-8.64
-5.78
-2.64
0.45
3.20
5.43
7.11
8.28
9.09
9.62
9.93
10.02
9.84
9.44
8.93
8.47
8.17
8.05
8.02
7.94
7.75
7.47
7.20
7.04
6.98
6.91
6.63
5.97
4.86
3.37
1.67
-0.04
-1.61
-2.99
-4.18
-5.24
-6.19
-7.07
-7.92
-8.84
-9.99
-11.48
-13.33
-15.35
-17.16
-18.26
-18.20
-16.76
-14.03
-10.40
-6.42
-2.64
0.56
3.03
4.83
6.12
7.07
7.80
8.34
8.69
8.86
8.89
8.83
8.77
8.76
8.85
9.06
9.38
9.72
10.00
10.10
9.91
9.40
8.58
7.48
6.17
4.73
3.20
1.65
0.17
-1.15
-2.23
-3.04
-3.65
-4.18
-4.80
-5.62
-6.70
-8.00
-9.48
-11.04
-12.58
-13.94
-14.91
-15.23
-14.70
-13.23
-10.91
-8.00
-4.81
-1.65
1.30
3.90
6.05
7.70
8.83
9.47
9.72
9.70
9.52
9.28
9.02
8.78
8.59
8.45
8.39
8.33
8.23
8.00
7.60
7.04
6.38
5.66
4.87
3.98
2.93
1.72
0.42
-0.83
-1.90
-2.74
-3.40
-3.99
-4.64
-5.42
-6.33
-7.31
-8.29
-9.28
-10.32
-11.47
-12.72
-13.92
-14.79
-14.97
-14.17
-12.28
-9.43
-6.01
-2.48
0.71
3.30
5.20
6.52
7.36
7.86
8.08
8.09
7.98
7.84
7.78
7.82
7.93
8.04
8.09
8.03
7.90
7.74
7.57
7.37
7.07
6.59
5.89
4.99
3.92
2.75
1.52
0.26
-0.97
-2.13
-3.15
-3.98
-4.57
-4.99
-5.29
-5.59
-6.00
-6.58
-7.39
-8.41
-9.63
-10.94
-12.17
-13.00
-13.07
-12.10
-9.99
-6.95
-3.39
0.15
3.25
5.68
7.41
8.53
9.13
9.25
8.94
8.27
7.41
6.58
5.97
5.67
5.61
5.64
5.63
5.51
5.26
4.95
4.64
4.35
4.06
3.74
3.34
2.84
2.23
1.53
0.81
0.10
-0.55
-1.19
-1.88
-2.70
-3.68
-4.79
-5.92
-6.96
-7.85
-8.64
-9.50
-10.60
-12.04
-13.75
-15.45
-16.69
-17.02
-16.15
-14.04
-10.91
-7.18
-3.35
0.17
3.11
5.39
7.03
8.09
8.66
8.83
8.72
8.46
8.20
8.10
8.20
8.43
8.68
8.74
8.50
7.88
6.99
6.00
5.13
4.51
4.20
4.07
3.94
3.66
3.17
2.53
1.88
1.32
0.83
0.33
-0.28
-1.07
-2.00
-3.01
-4.03
-5.03
-6.02
-7.05
-8.17
-9.49
-11.06
-12.91
-14.92
-16.77
-18.02
-18.22
-17.09
-14.67
-11.29
-7.47
-3.78
-0.62
1.82
3.52
4.56
5.10
5.29
5.27
5.20
5.18
5.29
5.57
5.99
6.50
6.98
7.33
7.49
7.45
7.29
7.10
6.97
6.87
6.69
6.31
5.63
4.63
3.41
2.11
0.86
-0.23
-1.17
-1.96
-2.65
-3.26
-3.82
-4.37
-4.97
-5.72
-6.72
-8.04
-9.66
-11.47
-13.21
-14.54
-15.12
-14.66
-13.11
-10.58
-7.38
-3.93
-0.60
2.32
4.69
6.47
7.73
8.50
8.83
8.79
8.50
8.12
7.81
7.70
7.79
7.96
8.08
8.03
7.81
7.53
7.31
7.23
7.28
7.34
7.25
6.89
6.23
5.32
4.26
3.12
1.95
0.75
-0.53
-1.87
-3.22
-4.51
-5.68
-6.68
-7.56
-8.40
-9.34
-10.50
-11.92
-13.57
-15.30
-16.84
-17.90
-18.17
-17.43
-15.56
-12.61
-8.81
-4.52
-0.18
3.69
6.74
8.74
9.74
9.99
9.86
9.68
9.62
9.70
9.83
9.90
9.89
9.84
9.80
9.75
9.64
9.37
8.90
8.30
7.67
7.08
6.52
5.92
5.18
4.26
3.20
2.09
1.04
0.07
-0.85
-1.79
-2.79
-3.88
-4.98
-6.07
-7.09
-8.07
-9.09
-10.29
-11.79
-13.64
-15.75
-17.86
-19.61
-20.55
-20.36
-18.86
-16.13
-12.47
-8.40
-4.46
-1.05
1.58
3.43
4.63
5.36
5.78
5.99
6.10
6.23
6.49
6.95
7.58
8.28
8.86
9.21
9.30
9.18
8.93
8.64
8.32
7.92
7.39
6.71
5.90
5.02
4.16
3.36
2.62
1.88
1.07
0.14
-0.90
-1.97
-3.01
-3.96
-4.77
-5.48
-6.16
-6.96
-8.07
-9.62
-11.59
-13.72
-15.55
-16.55
-16.31
-14.69
-11.92
-8.45
-4.81
-1.38
1.61
4.14
6.26
8.00
9.34
10.24
10.69
10.76
10.58
10.32
10.09
9.92
9.78
9.56
9.19
8.67
8.01
7.27
6.46
5.58
4.59
3.52
2.44
1.45
0.66
0.10
-0.29
-0.64
-1.11
-1.78
-2.67
-3.69
-4.74
-5.75
-6.74
-7.81
-9.06
-10.54
-12.24
-14.08
-16.01
-17.92
-19.63
-20.91
-21.39
-20.76
-18.84
-15.72
-11.77
-7.50
-3.44
0.08
2.96
5.28
7.20
8.82
10.14
11.10
11.64
11.79
11.70
11.59
11.59
11.74
11.99
12.22
12.37
12.47
12.59
12.79
13.03
13.18
13.10
12.71
12.04
11.22
10.39
9.64
8.95
8.26
7.44
6.37
5.04
3.43
1.61
-0.36
-2.41
-4.49
-6.59
-8.75
-11.04
-13.49
-16.07
-18.59
-20.65
-21.77
-21.46
-19.49
-15.96
-11.35
-6.33
-1.59
2.42
5.51
7.75
9.32
10.39
11.07
11.40
11.41
11.20
10.86
10.49
10.13
9.81
9.55
9.35
9.25
9.22
9.22
9.12
8.85
8.34
7.65
6.82
5.90
4.88
3.70
2.35
0.87
-0.61
-1.93
-3.01
-3.85
-4.56
-5.28
-6.17
-7.27
-8.62
-10.21
-12.06
-14.14
-16.40
-18.67
-20.60
-21.76
-21.69
-20.14
-17.08
-12.85
-8.06
-3.37
0.69
3.88
6.25
8.07
9.57
10.83
11.77
12.25
12.18
11.64
10.88
10.17
9.70
9.48
9.39
9.29
9.05
8.68
8.21
7.69
7.13
6.52
5.89
5.29
4.81
4.53
4.45
4.50
4.58
4.61
4.58
4.51
4.39
4.13
3.52
2.28
0.23
-2.69
-6.32
-10.42
-14.64
-18.60
-21.95
-24.34
-25.52
-25.35
-23.92
-21.42
-18.17
-14.43
-10.40
-6.20
-1.96
2.17
5.98
9.32
12.15
14.52
16.61
18.57
20.48
22.33
24.01
25.36
26.20
26.40
25.93
24.88
23.43
21.86
20.49
19.59
19.32
19.68
20.43
21.17
21.41
20.83
19.48
17.81
16.59
16.54
18.03
20.95
24.67
28.21
30.49
30.53
27.63
21.53
12.59
1.86
-9.07
-18.44
-24.79
-27.46
-26.67
-23.38
-18.87
-14.26
-10.29
-7.28
-5.25
-4.02
-3.35
-2.89
-2.33
-1.39
-0.01
1.61
3.13
4.15
4.43
3.96
2.90
1.43
-0.35
-2.45
-4.93
-7.70
-10.52
-12.96
-14.60
-15.21
-14.84
-13.84
-12.66
-11.74
-11.30
-11.35
-11.73
-12.28
-12.91
-13.66
-14.66
-16.01
-17.70
-19.64
-21.58
-23.29
-24.56
-25.24
-25.35
-24.99
-24.37
-23.67
-23.00
-22.27
-21.21
-19.52
-17.00
-13.69
-9.94
-6.30
-3.41
-1.71
-1.30
-1.90
-2.92
-3.70
-3.68
-2.62
-0.64
1.87
4.37
6.44
7.84
8.55
8.71
8.51
8.10
7.58
6.98
6.36
5.70
5.01
4.23
3.33
2.26
1.06
-0.21
-1.43
-2.54
-3.52
-4.42
-5.31
-6.29
-7.46
-8.86
-10.45
-12.07
-13.37
-13.99
-13.59
-12.05
-9.47
-6.22
-2.74
0.55
3.40
5.70
7.50
8.87
9.93
10.72
11.30
11.70
11.98
12.18
12.31
12.36
12.29
12.05
11.63
11.06
10.37
9.62
8.86
8.09
7.35
6.66
6.01
5.38
4.71
3.89
2.88
1.67
0.34
-1.00
-2.21
-3.23
-4.05
-4.74
-5.41
-6.20
-7.17
-8.36
-9.70
-11.06
-12.28
-13.21
-13.70
-13.66
-13.03
-11.81
-10.10
-8.05
-5.87
-3.72
-1.69
0.26
2.22
4.27
6.37
8.38
10.11
11.40
12.19
12.53
12.54
12.38
12.17
11.99
11.81
11.60
11.29
10.82
10.16
9.34
8.42
7.46
6.52
5.63
4.80
4.02
3.31
2.65
2.06
1.51
0.98
0.42
-0.21
-0.94
-1.77
-2.70
-3.79
-5.12
-6.77
-8.74
-10.85
-12.74
-14.01
-14.29
-13.49
-11.76
-9.44
-6.93
-4.56
-2.50
-0.81
0.52
1.55
2.34
2.94
3.37
3.65
3.77
3.75
3.65
3.58
3.61
3.76
3.94
4.05
3.98
3.73
3.34
2.91
2.52
2.18
1.82
1.40
0.89
0.28
-0.43
-1.23
-2.13
-3.11
-4.12
-5.04
-5.78
-6.30
-6.62
-6.89
-7.25
-7.82
-8.64
-9.60
-10.47
-10.96
-10.80
-9.80
-7.97
-5.49
-2.64
0.30
3.10
5.68
8.04
10.19
12.14
13.84
15.23
16.21
16.75
16.90
16.76
16.46
16.14
15.87
15.65
15.37
14.84
13.90
12.50
10.77
8.96
7.38
6.23
5.51
5.04
4.51
3.67
2.40
0.79
-0.90
-2.41
-3.57
-4.37
-4.94
-5.46
-6.10
-6.97
-8.14
-9.62
-11.36
-13.26
-15.10
-16.59
-17.42
-17.38
-16.47
-14.83
-12.73
-10.42
-8.07
-5.71
-3.35
-0.97
1.35
3.45
5.12
6.17
6.51
6.13
5.12
3.63
1.86
0.07
-1.46
-2.39
-2.40
-1.29
0.95
4.02
7.41
10.48
12.59
13.29
12.31
9.65
5.46
0.11
-5.88
-11.84
-17.03
-20.81
-22.82
-23.07
-21.98
-20.26
-18.69
-17.90
-18.17
-19.44
-21.26
-23.04
-24.16
-24.11
-22.67
-19.92
-16.25
-12.26
-8.55
-5.57
-3.49
-2.22
-1.49
-1.03
-0.69
-0.45
-0.37
-0.47
-0.69
-0.87
-0.83
-0.38
0.59
2.12
4.13
6.43
8.70
10.56
11.71
12.02
11.63
10.92
10.39
10.51
11.56
13.53
16.09
18.60
20.32
20.52
18.77
15.09
9.97
4.21
-1.22
-5.50
-8.09
-8.72
-7.45
-4.52
-0.37
4.44
9.27
13.48
16.62
18.46
19.11
18.87
18.11
17.09
15.90
14.46
12.73
10.78
8.98
7.84
7.83
9.22
11.80
15.00
17.94
19.74
19.78
17.89
14.44
10.22
6.22
3.34
2.07
2.34
3.52
4.71
5.03
3.93
1.30
-2.55
-7.09
-11.84
-16.52
-21.02
-25.36
-29.55
-33.50
-36.97
-39.64
-41.17
-41.31
-40.01
-37.44
-33.97
-30.08
-26.18
-22.55
-19.27
-16.31
-13.59
-11.14
-8.99
-7.20
-5.75
-4.53
-3.44
-2.43
-1.56
-0.97
-0.77
-0.89
-1.12
-1.18
-0.87
-0.19
0.67
1.38
1.69
1.45
0.71
-0.43
-1.82
-3.28
-4.69
-5.87
-6.68
-7.03
-6.94
-6.59
-6.23
-6.12
-6.44
-7.23
-8.40
-9.71
-10.86
-11.53
-11.42
-10.32
-8.08
-4.72
-0.34
4.81
10.33
15.68
20.27
23.58
25.31
25.41
24.12
21.79
18.81
15.54
12.29
9.34
6.98
5.42
4.73
4.83
5.49
6.46
7.57
8.71
9.87
10.96
11.88
12.40
12.34
11.59
10.17
8.21
5.86
3.25
0.48
-2.42
-5.42
-8.52
-11.77
-15.24
-19.06
-23.26
-27.68
-31.94
-35.46
-37.61
-37.95
-36.36
-33.13
-28.81
-24.09
-19.51
-15.43
-11.95
-9.03
-6.50
-4.21
-2.04
0.14
2.40
4.82
7.40
10.11
12.98
16.10
19.66
23.84
28.74
34.19
39.81
44.99
49.11
51.66
52.36
51.26
48.66
45.05
40.99
36.88
32.88
28.84
24.38
19.15
12.99
6.01
-1.42
-8.78
-15.56
-21.30
-25.64
-28.28
-29.03
-27.91
-25.20
-21.42
-17.21
-13.19
-9.73
-6.96
-4.86
-3.37
-2.52
-2.45
-3.30
-5.03
-7.38
-9.82
-11.72
-12.46
-11.67
-9.29
-5.60
-1.15
3.32
7.04
9.30
9.62
7.87
4.27
-0.69
-6.36
-12.13
-17.54
-22.30
-26.29
-29.48
-31.92
-33.69
-34.89
-35.64
-36.08
-36.34
-36.48
-36.41
-35.85
-34.40
-31.64
-27.36
-21.68
-15.09
-8.25
-1.81
3.84
8.62
12.64
16.07
18.97
21.32
23.06
24.16
24.73
24.94
25.00
25.03
25.07
25.03
24.71
23.97
22.68
20.92
18.90
16.92
15.21
13.89
12.94
12.23
11.63
11.08
10.58
10.14
9.77
9.41
9.00
8.46
7.67
6.56
5.09
3.34
1.51
-0.06
-1.01
-1.12
-0.39
0.94
2.54
4.00
5.06
5.58
5.53
4.94
3.93
2.69
1.49
0.64
0.36
0.73
1.63
2.77
3.83
4.49
4.60
4.12
3.17
2.01
0.95
0.30
0.24
0.79
1.75
2.77
3.43
3.41
2.59
1.06
-0.84
-2.76
-4.39
-5.64
-6.59
-7.50
-8.59
-9.95
-11.49
-12.88
-13.71
-13.62
-12.39
-9.98
-6.64
-2.76
1.13
4.56
7.24
9.09
10.22
10.80
10.95
10.67
9.91
8.71
7.23
5.79
4.72
4.18
4.11
4.26
4.28
3.93
3.20
2.23
1.31
0.64
0.24
-0.03
-0.41
-1.03
-1.92
-2.92
-3.85
-4.60
-5.21
-5.82
-6.65
-7.85
-9.44
-11.38
-13.50
-15.58
-17.36
-18.57
-19.03
-18.67
-17.59
-16.04
-14.33
-12.69
-11.26
-10.01
-8.85
-7.66
-6.38
-5.02
-3.60
-2.18
-0.79
0.56
1.86
3.11
4.26
5.25
6.03
6.56
6.87
7.04
7.17
7.38
7.69
8.06
8.39
8.51
8.27
7.62
6.60
5.39
4.19
3.17
2.42
1.96
1.71
1.60
1.54
1.47
1.29
0.91
0.34
-0.34
-0.90
-1.09
-0.68
0.41
2.10
4.24
6.61
8.97
11.10
12.73
13.65
13.77
13.14
12.03
10.74
9.59
8.76
8.28
8.12
8.22
8.54
9.01
9.52
9.89
9.95
9.59
8.78
7.63
6.29
4.91
3.61
2.50
1.60
0.88
0.23
-0.50
-1.51
-2.92
-4.78
-6.97
-9.25
-11.27
-12.70
-13.30
-12.97
-11.83
-10.11
-8.14
-6.20
-4.46
-3.00
-1.75
-0.60
0.55
1.82
3.19
4.59
5.77
6.44
6.34
5.48
4.11
2.78
2.05
2.31
3.63
5.70
8.04
10.15
11.72
12.61
12.79
12.30
11.15
9.43
7.36
5.27
3.55
2.52
2.20
2.35
2.48
2.07
0.74
-1.59
-4.68
-8.07
-11.13
-13.26
-14.06
-13.42
-11.58
-9.13
-6.83
-5.40
-5.27
-6.48
-8.64
-11.15
-13.38
-14.85
-15.39
-15.11
-14.27
-13.17
-12.00
-10.84
-9.66
-8.43
-7.11
-5.74
-4.38
-3.04
-1.74
-0.51
0.60
1.54
2.28
2.86
3.43
4.16
5.11
6.27
7.59
9.04
10.64
12.47
14.51
16.60
18.51
20.10
21.46
22.89
24.74
27.16
29.99
32.86
35.42
37.57
39.56
41.72
44.19
46.71
48.66
49.33
48.31
45.56
41.45
36.47
30.94
24.91
18.26
10.90
2.92
-5.34
-13.36
-20.64
-26.83
-31.79
-35.55
-38.27
-40.11
-41.17
-41.60
-41.57
-41.35
-41.20
-41.29
-41.58
-41.74
-41.25
-39.64
-36.62
-32.34
-27.29
-22.06
-17.10
-12.38
-7.43
-1.51
6.07
15.57
26.66
38.44
49.68
59.11
65.78
69.16
69.19
66.20
60.73
53.48
45.21
36.66
28.44
20.99
14.48
8.91
4.20
0.36
-2.42
-3.81
-3.48
-1.36
2.32
6.94
11.69
15.81
18.70
20.06
19.82
18.08
15.04
10.96
6.21
1.22
-3.50
-7.46
-10.29
-11.83
-12.19
-11.68
-10.67
-9.47
-8.21
-6.86
-5.27
-3.23
-0.64
2.55
6.26
10.38
14.85
19.64
24.76
30.14
35.53
40.46
44.37
46.73
47.31
46.18
43.74
40.50
36.89
33.23
29.60
25.96
22.13
17.84
12.81
6.88
0.19
-6.77
-13.19
-18.19
-21.14
-21.91
-20.96
-19.16
-17.59
-17.25
-18.80
-22.54
-28.26
-35.35
-42.87
-49.75
-55.02
-57.99
-58.42
-56.53
-52.92
-48.39
-43.75
-39.62
-36.32
-33.84
-31.93
-30.28
-28.63
-26.91
-25.15
-23.49
-22.00
-20.74
-19.70
-18.88
-18.28
-17.86
-17.53
-17.16
-16.62
-15.91
-15.12
-14.49
-14.27
-14.66
-15.67
-17.13
-18.75
-20.18
-21.15
-21.55
-21.51
-21.32
-21.36
-21.92
-23.08
-24.67
-26.29
-27.42
-27.61
-26.57
-24.31
-21.06
-17.20
-13.14
-9.19
-5.60
-2.47
0.17
2.31
4.02
5.29
6.17
6.70
6.89
6.84
6.62
6.30
5.95
5.56
5.14
4.72
4.35
4.10
4.01
3.97
3.81
3.35
2.52
1.40
0.23
-0.76
-1.46
-1.91
-2.33
-2.96
-3.99
-5.48
-7.34
-9.38
-11.40
-13.17
-14.53
-15.29
-15.38
-14.74
-13.46
-11.68
-9.57
-7.34
-5.12
-2.99
-1.02
0.64
1.81
2.29
1.94
0.84
-0.65
-2.05
-2.92
-3.06
-2.61
-1.95
-1.54
-1.69
-2.43
-3.61
-4.94
-6.13
-7.02
-7.63
-8.06
-8.52
-9.22
-10.28
-11.76
-13.57
-15.62
-17.80
-20.11
-22.59
-25.35
-28.38
-31.57
-34.70
-37.43
-39.44
-40.37
-40.01
-38.29
-35.33
-31.39
-26.86
-22.11
-17.42
-13.01
-9.00
-5.44
-2.37
0.28
2.58
4.70
6.80
8.98
11.20
13.30
15.07
16.33
17.00
17.19
17.16
17.21
17.52
18.05
18.59
18.82
18.56
17.81
16.75
15.61
14.46
13.23
11.73
9.90
7.84
5.88
4.36
3.49
3.25
3.35
3.41
3.06
2.06
0.43
-1.66
-3.89
-5.93
-7.48
-8.35
-8.49
-7.95
-6.83
-5.32
-3.64
-2.09
-0.98
-0.51
-0.70
-1.27
-1.78
-1.83
-1.23
-0.15
1.02
1.85
2.12
1.92
1.61
1.61
2.20
3.47
5.24
7.28
9.31
11.15
12.60
13.49
13.74
13.33
12.48
11.59
11.19
11.76
13.67
16.94
21.24
25.89
30.00
32.73
33.64
32.94
31.48
30.36
30.49
32.02
34.22
35.63
34.53
29.54
20.09
6.74
-8.78
-23.88
-35.70
-41.88
-41.32
-34.53
-23.47
-10.80
1.00
10.35
16.79
20.75
23.10
24.73
26.39
28.41
30.64
32.33
32.22
29.02
21.95
11.19
-2.09
-16.24
-29.84
-42.27
-53.70
-64.61
-75.18
-84.91
-92.73
-97.44
-98.18
-94.69
-87.26
-76.47
-63.06
-47.92
-32.06
-16.67
-2.91
8.34
16.62
22.01
24.97
26.13
26.14
25.60
25.04
24.83
25.08
25.65
26.24
26.49
26.26
25.61
24.79
24.05
23.49
23.02
22.39
21.38
19.85
17.81
15.38
12.78
10.22
7.95
6.20
5.07
4.55
4.46
4.46
4.20
3.42
2.04
0.15
-2.08
-4.50
-7.01
-9.66
-12.53
-15.63
-18.81
-21.72
-23.87
-24.76
-24.08
-21.81
-18.24
-13.83
-9.07
-4.33
0.22
4.50
8.44
11.84
14.41
15.90
16.20
15.49
14.14
12.61
11.28
10.32
9.75
9.45
9.31
9.27
9.35
9.53
9.76
9.94
9.97
9.78
9.43
8.98
8.54
8.19
7.89
7.63
7.38
7.09
6.72
6.16
5.29
4.03
2.46
0.79
-0.62
-1.44
-1.43
-0.56
1.14
3.65
7.09
11.65
17.39
24.09
31.12
37.61
42.65
45.64
46.42
45.29
42.92
40.21
38.14
37.53
38.91
42.28
46.96
51.72
55.15
56.16
54.57
51.35
48.44
48.15
52.44
62.23
77.18
95.98
116.86
138.15
158.66
177.69
194.71
209.26
220.91
229.40
234.67
236.77
235.48
230.14
219.78
203.58
181.55
154.74
125.20
95.12
66.22
39.14
13.49
-11.83
-38.17
-66.66
-97.69
-130.52
-163.00
-192.01
-214.21
-227.22
-230.47
-225.33
-214.47
-200.80
-186.69
-173.52
-161.84
-151.71
-142.95
-135.21
-128.00
-120.78
-113.29
-105.80
-99.15
-94.29
-91.82
-91.49
-92.13
-91.98
-89.24
-82.70
-72.10
-58.42
-43.77
-31.14
-23.78
-24.17
-33.04
-48.58
-66.56
-81.49
-88.48
-85.07
-72.15
-53.39
-33.59
-16.76
-5.00
1.53
3.77
2.73
-0.94
-6.92
-14.72
-23.48
-31.99
-39.00
-43.70
-45.87
-45.85
-44.32
-42.11
-39.80
-37.63
-35.34
-32.37
-28.22
-22.78
-16.60
-10.75
-6.33
-4.01
-3.75
-4.92
-6.61
-8.05
-8.84
-8.98
-8.76
-8.52
-8.52
-8.86
-9.51
-10.29
-11.00
-11.47
-11.66
-11.61
-11.35
-10.88
-10.08
-8.80
-6.97
-4.68
-2.09
0.62
3.43
6.43
9.74
13.34
16.98
20.19
22.52
23.69
23.70
22.77
21.18
19.15
16.79
14.22
11.64
9.34
7.67
6.80
6.62
6.80
6.82
6.31
5.08
3.17
0.82
-1.72
-4.25
-6.70
-9.05
-11.41
-13.90
-16.71
-19.93
-23.46
-26.93
-29.68
-30.93
-30.04
-26.73
-21.27
-14.35
-6.92
0.20
6.46
11.70
16.04
19.71
22.88
25.57
27.69
29.12
29.76
29.54
28.47
26.59
24.00
20.89
17.52
14.24
11.42
9.44
8.51
8.64
9.49
10.46
10.82
10.10
8.32
6.03
4.13
3.33
3.79
4.99
5.99
5.89
4.12
0.54
-4.78
-11.65
-19.61
-27.83
-34.86
-38.92
-38.49
-32.95
-22.96
-10.32
2.67
13.95
22.23
27.16
29.09
28.73
26.83
24.11
21.16
18.57
16.90
16.58
17.71
19.82
21.88
22.57
20.78
16.16
9.37
1.82
-4.87
-9.60
-12.11
-12.96
-13.05
-13.17
-13.66
-14.48
-15.44
-16.47
-17.69
-19.38
-21.77
-24.90
-28.58
-32.36
-35.68
-37.79
-37.97
-35.64
-30.61
-23.23
-14.35
-5.10
3.57
11.31
18.52
26.13
35.14
46.01
58.30
70.69
81.30
88.21
90.04
86.23
77.13
63.87
48.13
31.86
16.89
4.67
-3.91
-8.66
-10.01
-8.81
-6.10
-2.82
0.36
3.05
5.05
6.21
6.34
5.30
3.00
-0.55
-5.22
-10.88
-17.33
-24.25
-31.14
-37.29
-41.95
-44.50
-44.61
-42.20
-37.39
-30.49
-22.09
-13.25
-5.43
-0.24
1.15
-1.42
-6.96
-13.63
-19.30
-22.30
-21.66
-17.13
-9.05
1.77
14.12
26.27
36.32
42.56
44.10
41.24
35.41
28.70
23.23
20.39
20.56
23.04
26.48
29.30
30.22
28.60
24.51
18.69
12.16
5.91
0.59
-3.66
-7.09
-10.09
-12.96
-15.58
-17.54
-18.28
-17.34
-14.61
-10.36
-5.16
0.40
5.79
10.70
14.94
18.36
20.81
22.18
22.57
22.30
21.87
21.76
22.21
23.11
23.99
24.21
23.26
20.92
17.35
12.93
8.14
3.31
-1.36
-5.86
-10.30
-14.85
-19.68
-24.89
-30.43
-35.89
-40.51
-43.36
-43.59
-40.83
-35.39
-28.12
-20.15
-12.42
-5.51
0.42
5.35
9.29
12.11
13.67
13.89
12.90
10.99
8.58
6.12
4.04
2.72
2.46
3.33
5.19
7.66
10.20
12.28
13.54
13.85
13.32
12.17
10.61
8.84
6.95
5.00
3.05
1.14
-0.75
-2.66
-4.68
-6.82
-8.89
-10.48
-11.00
-9.90
-6.86
-1.97
4.24
10.92
17.11
22.02
25.25
26.87
27.34
27.37
27.58
28.37
29.74
31.36
32.71
33.23
32.53
30.43
27.01
22.57
17.54
12.44
7.73
3.75
0.66
-1.58
-3.16
-4.26
-5.09
-5.83
-6.68
-7.86
-9.59
-11.99
-15.07
-18.67
-22.45
-26.00
-28.82
-30.48
-30.61
-28.98
-25.61
-20.74
-14.90
-8.78
-3.10
1.59
5.02
7.20
8.37
8.87
9.01
9.03
9.03
9.01
8.88
8.54
7.93
7.08
6.08
5.04
4.06
3.20
2.43
1.75
1.15
0.63
0.16
-0.38
-1.12
-2.17
-3.57
-5.25
-7.14
-9.24
-11.62
-14.35
-17.33
-20.19
-22.34
-23.16
-22.19
-19.35
-14.93
-9.52
-3.81
1.56
6.15
9.74
12.36
14.19
15.44
16.24
16.63
16.48
15.67
14.16
12.08
9.74
7.51
5.65
4.30
3.40
2.79
2.36
2.04
1.83
1.77
1.82
1.85
1.73
1.30
0.49
-0.69
-2.27
-4.30
-6.93
-10.26
-14.19
-18.31
-21.82
-23.79
-23.44
-20.42
-14.99
-7.89
-0.15
7.22
13.51
18.33
21.58
23.43
24.13
23.97
23.27
22.25
21.05
19.73
18.34
16.97
15.78
14.92
14.44
14.26
14.19
14.05
13.78
13.43
13.13
12.92
12.66
12.04
10.73
8.54
5.51
1.91
-1.92
-5.70
-9.33
-12.77
-15.95
-18.65
-20.45
-20.91
-19.70
-16.79
-12.48
-7.40
-2.28
2.29
5.93
8.61
10.50
11.89
13.04
14.07
14.98
15.67
16.01
15.96
15.52
14.81
13.94
13.07
12.25
11.48
10.69
9.82
8.83
7.74
6.64
5.57
4.55
3.47
2.26
0.85
-0.68
-2.22
-3.67
-5.03
-6.41
-7.88
-9.43
-10.82
-11.65
-11.46
-9.88
-6.83
-2.43
2.95
8.88
14.91
20.60
25.51
29.20
31.33
31.80
30.86
29.12
27.38
26.33
26.28
27.06
28.18
29.25
30.25
31.65
34.18
38.42
44.32
51.24
58.10
63.86
67.83
69.76
69.76
68.11
65.25
61.85
58.76
56.65
55.42
53.81
49.56
40.49
25.83
7.20
-11.56
-25.70
-31.31
-26.69
-12.40
9.70
37.59
69.61
104.08
138.41
168.70
190.41
199.69
194.86
176.80
148.43
113.60
76.07
39.12
5.42
-22.97
-44.89
-60.42
-70.81
-78.06
-84.00
-89.65
-95.17
-100.28
-104.85
-109.02
-112.94
-116.33
-118.31
-117.77
-114.08
-107.51
-99.19
-90.54
-82.67
-75.87
-69.72
-63.45
-56.42
-48.44
-39.81
-31.11
-22.85
-15.33
-8.45
-1.85
4.94
12.38
20.81
30.37
40.87
51.50
60.68
66.23
65.93
58.58
44.77
27.10
9.42
-4.45
-12.17
-13.52
-10.25
-4.92
0.22
4.06
6.76
9.27
12.59
17.29
23.29
29.91
36.01
40.11
40.43
35.08
22.40
1.58
-26.70
-59.95
-94.29
-125.45
-149.96
-166.12
-173.98
-174.72
-169.81
-160.40
-147.42
-131.94
-115.51
-99.91
-86.56
-75.94
-67.52
-60.19
-52.93
-45.22
-36.92
-28.03
-18.38
-7.92
3.04
13.68
23.03
30.65
36.90
42.75
48.95
55.34
60.53
62.46
59.38
50.66
37.06
20.51
3.38
-11.94
-23.51
-30.03
-31.08
-27.33
-20.64
-13.70
-9.36
-9.77
-15.69
-26.27
-39.36
-52.24
-62.46
-68.64
-70.72
-69.76
-67.43
-65.26
-64.03
-63.35
-61.66
-56.50
-45.29
-26.02
2.03
38.14
80.33
125.92
172.00
215.66
253.91
283.59
301.49
305.00
293.01
266.59
229.05
185.10
139.48
95.57
54.90
17.57
-16.59
-46.99
-71.95
-89.27
-97.49
-96.90
-89.64
-79.15
-68.89
-61.33
-57.42
-56.69
-57.81
-59.31
-60.11
-59.85
-58.84
-57.73
-57.07
-56.95
-56.93
-56.37
-54.94
-52.94
-51.23
-50.75
-52.04
-54.92
-58.64
-62.36
-65.43
-67.58
-68.74
-68.84
-67.69
-65.15
-61.31
-56.71
-52.14
-48.35
-45.76
-44.19
-43.12
-41.94
-40.30
-38.26
-36.12
-34.22
-32.66
-31.26
-29.78
-28.07
-26.22
-24.48
-23.14
-22.24
-21.55
-20.66
-19.27
-17.36
-15.26
-13.41
-12.12
-11.46
-11.25
-11.30
-11.55
-12.19
-13.45
-15.47
-18.16
-21.23
-24.31
-27.05
-29.19
-30.55
-31.11
-31.01
-30.60
-30.24
-30.13
-30.02
-29.19
-26.80
-22.29
-15.79
-8.15
-0.63
5.71
10.36
13.58
16.00
18.28
20.71
23.13
25.20
26.71
27.76
28.74
29.99
31.54
32.95
33.57
32.87
30.76
27.67
24.39
21.62
19.72
18.56
17.66
16.43
14.45
11.57
7.90
3.80
-0.30
-3.95
-6.81
-8.74
-9.86
-10.56
-11.34
-12.76
-15.23
-18.82
-23.20
-27.54
-30.72
-31.65
-29.67
-24.84
-18.00
-10.51
-3.75
1.34
4.53
6.15
6.83
7.03
6.92
6.44
5.55
4.42
3.51
3.32
4.16
5.93
8.18
10.32
12.03
13.33
14.61
16.37
18.91
22.12
25.60
28.80
31.26
32.69
33.05
32.47
31.22
29.73
28.51
28.04
28.53
29.75
31.05
31.50
30.41
27.61
23.61
19.52
16.55
15.63
17.03
20.32
24.56
28.58
31.37
32.34
31.38
28.84
25.35
21.54
17.88
14.59
11.63
8.87
6.23
3.73
1.45
-0.50
-2.14
-3.64
-5.19
-6.96
-8.98
-11.16
-13.35
-15.50
-17.69
-20.11
-22.96
-26.24
-29.73
-33.02
-35.71
-37.58
-38.76
-39.67
-40.83
-42.61
-44.94
-47.35
-48.94
-48.85
-46.49
-41.79
-35.21
-27.56
-19.70
-12.25
-5.55
0.33
5.42
9.72
13.12
15.53
16.92
17.44
17.36
17.00
16.59
16.24
15.95
15.68
15.43
15.28
15.28
15.46
15.74
16.04
16.20
16.16
15.89
15.39
14.69
13.83
12.77
11.43
9.68
7.33
4.25
0.38
-4.19
-9.22
-14.30
-18.86
-22.18
-23.46
-22.07
-17.70
-10.62
-1.58
8.26
17.70
25.80
32.08
36.49
39.24
40.58
40.72
39.82
38.13
35.99
33.80
31.87
30.28
28.84
27.26
25.38
23.26
21.18
19.47
18.25
17.38
16.51
15.32
13.62
11.44
8.97
6.45
4.01
1.65
-0.81
-3.64
-7.08
-11.13
-15.46
-19.35
-22.01
-22.78
-21.47
-18.39
-14.13
-9.31
-4.40
0.33
4.64
8.24
10.82
12.17
12.37
11.83
11.09
10.60
10.51
10.65
10.68
10.35
9.61
8.67
7.78
7.14
6.71
6.32
5.70
4.65
3.09
1.03
-1.41
-4.10
-6.82
-9.30
-11.25
-12.50
-13.12
-13.50
-14.18
-15.58
-17.77
-20.31
-22.36
-23.10
-21.98
-19.01
-14.61
-9.45
-4.09
1.15
6.14
10.84
15.10
18.66
21.23
22.67
23.11
22.89
22.44
22.05
21.80
21.53
20.97
19.96
18.47
16.73
15.01
13.57
12.50
11.71
10.98
10.09
8.91
7.45
5.90
4.49
3.42
2.73
2.21
1.51
0.20
-1.98
-5.02
-8.53
-11.83
-14.12
-14.70
-13.13
-9.31
-3.53
3.67
11.53
19.26
26.19
31.83
35.96
38.64
40.10
40.67
40.61
40.13
39.30
38.15
36.63
34.74
32.49
29.90
27.04
23.95
20.71
17.42
14.17
11.07
8.16
5.40
2.64
-0.24
-3.30
-6.46
-9.57
-12.51
-15.29
-18.12
-21.32
-25.13
-29.58
-34.48
-39.34
-43.59
-46.64
-47.99
-47.31
-44.55
-39.99
-34.17
-27.84
-21.64
-16.02
-11.10
-6.80
-2.93
0.55
3.57
5.97
7.64
8.60
9.00
9.05
8.94
8.77
8.54
8.21
7.75
7.16
6.48
5.78
5.07
4.31
3.43
2.33
0.93
-0.71
-2.49
-4.19
-5.65
-6.79
-7.68
-8.50
-9.52
-10.93
-12.83
-15.13
-17.55
-19.69
-21.09
-21.34
-20.18
-17.56
-13.63
-8.75
-3.38
2.04
7.18
11.82
15.85
19.22
21.86
23.73
24.78
25.04
24.60
23.60
22.23
20.68
19.12
17.68
16.44
15.41
14.57
13.83
13.11
12.33
11.49
10.56
9.51
8.25
6.68
4.79
2.65
0.41
-1.83
-4.05
-6.38
-9.04
-12.12
-15.58
-19.19
-22.60
-25.48
-27.57
-28.67
-28.64
-27.39
-24.94
-21.47
-17.30
-12.85
-8.47
-4.38
-0.62
2.78
5.75
8.12
9.71
10.42
10.35
9.74
8.94
8.18
7.62
7.25
6.99
6.75
6.43
6.04
5.61
5.28
5.14
5.29
5.65
5.99
6.02
5.39
3.94
1.67
-1.19
-4.31
-7.31
-9.84
-11.74
-13.00
-13.79
-14.43
-15.24
-16.44
-18.10
-20.06
-21.97
-23.37
-23.82
-22.97
-20.67
-17.05
-12.44
-7.37
-2.38
2.11
5.89
8.98
11.51
13.68
15.60
17.25
18.55
19.37
19.65
19.42
18.80
17.94
17.00
16.02
14.97
13.79
12.43
10.92
9.38
7.91
6.58
5.35
4.09
2.70
1.16
-0.42
-1.83
-2.83
-3.28
-3.22
-2.91
-2.69
-2.93
-3.85
-5.49
-7.72
-10.36
-13.18
-15.91
-18.22
-19.67
-19.82
-18.35
-15.27
-10.95
-6.08
-1.43
2.39
5.04
6.47
6.83
6.36
5.28
3.79
2.10
0.37
-1.25
-2.64
-3.73
-4.45
-4.81
-4.82
-4.55
-4.06
-3.41
-2.59
-1.62
-0.54
0.52
1.38
1.92
2.14
2.14
2.08
2.08
2.13
2.20
2.29
2.50
2.99
3.85
4.99
6.10
6.85
7.01
6.60
5.82
4.85
3.69
2.25
0.45
-1.47
-2.97
-3.37
-2.21
0.43
4.02
7.74
10.92
13.32
15.08
16.50
17.76
18.71
19.03
18.41
16.76
14.33
11.54
8.83
6.50
4.66
3.28
2.26
1.46
0.76
0.04
-0.81
-1.83
-3.02
-4.34
-5.76
-7.27
-8.88
-10.58
-12.29
-13.80
-14.96
-15.65
-16.00
-16.26
-16.74
-17.66
-19.10
-20.87
-22.79
-24.68
-26.51
-28.30
-30.04
-31.50
-32.32
-32.01
-30.27
-27.07
-22.77
-17.95
-13.19
-8.93
-5.30
-2.22
0.48
2.87
4.89
6.34
7.06
7.00
6.33
5.37
4.44
3.82
3.59
3.68
4.00
4.37
4.71
4.92
4.97
4.83
4.51
4.02
3.39
2.61
1.63
0.45
-0.90
-2.30
-3.61
-4.73
-5.69
-6.65
-7.80
-9.27
-11.04
-13.01
-15.09
-17.27
-19.52
-21.74
-23.65
-24.79
-24.67
-23.00
-19.85
-15.59
-10.81
-6.02
-1.56
2.42
5.89
8.79
11.01
12.46
13.15
13.24
12.96
12.60
12.40
12.43
12.64
12.87
12.94
12.68
12.04
11.08
9.93
8.78
7.76
6.92
6.22
5.56
4.79
3.79
2.46
0.81
-1.14
-3.24
-5.31
-7.18
-8.75
-10.03
-11.15
-12.38
-13.96
-16.10
-18.78
-21.70
-24.30
-25.83
-25.66
-23.44
-19.34
-13.98
-8.21
-2.83
1.69
5.24
7.99
10.15
11.81
12.89
13.31
13.10
12.46
11.75
11.31
11.26
11.52
11.84
11.94
11.62
10.89
9.89
8.84
7.88
7.06
6.29
5.44
4.34
2.94
1.31
-0.41
-2.02
-3.40
-4.50
-5.44
-6.33
-7.35
-8.64
-10.28
-12.35
-14.82
-17.53
-20.19
-22.31
-23.38
-22.94
-20.82
-17.16
-12.44
-7.30
-2.30
2.18
6.00
9.20
11.83
13.89
15.27
15.82
15.55
14.64
13.44
12.38
11.78
11.74
12.09
12.48
12.61
12.29
11.55
10.66
9.91
9.45
9.22
8.93
8.27
7.06
5.35
3.44
1.61
0.03
-1.34
-2.75
-4.47
-6.68
-9.35
-12.42
-15.75
-19.23
-22.66
-25.71
-27.85
-28.47
-27.12
-23.73
-18.68
-12.73
-6.67
-1.13
3.61
7.56
10.78
13.26
14.85
15.43
15.03
13.99
12.79
11.95
11.73
12.05
12.59
12.93
12.83
12.27
11.47
10.65
9.90
9.17
8.23
6.83
4.87
2.40
-0.35
-3.06
-5.45
-7.41
-9.00
-10.41
-11.89
-13.62
-15.70
-18.14
-20.88
-23.85
-26.85
-29.58
-31.55
-32.19
-31.06
-28.00
-23.27
-17.45
-11.25
-5.28
0.07
4.64
8.41
11.38
13.54
14.86
15.40
15.30
14.81
14.21
13.74
13.54
13.64
13.93
14.25
14.41
14.30
13.89
13.27
12.60
12.00
11.47
10.89
10.02
8.64
6.65
4.16
1.50
-0.98
-2.99
-4.52
-5.77
-7.12
-8.89
-11.30
-14.27
-17.59
-20.84
-23.59
-25.36
-25.77
-24.55
-21.66
-17.29
-11.84
-5.89
-0.04
5.21
9.49
12.64
14.65
15.67
15.95
15.78
15.40
14.98
14.52
14.01
13.37
12.59
11.73
10.90
10.24
9.89
9.88
10.10
10.37
10.41
9.99
8.97
7.35
5.27
2.93
0.55
-1.76
-3.96
-6.10
-8.28
-10.60
-13.18
-16.15
-19.52
-23.17
-26.70
-29.45
-30.70
-29.88
-26.87
-21.97
-15.88
-9.36
-2.99
2.85
8.02
12.37
15.77
18.09
19.30
19.63
19.45
19.17
19.10
19.33
19.74
20.12
20.27
20.04
19.41
18.45
17.26
15.96
14.60
13.18
11.62
9.86
7.83
5.55
3.10
0.60
-1.84
-4.14
-6.26
-8.24
-10.21
-12.36
-14.97
-18.20
-21.97
-25.89
-29.29
-31.38
-31.53
-29.46
-25.35
-19.74
-13.36
-6.90
-0.88
4.45
9.04
12.97
16.34
19.15
21.35
22.85
23.66
23.85
23.62
23.20
22.74
22.30
21.85
21.31
20.63
19.85
19.01
18.18
17.32
16.34
15.08
13.44
11.39
9.02
6.50
4.00
1.61
-0.65
-2.82
-4.93
-7.04
-9.21
-11.56
-14.26
-17.40
-20.89
-24.37
-27.24
-28.83
-28.61
-26.39
-22.36
-17.00
-10.91
-4.64
1.40
6.92
11.74
15.78
18.95
21.20
22.55
23.08
22.96
22.49
22.00
21.74
21.81
22.13
22.44
22.46
22.05
21.18
20.04
18.84
17.71
16.65
15.46
13.93
11.89
9.35
6.43
3.41
0.53
-2.05
-4.30
-6.28
-8.16
-10.11
-12.28
-14.79
-17.62
-20.64
-23.53
-25.80
-26.94
-26.50
-24.34
-20.57
-15.61
-9.95
-4.11
1.59
6.91
11.70
15.80
19.04
21.27
22.42
22.60
22.03
21.01
19.81
18.68
17.73
17.03
16.54
16.17
15.79
15.28
14.58
13.69
12.68
11.60
10.43
9.04
7.32
5.20
2.80
0.32
-2.06
-4.22
-6.21
-8.14
-10.11
-12.16
-14.34
-16.71
-19.39
-22.42
-25.63
-28.60
-30.68
-31.25
-29.91
-26.70
-21.97
-16.30
-10.22
-4.12
1.79
7.35
12.36
16.64
20.02
22.44
23.97
24.77
25.00
24.80
24.26
23.53
22.86
22.47
22.51
22.89
23.27
23.19
22.34
20.69
18.56
16.43
14.68
13.37
12.26
10.94
9.10
6.71
4.02
1.43
-0.75
-2.46
-3.90
-5.45
-7.49
-10.24
-13.72
-17.73
-21.89
-25.69
-28.55
-29.90
-29.32
-26.68
-22.21
-16.53
-10.43
-4.63
0.39
4.49
7.79
10.49
12.76
14.62
16.01
16.85
17.12
16.88
16.30
15.58
14.87
14.25
13.68
13.04
12.19
11.15
10.06
9.19
8.73
8.68
8.79
8.70
8.07
6.82
5.08
3.13
1.29
-0.25
-1.50
-2.53
-3.52
-4.61
-5.94
-7.70
-10.08
-13.30
-17.42
-22.23
-27.13
-31.25
-33.67
-33.77
-31.54
-27.53
-22.64
-17.77
-13.49
-9.91
-6.87
-4.15
-1.68
0.41
1.98
3.00
3.61
4.07
4.67
5.51
6.51
7.47
8.11
8.30
7.99
7.30
6.41
5.46
4.58
3.78
3.01
2.21
1.29
0.16
-1.20
-2.81
-4.57
-6.34
-8.00
-9.40
-10.50
-11.38
-12.22
-13.28
-14.85
-17.10
-20.00
-23.23
-26.12
-27.90
-27.85
-25.62
-21.33
-15.60
-9.33
-3.34
1.79
5.86
8.93
11.17
12.75
13.74
14.23
14.31
14.17
14.00
13.90
13.93
14.08
14.28
14.46
14.55
14.45
14.07
13.38
12.44
11.35
10.23
9.14
7.98
6.62
4.87
2.70
0.23
-2.28
-4.57
-6.44
-7.90
-9.12
-10.33
-11.75
-13.49
-15.56
-17.97
-20.64
-23.44
-26.03
-27.85
-28.23
-26.62
-22.84
-17.24
-10.64
-4.03
1.69
6.03
8.91
10.61
11.48
11.82
11.78
11.41
10.76
9.96
9.24
8.83
8.86
9.27
9.86
10.32
10.42
10.02
9.21
8.17
7.09
6.05
5.02
3.88
2.54
0.97
-0.75
-2.44
-3.96
-5.21
-6.21
-7.06
-7.96
-9.10
-10.70
-12.86
-15.61
-18.78
-22.00
-24.72
-26.36
-26.44
-24.79
-21.57
-17.21
-12.27
-7.25
-2.52
1.73
5.34
8.20
10.20
11.29
11.56
11.22
10.57
9.93
9.53
9.42
9.53
9.71
9.82
9.76
9.52
9.20
8.87
8.65
8.58
8.57
8.43
7.91
6.74
4.83
2.29
-0.58
-3.40
-5.84
-7.79
-9.32
-10.68
-12.16
-14.01
-16.38
-19.28
-22.51
-25.60
-27.87
-28.62
-27.32
-23.90
-18.75
-12.60
-6.31
-0.52
4.38
8.31
11.33
13.52
14.92
15.63
15.83
15.82
15.87
16.16
16.61
16.96
16.89
16.22
15.00
13.54
12.23
11.34
10.92
10.73
10.41
9.61
8.18
6.23
4.04
1.93
0.13
-1.32
-2.56
-3.80
-5.34
-7.44
-10.33
-14.06
-18.49
-23.16
-27.28
-29.98
-30.47
-28.37
-23.90
-17.76
-10.91
-4.27
1.52
6.26
10.01
13.00
15.41
17.29
18.63
19.38
19.65
19.59
19.47
19.42
19.46
19.46
19.20
18.58
17.66
16.59
15.60
14.82
14.23
13.64
12.80
11.46
9.52
7.03
4.24
1.46
-1.03
-3.07
-4.69
-6.10
-7.60
-9.51
-12.11
-15.55
-19.67
-23.98
-27.66
-29.75
-29.52
-26.76
-21.86
-15.76
-9.49
-3.83
0.89
4.74
7.99
10.82
13.16
14.81
15.54
15.25
14.11
12.48
10.78
9.33
8.27
7.52
6.89
6.24
5.52
4.83
4.27
3.87
3.54
3.07
2.28
1.09
-0.43
-2.17
-4.05
-5.99
-7.99
-10.03
-12.10
-14.20
-16.40
-18.82
-21.52
-24.36
-26.90
-28.51
-28.52
-26.52
-22.56
-17.13
-11.01
-4.92
0.63
5.47
9.62
13.19
16.20
18.56
20.16
21.00
21.20
21.02
20.74
20.56
20.54
20.59
20.54
20.20
19.47
18.42
17.16
15.87
14.63
13.37
11.93
10.19
8.06
5.64
3.13
0.75
-1.27
-2.86
-4.03
-4.96
-5.91
-7.20
-9.14
-11.86
-15.25
-18.91
-22.17
-24.30
-24.64
-22.84
-19.00
-13.61
-7.50
-1.54
3.58
7.50
10.24
12.07
13.37
14.45
15.43
16.27
16.85
17.02
16.80
16.30
15.74
15.35
15.22
15.31
15.43
15.47
15.37
15.27
15.32
15.61
16.04
16.29
16.02
15.01
13.34
11.31
9.31
7.58
6.08
4.56
2.67
0.19
-2.89
-6.40
-10.08
-13.68
-16.94
-19.59
-21.31
-21.82
-20.96
-18.81
-15.72
-12.22
-8.85
-6.01
-3.93
-2.64
-2.04
-1.98
-2.28
-2.82
-3.46
-4.13
-4.81
-5.49
-6.14
-6.71
-7.12
-7.30
-7.16
-6.69
-5.92
-4.99
-4.02
-3.19
-2.64
-2.50
-2.80
-3.51
-4.48
-5.47
-6.32
-6.94
-7.39
-7.84
-8.45
-9.30
-10.43
-11.84
-13.61
-15.81
-18.42
-21.20
-23.63
-25.07
-24.97
-23.10
-19.70
-15.32
-10.63
-6.16
-2.18
1.32
4.49
7.45
10.17
12.47
14.06
14.77
14.59
13.70
12.37
10.86
9.32
7.83
6.47
5.36
4.60
4.23
4.12
4.01
3.60
2.76
1.48
-0.09
-1.81
-3.65
-5.61
-7.68
-9.70
-11.41
-12.55
-13.09
-13.23
-13.42
-14.12
-15.63
-18.01
-21.02
-24.29
-27.34
-29.72
-30.99
-30.80
-28.95
-25.45
-20.64
-15.03
-9.30
-4.04
0.34
3.71
6.19
8.02
9.48
10.67
11.55
11.92
11.65
10.78
9.56
8.40
7.61
7.34
7.49
7.88
8.35
8.87
9.52
10.40
11.52
12.85
14.29
15.78
17.24
18.54
19.49
19.87
19.48
18.27
16.35
13.89
11.14
8.24
5.28
2.28
-0.76
-3.86
-6.97
-9.95
-12.58
-14.58
-15.64
-15.53
-14.09
-11.25
-7.16
-2.24
2.85
7.23
10.09
10.87
9.55
6.56
2.65
-1.38
-4.88
-7.46
-8.97
-9.44
-9.06
-8.11
-6.94
-5.88
-5.08
-4.41
-3.58
-2.27
-0.28
2.22
4.80
6.88
7.96
7.80
6.55
4.57
2.32
0.10
-1.97
-3.92
-5.81
-7.58
-9.13
-10.49
-11.87
-13.71
-16.35
-19.86
-23.80
-27.32
-29.38
-29.21
-26.53
-21.72
-15.62
-9.28
-3.63
0.71
3.54
4.97
5.33
5.04
4.55
4.22
4.31
4.91
5.93
7.09
8.10
8.72
8.88
8.70
8.37
7.98
7.53
6.95
6.21
5.42
4.76
4.36
4.15
3.88
3.19
1.89
0.05
-1.96
-3.68
-4.77
-5.21
-5.30
-5.53
-6.36
-8.02
-10.51
-13.54
-16.63
-19.28
-20.93
-21.18
-19.81
-16.89
-12.75
-7.90
-2.84
2.11
6.84
11.41
15.89
20.16
23.96
26.94
28.82
29.50
29.12
27.93
26.24
24.31
22.32
20.36
18.48
16.66
14.86
13.07
11.32
9.70
8.25
6.91
5.56
3.99
2.12
-0.04
-2.27
-4.39
-6.27
-7.98
-9.70
-11.63
-13.84
-16.31
-18.89
-21.52
-24.21
-27.06
-30.05
-32.96
-35.30
-36.43
-35.82
-33.27
-28.97
-23.50
-17.60
-11.93
-6.98
-3.01
-0.11
1.68
2.42
2.25
1.46
0.43
-0.40
-0.66
-0.15
1.16
3.09
5.30
7.39
9.02
9.94
10.09
9.61
8.69
7.58
6.37
5.06
3.50
1.54
-0.88
-3.66
-6.55
-9.34
-11.87
-14.20
-16.44
-18.72
-21.06
-23.37
-25.54
-27.55
-29.44
-31.20
-32.67
-33.44
-32.95
-30.72
-26.57
-20.77
-14.04
-7.31
-1.46
2.90
5.57
6.68
6.58
5.71
4.47
3.20
2.18
1.60
1.54
1.91
2.44
2.71
2.35
1.17
-0.71
-2.87
-4.79
-6.01
-6.38
-6.08
-5.54
-5.26
-5.62
-6.74
-8.51
-10.65
-12.84
-14.83
-16.54
-18.07
-19.59
-21.28
-23.24
-25.44
-27.68
-29.69
-31.10
-31.46
-30.32
-27.33
-22.40
-15.81
-8.23
-0.53
6.43
12.07
16.20
19.00
20.80
22.00
22.85
23.51
24.07
24.56
24.97
25.24
25.28
25.01
24.45
23.68
22.92
22.34
22.07
22.06
22.12
21.91
21.11
19.43
16.74
13.11
8.75
4.07
-0.52
-4.68
-8.26
-11.37
-14.35
-17.64
-21.56
-26.13
-31.02
-35.58
-38.99
-40.54
-39.76
-36.56
-31.23
-24.38
-16.76
-9.11
-2.03
4.10
9.11
12.99
15.85
17.90
19.44
20.83
22.42
24.41
26.78
29.30
31.61
33.43
34.64
35.28
35.54
35.56
35.42
35.07
34.40
33.30
31.73
29.71
27.31
24.61
21.61
18.29
14.58
10.42
5.78
0.64
-4.98
-11.05
-17.51
-24.18
-30.70
-36.47
-40.74
-42.85
-42.38
-39.43
-34.51
-28.45
-22.10
-16.12
-10.87
-6.48
-2.89
-0.05
2.06
3.42
4.00
3.85
3.08
1.85
0.33
-1.33
-3.03
-4.71
-6.33
-7.83
-9.11
-10.05
-10.59
-10.73
-10.57
-10.27
-10.00
-9.88
-9.92
-10.07
-10.19
-10.24
-10.20
-10.20
-10.47
-11.33
-13.04
-15.70
-19.08
-22.61
-25.46
-26.80
-26.02
-23.01
-18.09
-11.92
-5.25
1.33
7.42
12.81
17.41
21.13
23.94
25.92
27.24
28.14
28.83
29.44
30.01
30.62
31.35
32.37
33.82
35.76
38.05
40.35
42.26
43.38
43.47
42.44
40.41
37.57
34.19
30.47
26.58
22.60
18.54
14.36
9.98
5.30
0.17
-5.52
-11.71
-18.11
-24.06
-28.69
-31.13
-30.84
-27.82
-22.59
-16.01
-8.98
-2.13
4.25
10.08
15.31
19.85
23.51
26.05
27.40
27.62
26.98
25.81
24.49
23.32
22.42
21.76
21.17
20.51
19.71
18.82
17.98
17.30
16.74
16.14
15.20
13.70
11.56
8.91
6.03
3.21
0.66
-1.59
-3.65
-5.80
-8.34
-11.55
-15.53
-20.10
-24.80
-28.92
-31.66
-32.33
-30.54
-26.30
-20.07
-12.56
-4.58
3.16
10.13
16.06
20.88
24.62
27.36
29.25
30.40
30.99
31.20
31.22
31.21
31.32
31.62
32.11
32.71
33.24
33.53
33.46
33.01
32.25
31.27
30.11
28.73
27.05
25.04
22.77
20.38
18.02
15.69
13.27
10.48
7.06
2.91
-1.93
-7.28
-12.89
-18.46
-23.60
-27.84
-30.64
-31.52
-30.28
-27.10
-22.49
-17.11
-11.57
-6.28
-1.44
2.81
6.34
8.93
10.39
10.69
10.05
8.81
7.37
6.05
5.00
4.24
3.70
3.31
2.98
2.64
2.21
1.67
0.97
0.08
-1.01
-2.36
-3.97
-5.83
-7.83
-9.85
-11.71
-13.31
-14.60
-15.63
-16.51
-17.42
-18.57
-20.14
-22.22
-24.68
-27.18
-29.12
-29.84
-28.78
-25.71
-20.76
-14.41
-7.31
-0.07
6.91
13.43
19.47
25.02
29.98
34.18
37.38
39.41
40.22
39.95
38.87
37.32
35.60
33.90
32.27
30.62
28.80
26.64
24.03
20.95
17.51
13.92
10.46
7.34
4.62
2.16
-0.35
-3.26
-6.74
-10.64
-14.57
-18.04
-20.67
-22.40
-23.50
-24.43
-25.69
-27.56
-30.02
-32.78
-35.30
-36.98
-37.33
-36.05
-33.10
-28.72
-23.30
-17.34
-11.31
-5.59
-0.49
3.80
7.14
9.55
11.10
11.92
12.15
11.87
11.14
10.05
8.79
7.65
6.91
6.71
6.98
7.45
7.80
7.84
7.58
7.16
6.72
6.30
5.79
5.05
4.00
2.75
1.46
0.29
-0.72
-1.66
-2.73
-4.19
-6.18
-8.79
-12.07
-15.95
-20.33
-24.97
-29.45
-33.16
-35.48
-35.84
-33.99
-30.04
-24.50
-18.13
-11.68
-5.77
-0.75
3.29
6.36
8.52
9.83
10.35
10.24
9.69
8.95
8.22
7.62
7.17
6.78
6.39
5.96
5.47
4.93
4.35
3.70
2.97
2.15
1.23
0.23
-0.86
-2.03
-3.29
-4.60
-5.88
-7.08
-8.16
-9.17
-10.24
-11.56
-13.31
-15.59
-18.36
-21.39
-24.28
-26.50
-27.54
-27.00
-24.70
-20.77
-15.58
-9.64
-3.45
2.55
8.08
12.92
16.90
19.86
21.71
22.44
22.21
21.32
20.14
19.04
18.24
17.83
17.72
17.74
17.67
17.34
16.66
15.71
14.61
13.52
12.49
11.41
10.11
8.36
6.12
3.52
0.86
-1.59
-3.66
-5.43
-7.05
-8.75
-10.71
-13.01
-15.68
-18.69
-21.89
-24.99
-27.47
-28.77
-28.39
-26.13
-22.17
-17.01
-11.31
-5.69
-0.61
3.66
7.03
9.52
11.20
12.19
12.64
12.73
12.63
12.44
12.22
11.94
11.58
11.16
10.72
10.33
10.06
9.98
10.07
10.23
10.30
10.05
9.31
8.03
6.30
4.38
2.56
1.03
-0.15
-1.11
-2.10
-3.37
-5.13
-7.42
-10.16
-13.06
-15.65
-17.33
-17.47
-15.63
-11.80
-6.40
-0.18
5.96
11.31
15.49
18.49
20.46
21.68
22.38
22.70
22.80
22.79
22.79
22.88
23.08
23.40
23.77
24.07
24.12
23.73
22.78
21.32
19.57
17.84
16.35
15.09
13.83
12.22
10.00
7.13
3.81
0.39
-2.81
-5.66
-8.21
-10.70
-13.46
-16.71
-20.50
-24.53
-28.20
-30.76
-31.56
-30.28
-27.12
-22.62
-17.52
-12.45
-7.84
-3.84
-0.54
2.03
3.78
4.62
4.58
3.88
2.86
1.90
1.32
1.22
1.51
2.00
2.49
2.84
3.02
3.07
3.06
2.96
2.70
2.17
1.27
-0.01
-1.61
-3.40
-5.20
-6.90
-8.44
-9.87
-11.30
-12.92
-14.91
-17.33
-20.14
-23.04
-25.60
-27.25
-27.44
-25.85
-22.50
-17.75
-12.27
-6.74
-1.70
2.53
5.86
8.32
9.93
10.73
10.80
10.32
9.57
8.86
8.40
8.23
8.22
8.19
8.00
7.59
7.01
6.37
5.74
5.17
4.59
3.88
2.92
1.57
-0.18
-2.26
-4.49
-6.72
-8.81
-10.76
-12.66
-14.69
-16.99
-19.63
-22.52
-25.34
-27.59
-28.71
-28.23
-25.97
-22.11
-17.14
-11.67
-6.26
-1.29
3.05
6.65
9.44
11.35
12.38
12.67
12.52
12.29
12.24
12.48
12.87
13.21
13.32
13.20
12.98
12.88
13.04
13.45
13.99
14.36
14.33
13.72
12.55
11.01
9.36
7.87
6.70
5.95
5.53
5.19
4.44
2.58
-1.04
-6.68
-13.84
-21.16
-26.72
-28.69
-25.98
-18.69
-8.02
4.16
15.96
26.00
33.49
38.18
40.16
39.69
37.18
33.29
28.89
24.93
22.25
21.30
22.00
23.86
26.10
28.02
29.13
29.24
28.40
26.72
24.33
21.29
17.61
13.36
8.61
3.47
-1.92
-7.42
-12.91
-18.23
-23.27
-27.92
-32.08
-35.63
-38.44
-40.29
-41.00
-40.45
-38.65
-35.81
-32.26
-28.35
-24.26
-19.90
-15.05
-9.54
-3.48
2.71
8.36
12.90
15.99
17.59
17.97
17.52
16.85
16.76
18.17
21.82
27.88
35.73
44.18
51.93
58.09
62.34
64.49
63.97
59.51
49.53
33.10
10.87
-14.60
-39.54
-60.27
-74.52
-82.17
-84.87
-85.08
-84.93
-85.52
-86.78
-88.05
-88.63
-88.23
-87.00
-85.19
-82.81
-79.46
-74.56
-67.70
-59.17
-49.99
-41.55
-34.91
-30.20
-26.38
-21.66
-14.31
-3.38
10.87
27.11
43.47
58.11
69.67
77.28
80.61
79.65
74.72
66.47
55.94
44.46
33.39
23.86
16.51
11.37
7.96
5.55
3.37
0.80
-2.55
-6.82
-11.83
-16.99
-21.23
-23.21
-21.62
-15.83
-6.44
4.77
15.15
22.13
24.13
21.08
14.33
6.07
-1.43
-6.50
-8.32
-6.87
-2.70
3.30
10.06
16.46
21.58
24.86
26.27
26.20
25.19
23.60
21.35
18.07
13.41
7.40
0.49
-6.51
-12.90
-18.33
-22.91
-26.96
-30.84
-34.63
-38.24
-41.57
-44.72
-47.94
-51.56
-55.70
-60.24
-64.86
-69.13
-72.62
-74.91
-75.44
-73.68
-69.18
-61.94
-52.46
-41.65
-30.58
-20.10
-10.73
-2.59
4.24
9.75
13.93
16.92
19.17
21.35
24.14
27.82
32.14
36.36
39.61
41.21
40.95
39.10
36.19
32.77
29.24
25.81
22.52
19.38
16.42
13.68
11.20
8.94
6.81
4.65
2.30
-0.43
-3.65
-7.38
-11.48
-15.66
-19.54
-22.77
-25.08
-26.32
-26.44
-25.35
-23.02
-19.41
-14.65
-9.02
-2.92
3.20
8.96
14.09
18.43
21.87
24.28
25.63
25.93
25.31
24.00
22.31
20.54
18.93
17.54
16.28
14.95
13.37
11.54
9.71
8.33
7.80
8.22
9.20
10.00
9.84
8.30
5.51
2.10
-1.15
-3.65
-5.24
-6.15
-6.77
-7.47
-8.50
-10.02
-12.19
-15.10
-18.61
-22.20
-24.97
-25.88
-24.17
-19.66
-12.98
-5.36
1.78
7.27
10.50
11.44
10.48
8.16
4.96
1.19
-2.90
-7.02
-10.83
-14.05
-16.53
-18.43
-20.13
-22.06
-24.51
-27.42
-30.41
-32.92
-34.45
-34.75
-33.86
-32.11
-29.81
-27.31
-24.78
-22.25
-19.57
-16.42
-12.27
-6.59
1.05
10.79
22.26
34.74
47.30
59.08
69.50
78.35
85.65
91.63
96.62
101.01
105.31
110.07
115.83
122.83
130.81
139.07
146.54
152.15
155.03
154.53
150.12
141.29
127.55
108.86
85.93
60.43
34.75
11.34
-8.06
-22.91
-33.83
-42.10
-49.04
-55.47
-61.65
-67.52
-72.99
-78.09
-82.87
-87.14
-90.35
-91.62
-90.21
-85.92
-79.32
-71.56
-63.90
-57.03
-50.85
-44.66
-37.71
-29.76
-21.35
-13.62
-7.83
-4.90
-4.99
-7.61
-11.77
-16.35
-20.33
-22.98
-23.94
-23.20
-21.05
-18.07
-14.96
-12.46
-11.02
-10.60
-10.53
-9.67
-6.91
-1.70
5.70
14.34
23.12
31.37
39.03
46.44
53.81
60.81
66.66
70.54
72.10
71.62
69.67
66.60
62.23
56.10
47.98
38.32
28.05
17.80
7.15
-5.33
-21.26
-41.12
-63.48
-85.36
-103.54
-116.06
-123.04
-126.18
-127.62
-128.55
-128.79
-127.26
-123.01
-115.96
-107.13
-98.06
-90.08
-83.89
-79.49
-76.45
-74.25
-72.49
-70.93
-69.43
-67.75
-65.43
-61.98
-57.00
-50.47
-42.86
-35.04
-27.93
-22.20
-18.04
-15.09
-12.67
-9.86
-5.69
0.89
10.73
24.30
41.27
60.44
80.00
98.09
113.55
126.12
136.27
144.39
150.23
152.57
149.74
140.41
124.35
102.67
77.42
50.92
25.23
1.92
-17.76
-32.98
-43.61
-50.55
-55.78
-61.63
-69.54
-78.91
-87.02
-90.08
-85.09
-71.43
-51.22
-28.36
-6.72
11.16
24.52
33.65
38.98
40.41
37.73
31.15
21.79
11.49
1.98
-5.76
-11.95
-17.62
-23.95
-31.61
-40.39
-49.27
-56.81
-61.58
-62.63
-59.73
-53.62
-45.91
-38.67
-33.68
-31.72
-32.11
-32.86
-31.58
-26.52
-17.43
-5.67
6.41
16.59
23.67
27.75
29.88
31.33
32.84
34.41
35.60
36.00
35.63
35.02
34.93
35.89
37.91
40.47
42.80
44.24
44.57
43.99
42.87
41.53
40.03
38.21
35.88
33.08
30.04
27.15
24.74
22.87
21.43
20.17
18.77
17.01
14.67
11.63
7.91
3.73
-0.43
-4.08
-6.85
-8.76
-10.24
-11.89
-14.27
-17.53
-21.34
-25.00
-27.68
-28.71
-27.77
-24.91
-20.54
-15.20
-9.51
-3.95
1.15
5.67
9.64
13.13
16.22
18.92
21.19
23.02
24.40
25.37
26.03
26.46
26.75
26.97
27.18
27.40
27.59
27.58
27.13
26.08
24.38
22.13
19.53
16.77
13.97
11.25
8.76
6.69
5.22
4.30
3.60
2.55
0.66
-2.34
-6.27
-10.67
-14.99
-18.77
-21.71
-23.60
-24.21
-23.30
-20.77
-16.81
-11.96
-7.01
-2.72
0.42
2.34
3.27
3.61
3.67
3.55
3.19
2.47
1.41
0.18
-0.92
-1.56
-1.56
-0.97
-0.01
1.03
1.95
2.68
3.27
3.76
4.08
4.05
3.43
2.17
0.44
-1.32
-2.64
-3.28
-3.31
-3.20
-3.53
-4.78
-7.10
-10.26
-13.75
-16.97
-19.42
-20.73
-20.72
-19.37
-16.77
-13.09
-8.60
-3.53
1.91
7.52
13.06
18.23
22.66
26.08
28.41
29.93
31.04
32.24
33.78
35.58
37.32
38.61
39.26
39.33
39.14
39.05
39.31
39.98
40.95
41.90
42.40
41.89
39.73
35.43
28.92
20.79
12.27
4.93
0.10
-1.69
-0.90
1.26
3.42
4.77
5.31
5.79
7.11
9.81
13.70
18.04
21.92
24.69
26.20
26.65
26.41
25.79
24.98
24.19
23.74
24.07
25.58
28.42
32.35
36.90
41.57
46.07
50.40
54.69
58.91
62.68
65.35
66.20
64.76
60.88
54.68
46.39
36.46
25.88
16.34
9.88
7.81
9.48
11.81
10.15
0.40
-18.93
-45.66
-74.86
-101.06
-120.47
-132.01
-136.72
-136.22
-131.38
-122.32
-109.13
-92.89
-75.88
-60.82
-49.74
-43.22
-40.38
-39.73
-40.14
-41.25
-43.44
-47.11
-52.15
-57.80
-62.92
-66.57
-68.42
-68.81
-68.50
-68.35
-69.05
-71.16
-75.04
-80.76
-87.87
-95.29
-101.42
-104.73
-104.48
-101.30
-96.96
-93.65
-92.83
-94.60
-97.74
-100.41
-101.09
-99.16
-94.79
-88.50
-80.66
-71.33
-60.35
-47.52
-32.24
-13.10
12.18
45.95
88.73
137.48
184.95
221.24
237.26
228.76
198.89
157.61
117.89
90.45
79.65
82.60
91.77
99.24
100.41
94.98
85.51
74.81
64.24
53.73
43.01
32.91
25.48
22.89
25.88
33.02
41.14
46.62
46.66
40.06
27.54
11.57
-4.14
-15.54
-19.57
-15.49
-5.51
6.03
14.43
16.89
13.62
7.39
1.60
-1.63
-2.37
-2.35
-3.33
-5.67
-7.90
-7.63
-3.08
5.78
16.98
27.57
34.93
37.85
36.69
32.82
27.65
21.97
15.83
8.87
0.81
-8.28
-17.91
-27.34
-35.68
-42.08
-45.73
-46.08
-43.18
-37.89
-31.80
-26.59
-23.25
-21.60
-20.57
-19.11
-17.08
-15.40
-15.38
-17.61
-21.10
-23.59
-22.72
-17.41
-8.64
1.01
8.77
13.10
14.27
14.00
14.34
16.73
21.44
27.79
34.78
41.78
48.86
56.75
66.17
77.10
88.08
96.24
98.20
91.55
76.21
54.73
31.49
10.97
-3.70
-11.38
-12.49
-8.19
0.27
11.58
24.12
35.93
45.16
50.73
52.87
53.13
53.47
55.42
59.45
64.88
70.57
75.48
79.15
81.80
84.17
87.11
91.19
96.47
102.30
107.53
110.79
110.81
106.75
98.48
86.83
73.50
60.87
51.30
46.14
44.89
44.79
41.36
29.80
6.98
-26.79
-67.31
-107.92
-142.23
-166.83
-182.84
-195.15
-210.00
-231.97
-261.88
-296.24
-328.62
-351.85
-359.96
-349.38
-319.13
-270.69
-207.64
-135.40
-60.84
8.60
65.99
106.16
126.51
127.53
112.68
87.41
57.68
28.42
2.30
-20.34
-40.64
-59.85
-78.10
-94.07
-105.60
-110.70
-108.34
-98.58
-82.11
-59.78
-32.39
-1.00
32.78
66.73
98.52
126.38
149.50
168.02
182.52
193.61
201.67
206.86
209.31
209.41
207.92
206.16
205.80
208.47
215.02
224.67
234.68
240.67
237.92
222.99
195.02
156.09
110.53
63.50
19.50
-18.63
-50.13
-75.94
-98.09
-118.96
-140.43
-163.29
-186.79
-208.65
-225.89
-236.00
-238.31
-234.48
-228.13
-223.20
-222.02
-224.11
-226.74
-226.66
-222.08
-213.30
-201.93
-189.39
-175.67
-159.58
-140.11
-117.87
-95.51
-76.82
-64.73
-59.94
-60.59
-63.35
-65.08
-64.02
-59.79
-52.51
-41.82
-26.59
-5.45
22.24
55.48
91.34
125.39
152.74
169.20
172.00
160.12
134.28
96.80
51.56
3.85
-40.00
-73.59
-91.79
-92.25
-76.15
-47.96
-14.08
19.12
46.97
67.32
80.22
86.75
87.78
83.57
74.14
60.46
44.94
31.14
22.30
19.91
23.11
29.20
35.09
38.69
39.56
38.36
36.07
33.09
29.36
24.91
20.52
18.12
20.34
29.64
47.40
73.42
105.81
141.19
174.99
202.07
217.65
218.45
203.51
174.35
134.21
86.74
34.87
-19.56
-75.35
-130.83
-183.29
-228.98
-264.29
-287.02
-297.29
-297.54
-291.52
-283.08
-275.05
-268.51
-262.76
-255.60
-244.19
-225.96
-199.59
-165.63
-126.57
-86.25
-48.70
-16.98
7.66
25.96
40.13
53.01
67.15
84.02
103.36
122.92
138.90
147.16
144.71
131.28
109.68
85.02
62.60
45.51
33.19
21.68
5.67
-18.52
-50.70
-86.62
-119.78
-144.42
-157.85
-161.24
-158.26
-152.73
-146.58
-139.08
-127.73
-110.00
-85.02
-54.25
-21.15
10.13
36.15
55.14
67.26
74.13
78.34
82.92
91.02
105.47
128.22
159.28
195.91
232.50
261.56
275.78
270.34
244.57
202.68
152.74
104.50
66.73
44.81
39.32
46.12
58.01
67.28
68.26
58.76
39.91
14.86
-12.69
-39.71
-64.12
-84.73
-101.19
-114.13
-125.02
-135.69
-147.36
-159.82
-171.25
-178.91
-180.35
-174.62
-162.73
-147.14
-130.78
-116.17
-104.97
-97.85
-94.82
-95.35
-98.53
-103.09
-107.49
-110.28
-110.53
-108.16
-104.19
-100.21
-97.73
-97.28
-98.10
-98.32
-95.86
-89.18
-77.87
-62.63
-44.85
-26.19
-8.19
7.87
21.05
30.74
36.62
38.62
36.86
31.84
24.60
17.05
11.87
12.07
20.08
36.93
61.86
92.66
126.32
159.80
190.26
215.04
231.75
238.70
235.57
223.99
207.21
189.13
172.81
159.40
147.86
135.58
119.64
97.77
68.76
32.34
-11.07
-60.22
-112.54
-163.70
-208.09
-240.00
-255.41
-253.42
-236.59
-209.90
-178.99
-148.34
-120.37
-95.80
-74.51
-56.53
-42.23
-31.93
-25.25
-20.74
-16.25
-9.59
0.64
14.60
31.29
48.88
65.36
79.01
88.66
93.82
94.62
91.61
85.56
77.38
68.04
58.68
50.58
45.04
42.99
44.70
49.57
56.57
64.56
72.66
80.20
86.48
90.49
91.03
87.10
78.50
66.04
51.51
37.03
24.47
14.99
9.00
6.47
7.25
11.25
18.21
27.38
37.32
46.27
52.88
56.97
59.75
63.14
68.70
76.38
84.20
88.95
87.61
78.76
63.23
43.58
22.96
3.97
-11.86
-24.09
-32.99
-39.24
-43.73
-47.26
-49.98
-51.04
-48.70
-41.23
-28.26
-11.73
4.29
14.98
16.76
8.83
-6.79
-26.41
-46.44
-64.51
-79.62
-91.48
-99.72
-103.59
-102.20
-95.10
-82.66
-66.19
-47.84
-30.29
-16.66
-10.07
-13.02
-26.84
-50.75
-81.47
-113.66
-141.31
-159.61
-166.66
-163.94
-155.36
-145.41
-137.09
-130.93
-125.27
-117.61
-105.73
-88.38
-65.03
-35.42
0.32
41.10
84.16
125.03
158.40
179.82
187.12
181.00
164.64
142.29
118.02
94.78
74.17
56.81
42.84
32.42
25.94
23.98
26.99
35.07
47.78
64.26
83.25
103.43
123.40
141.81
157.48
169.59
177.88
182.82
185.57
187.56
190.14
193.94
198.70
203.31
206.30
206.53
203.67
198.32
191.55
184.23
176.31
166.70
153.91
137.07
116.95
96.06
77.84
65.19
58.98
57.39
56.48
51.68
39.69
19.84
-5.48
-31.72
-54.05
-69.28
-77.21
-80.56
-83.81
-91.27
-105.76
-127.74
-155.43
-185.11
-211.60
-228.92
-231.47
-215.99
-183.45
-139.69
-93.78
-54.85
-28.54
-15.29
-11.34
-11.66
-12.96
-15.03
-19.74
-28.97
-42.76
-58.87
-73.77
-84.28
-88.64
-86.80
-79.96
-69.90
-58.72
-48.62
-41.76
-39.64
-42.55
-49.15
-56.86
-62.78
-65.02
-63.67
-60.94
-60.37
-65.40
-77.97
-97.67
-121.81
-146.10
-165.45
-174.71
-169.63
-148.03
-111.17
-64.18
-15.21
26.89
55.52
68.35
67.53
58.15
45.91
35.24
28.52
26.48
28.75
34.27
41.39
48.00
52.04
52.34
49.19
44.31
40.07
38.41
40.17
45.00
51.77
59.10
65.75
70.77
73.53
73.73
71.39
66.82
60.48
52.95
44.86
36.91
29.88
24.44
20.94
19.28
18.88
18.89
18.55
17.45
15.65
13.52
11.52
9.82
8.19
5.99
2.40
-3.15
-10.53
-18.82
-26.45
-31.70
-33.34
-31.04
-25.38
-17.53
-8.62
0.60
9.82
18.89
27.44
34.75
39.96
42.49
42.42
40.56
38.13
36.20
35.32
35.30
35.50
35.23
34.08
32.09
29.60
26.97
24.32
21.53
18.34
14.62
10.44
6.16
2.15
-1.38
-4.57
-7.91
-11.98
-17.13
-23.15
-29.22
-34.06
-36.40
-35.38
-30.81
-23.29
-13.95
-4.05
5.31
13.43
20.00
25.00
28.57
30.87
32.01
32.08
31.19
29.58
27.56
25.56
23.91
22.77
22.04
21.43
20.55
19.12
17.04
14.38
11.31
8.02
4.61
1.13
-2.38
-5.88
-9.25
-12.43
-15.47
-18.59
-22.10
-26.27
-30.98
-35.64
-39.18
-40.47
-38.64
-33.61
-26.00
-16.97
-7.75
0.81
8.36
14.83
20.31
24.73
27.94
29.82
30.43
30.09
29.26
28.30
27.39
26.53
25.55
24.37
22.98
21.52
20.13
18.85
17.59
16.17
14.39
12.09
9.30
6.15
2.86
-0.40
-3.56
-6.72
-10.14
-14.14
-18.94
-24.44
-30.15
-35.15
-38.38
-38.87
-36.18
-30.42
-22.29
-12.79
-2.97
6.37
14.67
21.70
27.39
31.89
35.42
38.27
40.63
42.56
43.96
44.69
44.74
44.30
43.79
43.71
44.42
45.98
48.17
50.53
52.61
54.06
54.73
54.73
54.36
54.06
54.40
55.89
58.74
62.53
65.95
66.94
63.34
53.78
38.51
19.50
-0.14
-17.28
-29.72
-36.61
-38.22
-35.32
-28.73
-19.18
-7.60
4.61
15.78
24.32
29.37
31.11
30.60
29.33
28.51
28.74
29.91
31.49
32.96
34.24
35.91
38.92
44.14
51.72
60.79
69.64
76.29
79.23
77.92
72.78
64.83
55.08
44.18
32.30
19.39
5.38
-9.82
-26.45
-44.95
-65.53
-87.46
-108.60
-125.60
-135.15
-135.52
-127.60
-114.50
-99.99
-86.59
-74.38
-61.42
-45.46
-25.81
-4.31
15.41
29.58
36.14
35.55
30.29
23.60
17.95
14.23
11.82
9.16
4.46
-3.78
-16.83
-35.70
-60.92
-91.81
-125.76
-158.03
-182.92
-195.87
-195.73
-185.68
-172.00
-161.20
-156.96
-158.68
-162.41
-163.58
-159.67
-151.20
-140.63
-130.09
-119.67
-107.39
-90.63
-68.22
-41.36
-13.21
12.65
33.57
48.49
57.64
61.76
61.54
57.58
50.63
41.96
33.30
26.39
22.25
20.76
20.43
18.97
14.17
5.04
-7.36
-19.85
-28.06
-28.16
-18.73
-1.82
17.51
33.13
40.40
38.18
29.34
19.41
14.01
16.43
26.28
40.08
53.14
61.65
64.14
61.59
56.76
52.73
51.61
53.59
57.06
59.55
59.19
55.86
51.10
46.82
43.67
40.07
32.85
19.31
-0.59
-23.60
-44.50
-58.89
-65.57
-67.19
-68.58
-73.96
-84.70
-98.86
-112.57
-121.82
-124.11
-118.86
-106.96
-89.97
-69.42
-46.59
-22.48
2.10
26.32
49.28
69.97
87.48
101.17
110.84
116.80
119.68
120.09
118.33
114.28
107.56
98.09
86.35
73.44
60.51
48.23
36.76
26.28
17.63
12.53
12.87
19.38
30.65
43.16
52.55
55.63
51.85
43.40
33.83
26.08
21.08
17.68
13.87
8.20
0.70
-7.32
-14.23
-19.04
-22.05
-24.64
-28.63
-35.43
-45.38
-57.49
-69.73
-79.64
-85.12
-85.10
-79.98
-71.51
-62.14
-54.18
-48.94
-46.36
-45.14
-43.40
-39.40
-32.02
-20.93
-6.42
10.72
29.38
48.26
66.19
82.57
97.46
111.31
124.23
135.05
141.13
138.92
125.50
100.19
65.48
26.63
-9.89
-38.52
-56.27
-63.10
-61.19
-53.60
-43.18
-31.99
-21.52
-12.85
-6.75
-3.43
-2.29
-2.08
-1.55
-0.35
0.51
-1.03
-7.02
-18.30
-33.88
-51.18
-67.14
-79.39
-86.96
-90.19
-90.21
-88.16
-84.78
-80.40
-75.18
-69.34
-63.21
-57.19
-51.64
-46.79
-42.81
-39.71
-37.37
-35.46
-33.52
-31.04
-27.62
-23.14
-17.88
-12.56
-8.29
-6.40
-8.08
-14.00
-23.81
-36.02
-48.17
-57.45
-61.56
-59.44
-51.54
-39.62
-26.20
-13.76
-4.29
1.05
1.98
-1.06
-6.92
-13.95
-20.17
-23.65
-23.02
-17.90
-9.11
1.59
11.93
19.91
24.28
24.88
22.58
18.89
15.46
13.57
13.91
16.51
20.86
26.30
32.25
38.39
44.66
51.02
57.21
62.61
66.39
67.85
66.98
64.66
62.73
63.36
68.36
78.43
92.86
109.73
126.48
140.67
150.49
155.06
154.53
149.89
142.79
135.22
129.02
125.21
123.35
121.18
114.99
100.74
75.67
39.68
-4.23
-50.63
-93.33
-127.13
-148.99
-158.01
-155.01
-141.73
-120.48
-94.04
-65.81
-39.74
-19.78
-9.04
-8.59
-16.99
-30.41
-43.80
-52.60
-54.45
-49.90
-41.69
-33.18
-26.33
-20.67
-13.69
-2.58
13.68
33.01
50.57
60.54
58.25
41.94
13.17
-23.75
-63.20
-99.92
-129.98
-151.26
-163.32
-167.01
-163.98
-156.40
-146.69
-137.15
-129.34
-123.51
-118.49
-112.10
-102.26
-88.03
-70.22
-51.15
-33.80
-20.61
-12.72
-9.88
-10.90
-14.37
-18.95
-23.46
-26.64
-27.08
-23.44
-14.97
-1.92
14.32
31.61
47.74
61.18
71.49
79.30
85.81
92.14
98.92
106.07
113.14
119.73
125.73
131.42
137.29
143.87
151.59
160.85
171.85
184.56
198.50
212.64
225.68
236.40
244.10
248.65
250.01
247.66
240.16
225.43
201.54
167.64
124.34
73.40
17.06
-42.40
-102.63
-160.79
-213.29
-256.32
-286.84
-303.58
-307.33
-300.36
-285.41
-264.91
-240.97
-215.74
-191.70
-171.30
-156.15
-146.23
-139.89
-134.55
-127.94
-118.79
-106.78
-91.93
-74.11
-52.96
-28.52
-1.77
25.02
48.92
67.25
78.50
82.77
81.50
76.85
70.90
65.18
60.54
57.21
55.00
53.47
51.99
49.84
46.32
40.97
33.74
25.24
16.67
9.55
5.28
4.55
7.11
11.84
17.24
22.09
25.77
28.44
30.65
33.03
35.92
39.30
42.91
46.39
49.43
51.74
53.12
53.55
53.17
52.27
51.20
50.19
49.21
48.06
46.52
44.52
42.32
40.27
38.64
37.37
36.12
34.38
31.77
28.16
23.57
17.95
11.10
2.74
-7.11
-17.85
-28.30
-37.01
-42.81
-45.34
-45.15
-43.48
-41.59
-40.35
-39.96
-40.09
-40.16
-39.71
-38.48
-36.51
-34.04
-31.40
-28.97
-27.04
-25.71
-24.83
-24.05
-22.97
-21.31
-19.06
-16.53
-14.21
-12.67
-12.41
-13.74
-16.77
-21.28
-26.76
-32.39
-37.23
-40.35
-41.17
-39.56
-36.01
-31.38
-26.75
-23.06
-20.83
-20.07
-20.29
-20.72
-20.50
-18.91
-15.47
-10.09
-3.03
5.14
13.61
21.61
28.52
33.99
37.90
40.24
41.02
40.32
38.37
35.63
32.69
30.05
27.98
26.42
25.15
24.03
23.04
22.29
21.73
21.04
19.64
16.90
12.50
6.60
-0.07
-6.54
-11.85
-15.59
-18.05
-20.29
-23.73
-29.49
-37.91
-48.14
-58.38
-66.45
-70.60
-70.07
-65.21
-57.27
-47.81
-38.23
-29.53
-22.26
-16.64
-12.67
-10.22
-8.93
-8.29
-7.68
-6.61
-4.90
-2.70
-0.52
1.11
1.88
1.86
1.45
1.15
1.25
1.66
1.89
1.27
-0.75
-4.37
-9.40
-15.28
-21.23
-26.49
-30.42
-32.66
-33.20
-32.29
-30.45
-28.20
-25.92
-23.66
-21.23
-18.27
-14.50
-9.82
-4.31
1.79
8.24
14.81
21.23
27.23
32.41
36.39
38.83
39.54
38.57
36.29
33.36
30.67
29.11
29.32
31.39
34.77
38.44
41.21
42.14
40.83
37.50
32.79
27.51
22.37
17.79
13.93
10.62
7.47
3.92
-0.57
-6.34
-13.35
-21.14
-28.92
-35.90
-41.57
-45.86
-49.05
-51.48
-53.33
-54.41
-54.21
-52.04
-47.19
-39.02
-27.27
-12.11
5.57
24.25
42.17
57.96
71.13
82.29
92.82
104.05
116.50
129.48
141.08
148.78
150.33
144.89
133.88
121.16
112.14
112.06
123.67
145.50
171.83
194.29
204.88
198.73
175.39
138.07
91.43
39.33
-15.99
-73.33
-131.16
-186.74
-236.24
-275.85
-302.82
-315.83
-314.68
-299.55
-270.62
-228.46
-174.88
-113.42
-49.22
11.89
64.80
106.36
135.83
154.50
164.86
169.39
169.99
167.76
163.30
157.31
150.76
144.62
139.37
134.75
129.97
124.25
117.24
109.06
99.81
89.24
76.91
62.94
48.55
35.81
26.48
20.49
15.53
7.89
-5.58
-25.65
-50.38
-76.29
-100.26
-120.76
-137.89
-152.18
-163.50
-170.81
-172.97
-169.91
-163.18
-155.40
-149.08
-145.50
-144.34
-143.90
-141.48
-133.60
-116.21
-85.60
-40.27
17.13
78.83
133.35
168.84
177.17
156.37
110.54
47.40
-24.78
-98.91
-169.13
-229.84
-275.33
-300.74
-304.16
-287.98
-258.48
-223.39
-188.86
-157.51
-128.75
-100.68
-72.09
-43.58
-17.10
5.42
23.14
36.69
47.57
57.52
67.97
79.97
94.33
111.66
132.16
155.19
179.15
201.72
220.51
233.73
240.73
242.02
239.02
233.56
227.33
221.74
217.81
216.32
217.74
221.86
227.21
230.82
228.58
216.25
190.88
151.78
100.43
39.74
-27.06
-96.78
-166.01
-230.74
-286.33
-328.53
-354.83
-365.60
-364.04
-355.14
-343.94
-334.20
-327.68
-324.24
-322.20
-318.83
-310.89
-295.20
-269.43
-232.78
-186.07
-131.29
-70.80
-6.91
57.96
120.85
177.93
225.03
258.81
278.01
284.09
280.64
272.01
261.73
251.70
242.28
233.21
224.36
215.83
207.31
197.32
182.79
159.72
124.61
76.06
15.83
-51.08
-117.55
-176.18
-221.15
-249.43
-261.05
-258.28
-244.55
-223.22
-197.14
-168.56
-139.59
-112.38
-88.87
-70.33
-56.86
-47.30
-39.67
-32.01
-23.15
-13.11
-2.89
6.00
12.35
15.69
16.46
15.78
14.89
14.64
15.14
15.88
16.12
15.38
13.85
12.27
11.59
12.41
14.63
17.46
19.79
20.64
19.51
16.56
12.42
8.07
4.59
3.03
4.21
8.45
15.48
24.34
33.70
42.33
49.60
55.78
61.85
69.14
78.57
90.06
102.32
112.99
119.28
118.97
111.51
98.81
85.13
75.91
75.64
86.02
105.26
129.06
152.66
172.62
187.57
197.53
202.73
202.79
196.97
184.90
167.23
145.41
120.90
94.33
65.50
34.08
0.56
-33.39
-65.62
-94.62
-120.42
-144.62
-169.48
-196.53
-225.54
-254.16
-278.40
-293.84
-296.98
-286.32
-262.88
-229.76
-191.22
-151.54
-114.19
-81.51
-54.71
-34.11
-19.27
-9.06
-1.81
4.31
10.82
18.32
26.39
33.77
39.00
41.10
39.85
35.67
29.31
21.42
12.35
2.28
-8.54
-19.63
-30.19
-39.22
-45.76
-49.10
-48.99
-45.60
-39.52
-31.59
-22.73
-13.79
-5.49
1.68
7.43
11.74
14.70
16.50
17.28
17.08
15.94
13.96
11.49
9.06
7.23
6.30
6.17
6.38
6.37
5.76
4.56
3.09
1.71
0.62
-0.35
-1.58
-3.53
-6.46
-10.40
-15.15
-20.25
-25.15
-29.16
-31.58
-31.88
-29.76
-25.31
-18.96
-11.37
-3.23
4.88
12.52
19.43
25.44
30.43
34.28
36.92
38.34
38.61
37.95
36.61
34.85
32.87
30.77
28.65
26.61
24.81
23.37
22.23
21.19
19.85
17.89
15.18
11.85
8.19
4.49
0.88
-2.70
-6.42
-10.48
-14.91
-19.61
-24.31
-28.58
-31.86
-33.57
-33.17
-30.33
-25.09
-17.89
-9.54
-0.94
7.10
14.11
19.95
24.69
28.45
31.24
32.99
33.62
33.23
32.13
30.74
29.42
28.39
27.65
27.04
26.37
25.49
24.30
22.76
20.84
18.56
15.99
13.27
10.53
7.86
5.26
2.70
0.05
-2.76
-5.88
-9.44
-13.53
-18.09
-22.79
-27.03
-30.04
-31.10
-29.78
-26.04
-20.31
-13.23
-5.52
2.24
9.71
16.67
22.98
28.45
32.86
36.04
37.92
38.62
38.46
37.86
37.26
36.95
37.06
37.54
38.14
38.57
38.53
37.84
36.49
34.64
32.48
30.16
27.69
24.94
21.74
18.00
13.85
9.58
5.53
1.96
-1.03
-3.58
-5.94
-8.40
-11.20
-14.41
-17.88
-21.27
-24.04
-25.60
-25.51
-23.63
-20.15
-15.55
-10.38
-5.11
-0.02
4.77
9.21
13.26
16.85
19.98
22.76
25.34
27.92
30.59
33.35
36.00
38.31
40.04
41.02
41.10
40.20
38.22
35.16
31.07
26.15
20.71
15.11
9.67
4.53
-0.31
-4.95
-9.44
-13.72
-17.62
-20.97
-23.73
-26.12
-28.58
-31.55
-35.23
-39.49
-43.75
-47.16
-48.91
-48.49
-45.81
-41.21
-35.31
-28.81
-22.30
-16.17
-10.63
-5.72
-1.39
2.40
5.69
8.45
10.65
12.31
13.51
14.39
15.09
15.69
16.19
16.48
16.43
15.95
15.07
13.92
12.70
11.63
10.83
10.28
9.81
9.14
8.04
6.36
4.17
1.70
-0.77
-2.99
-4.87
-6.50
-8.06
-9.85
-12.13
-15.03
-18.49
-22.17
-25.51
-27.81
-28.47
-27.14
-23.87
-19.10
-13.45
-7.57
-2.00
2.96
7.19
10.67
13.46
15.59
17.10
18.02
18.40
18.26
17.70
16.87
15.92
15.01
14.25
13.64
13.14
12.64
12.11
11.55
10.97
10.39
9.74
8.95
7.92
6.65
5.19
3.61
1.92
0.12
-1.86
-4.03
-6.38
-8.80
-11.17
-13.40
-15.49
-17.52
-19.52
-21.45
-23.08
-24.05
-23.95
-22.48
-19.60
-15.55
-10.80
-5.87
-1.19
2.99
6.62
9.71
12.23
14.09
15.16
15.38
14.87
13.90
12.85
12.04
11.61
11.52
11.58
11.56
11.28
10.68
9.80
8.75
7.63
6.52
5.47
4.46
3.46
2.39
1.17
-0.25
-1.85
-3.57
-5.27
-6.82
-8.18
-9.41
-10.72
-12.35
-14.50
-17.18
-20.21
-23.24
-25.82
-27.52
-27.99
-27.02
-24.60
-20.92
-16.38
-11.52
-6.90
-2.92
0.27
2.73
4.68
6.32
7.70
8.77
9.40
9.56
9.34
8.98
8.77
8.89
9.27
9.70
9.82
9.43
8.59
7.64
7.07
7.28
8.28
9.62
10.56
10.33
8.58
5.63
2.37
-0.04
-0.72
0.56
3.21
6.02
7.69
7.35
4.96
1.27
-2.49
-5.17
-6.27
-6.10
-5.60
-5.82
-7.45
-10.47
-14.25
-17.85
-20.22
-20.20
-16.55
-8.12
5.42
22.79
40.94
55.89
64.49
66.28
64.01
62.34
65.30
73.81
84.97
93.44
94.24
85.25
68.04
46.66
25.44
6.98
-8.47
-22.16
-35.36
-48.23
-59.62
-67.83
-71.89
-72.37
-71.32
-71.41
-74.54
-81.03
-89.37
-97.07
-101.90
-102.93
-100.80
-97.08
-93.35
-90.33
-87.61
-84.11
-78.80
-71.36
-62.30
-52.81
-44.07
-36.77
-30.80
-25.32
-19.26
-11.84
-3.00
6.51
15.45
22.57
27.13
29.08
28.95
27.55
25.62
23.60
21.67
19.85
18.12
16.51
15.01
13.56
11.92
9.70
6.44
1.73
-4.69
-12.80
-22.20
-32.05
-41.25
-48.65
-53.36
-55.16
-54.68
-53.28
-52.71
-54.37
-58.76
-65.14
-71.72
-76.26
-76.95
-73.06
-65.10
-54.57
-43.17
-32.29
-22.65
-14.39
-7.24
-0.71
5.87
13.28
22.32
33.38
46.12
59.30
70.94
78.85
81.35
77.84
68.94
56.28
41.96
27.94
15.67
5.93
-0.96
-4.92
-5.89
-3.87
0.91
7.82
15.72
23.33
29.61
34.24
37.74
41.19
45.78
52.22
60.39
69.27
77.18
82.26
82.96
78.59
69.51
57.08
43.14
29.41
16.90
5.83
-4.15
-13.37
-21.75
-28.79
-33.87
-36.83
-38.13
-38.71
-39.41
-40.62
-42.17
-43.67
-44.97
-46.34
-48.40
-51.55
-55.70
-60.10
-63.81
-66.13
-67.03
-67.12
-67.16
-67.52
-67.67
-66.20
-61.37
-51.92
-37.88
-20.80
-3.37
11.62
22.29
28.21
30.24
29.84
28.24
26.03
23.30
20.13
16.97
14.68
14.12
15.66
18.88
22.68
25.79
27.32
27.09
25.65
23.87
22.54
21.97
21.88
21.57
20.21
17.25
12.73
7.39
2.57
-0.08
0.89
6.19
15.41
26.95
38.42
47.24
51.43
50.12
43.61
