1513827030.00
64.000000
-0.00
-0.00
-0.00
-0.00
-0.00
-0.00
-0.00
-0.00
-0.00
-0.00
0.00
0.01
0.01
-0.00
-0.03
-0.05
-0.05
0.00
0.13
0.36
0.66
1.01
1.37
1.72
2.06
2.40
2.79
3.24
3.80
4.42
5.06
5.66
6.20
6.68
7.15
7.68
8.31
9.14
10.09
11.04
11.88
12.56
13.14
13.76
14.65
15.96
17.91
20.32
22.90
25.38
27.58
29.57
31.68
34.32
37.81
42.54
48.15
54.10
59.83
64.97
69.58
74.14
79.34
85.71
93.76
103.00
112.62
121.73
129.77
136.75
143.30
150.75
157.77
166.64
177.95
191.79
206.97
220.57
228.25
225.36
208.53
176.87
132.76
80.05
23.07
-34.94
-92.44
-149.16
-205.23
-260.37
-313.74
-363.87
-409.83
-450.91
-486.50
-515.74
-537.23
-549.22
-549.96
-538.37
-514.21
-478.67
-433.88
-382.45
-327.02
-269.84
-212.63
-156.66
-102.95
-52.37
-5.90
35.58
71.43
101.35
125.50
144.38
158.69
169.15
176.37
180.75
182.57
182.07
179.51
175.23
169.65
163.18
156.15
148.81
141.30
133.69
126.02
118.33
110.69
103.16
95.80
88.68
81.83
75.25
68.95
62.95
57.25
51.86
46.78
42.03
37.59
33.45
29.61
26.07
22.81
19.83
17.11
14.67
12.48
10.54
8.83
7.35
6.07
4.97
4.05
3.27
2.62
2.09
1.65
1.30
1.01
0.79
0.61
0.48
0.37
0.29
0.22
0.18
0.14
0.11
0.09
0.08
0.07
0.06
0.05
0.05
0.04
0.04
0.04
0.03
0.03
0.03
0.03
0.03
0.04
0.05
0.06
0.08
0.10
0.13
0.16
0.20
0.24
0.29
0.33
0.38
0.43
0.48
0.53
0.57
0.62
0.67
0.72
0.78
0.84
0.91
0.99
1.07
1.17
1.29
1.42
1.57
1.73
1.91
2.12
2.35
2.60
2.88
3.18
3.51
3.88
4.27
4.70
5.16
5.66
6.19
6.75
7.36
8.00
8.69
9.41
10.19
11.00
11.87
12.78
13.74
14.76
15.85
17.00
18.21
19.48
20.78
22.07
23.27
24.29
24.99
25.23
24.88
23.79
21.89
19.13
15.53
11.17
6.24
0.95
-4.40
-9.54
-14.14
-17.96
-20.78
-22.48
-23.00
-22.41
-20.87
-18.59
-15.85
-12.91
-10.04
-7.48
-5.35
-3.74
-2.65
-2.04
-1.83
-1.90
-2.09
-2.24
-2.22
-1.91
-1.20
0.02
1.67
3.76
6.29
9.32
12.95
17.24
22.33
28.30
35.28
42.98
51.19
59.68
68.22
76.62
84.74
92.48
99.89
107.18
114.08
120.62
126.95
133.27
139.81
146.69
154.03
161.88
170.34
178.48
186.27
193.45
199.83
205.22
209.18
210.84
208.46
204.81
200.05
194.78
189.13
183.18
176.93
170.19
162.59
153.58
142.69
128.18
110.67
90.52
68.55
45.87
23.33
1.30
-20.58
-42.93
-68.72
-95.46
-122.34
-147.87
-170.42
-188.85
-203.12
-214.57
-225.28
-241.78
-260.06
-280.03
-300.59
-320.15
-337.77
-353.70
-370.01
-389.63
-422.48
-462.93
-512.52
-570.65
-633.47
-693.64
-741.66
-769.95
-774.21
-763.39
-730.97
-683.46
-626.53
-562.47
-489.62
-403.90
-304.55
-138.11
13.61
156.57
282.76
383.98
454.81
494.43
507.00
495.79
466.02
416.15
364.75
317.33
276.48
242.65
215.11
192.10
165.23
126.90
67.15
-3.88
-82.39
-165.16
-250.23
-336.73
-388.25
-383.29
-324.89
-239.78
-144.74
-52.29
31.06
100.49
152.61
187.00
201.18
196.60
176.97
152.34
128.05
106.39
88.37
75.39
69.33
66.34
63.41
58.44
52.76
47.05
41.86
37.86
36.23
38.16
41.47
43.54
43.40
41.34
38.21
34.98
32.95
33.79
39.41
50.38
62.17
72.43
79.79
83.60
83.76
80.85
76.15
71.48
68.59
69.53
77.14
93.19
117.33
146.46
175.56
199.66
215.68
223.39
224.71
222.45
217.91
210.72
199.94
185.60
169.36
153.49
139.33
126.23
112.44
96.23
77.43
57.63
39.12
23.48
10.84
0.54
-8.09
-14.75
-18.98
-21.02
-22.26
-25.16
-32.07
-44.29
-61.49
-81.92
-102.68
-120.29
-131.26
-133.17
-125.98
-112.50
-98.03
-88.37
-87.23
-93.99
-103.42
-107.59
-99.27
-75.44
-38.60
4.36
45.44
78.94
103.11
119.78
132.27
143.49
155.02
167.61
182.07
199.61
221.15
245.88
270.41
289.31
297.05
290.45
270.07
239.82
205.05
170.27
137.36
105.34
71.49
33.39
-9.23
-53.71
-95.10
-128.30
-150.09
-160.58
-162.84
-161.58
-161.12
-163.74
-169.20
-175.26
-178.99
-178.03
-171.51
-160.26
-146.29
-131.90
-118.81
-107.67
-98.11
-89.44
-81.23
-73.74
-67.66
-63.50
-60.96
-58.84
-55.54
-49.95
-42.26
-33.92
-27.19
-24.07
-25.54
-31.35
-40.31
-50.83
-61.30
-70.13
-75.40
-74.91
-66.43
-48.68
-22.38
9.47
41.96
69.81
88.90
97.50
96.22
87.46
74.34
60.02
47.48
39.79
40.07
50.81
73.02
104.99
141.95
176.92
202.74
214.85
212.86
200.40
182.82
164.22
145.57
125.00
99.86
69.19
34.82
0.28
-31.20
-58.37
-81.91
-103.04
-122.12
-138.64
-152.59
-165.60
-180.94
-201.33
-226.33
-251.18
-268.37
-270.99
-256.25
-226.93
-189.92
-153.09
-122.11
-98.98
-82.78
-71.49
-63.75
-59.43
-59.03
-62.59
-68.93
-75.73
-80.30
-80.65
-75.99
-67.02
-55.26
-42.47
-29.79
-17.55
-5.46
6.70
18.24
27.41
31.70
29.16
19.69
5.51
-9.46
-21.15
-27.06
-27.07
-23.15
-17.99
-13.65
-10.69
-8.41
-5.61
-1.37
4.71
12.60
22.34
33.98
47.37
61.76
75.62
87.16
94.79
97.85
96.57
91.81
84.60
75.68
65.48
54.17
42.14
30.14
19.50
11.74
8.38
10.36
17.71
29.48
43.67
57.85
69.46
76.44
77.54
72.56
62.40
48.86
34.45
21.70
12.70
8.36
8.28
10.94
14.37
16.85
17.46
16.17
13.59
10.39
6.91
3.07
-1.42
-6.56
-11.82
-16.19
-18.50
-18.09
-15.22
-11.10
-7.48
-5.98
-7.50
-11.98
-18.65
-26.28
-33.72
-40.19
-45.51
-50.33
-56.07
-64.66
-77.63
-95.32
-116.19
-137.01
-153.80
-163.19
-163.51
-155.16
-140.08
-120.82
-100.00
-79.93
-62.77
-50.42
-44.11
-43.95
-48.51
-55.30
-61.56
-65.45
-66.49
-65.51
-63.69
-61.62
-58.86
-54.06
-45.85
-33.60
-18.05
-1.20
14.36
26.36
33.65
36.46
36.21
34.67
33.13
31.75
29.59
25.15
17.26
6.19
-5.93
-15.15
-16.83
-6.90
16.80
53.79
100.87
152.84
203.78
248.14
281.93
303.10
311.71
309.42
298.70
281.79
259.76
232.51
199.39
160.87
119.89
82.05
54.41
42.90
49.82
72.35
103.19
132.69
151.55
153.38
135.56
98.92
46.69
-16.94
-88.02
-163.67
-242.15
-321.94
-400.31
-472.28
-530.77
-568.44
-580.33
-566.01
-529.93
-479.82
-423.73
-367.45
-313.70
-262.78
-214.39
-168.71
-126.32
-87.06
-49.00
-8.80
36.63
87.87
141.63
191.22
228.84
249.24
252.19
242.74
228.80
217.50
212.18
211.38
210.08
202.64
185.72
159.78
128.44
96.41
67.12
41.34
17.55
-6.86
-33.93
-64.16
-96.41
-128.16
-156.31
-177.83
-190.66
-193.99
-188.30
-175.10
-156.43
-134.12
-109.24
-81.98
-52.23
-20.47
11.80
42.56
70.43
95.83
120.88
147.85
176.70
203.57
221.39
222.89
204.43
168.73
124.99
85.43
60.76
56.47
71.75
101.02
136.83
172.36
202.37
223.10
231.81
227.00
208.85
179.49
142.31
100.60
56.10
8.39
-44.32
-103.50
-168.19
-234.19
-294.63
-342.22
-371.64
-381.13
-372.50
-349.55
-315.66
-272.01
-218.05
-153.77
-82.57
-12.40
46.17
84.50
100.50
100.20
95.20
97.13
112.51
140.72
176.09
211.90
243.59
269.40
288.52
299.29
299.02
285.75
260.57
227.98
193.94
162.70
134.38
104.73
67.17
16.38
-48.61
-122.68
-195.43
-254.18
-288.49
-294.02
-274.30
-239.08
-200.03
-165.77
-139.04
-116.90
-93.76
-65.09
-29.51
11.71
56.87
105.67
158.74
215.50
271.90
320.73
354.12
367.41
361.55
342.14
315.81
286.41
253.51
214.21
166.76
113.01
58.15
7.73
-35.86
-74.70
-114.03
-159.20
-213.10
-275.57
-344.05
-414.50
-481.83
-540.02
-582.64
-604.47
-603.43
-581.69
-545.10
-500.81
-454.70
-409.78
-366.68
-324.71
-283.50
-243.35
-204.67
-167.08
-129.04
-88.47
-43.98
4.14
53.74
101.47
144.15
180.08
209.72
235.42
260.59
288.50
321.37
359.71
402.06
445.05
483.76
512.72
527.25
525.01
506.96
477.23
441.64
405.51
371.74
339.93
306.99
269.03
223.45
170.50
113.56
58.14
10.05
-26.34
-49.05
-58.49
-56.65
-46.20
-30.05
-11.45
5.86
17.77
20.31
10.50
-12.89
-48.72
-93.34
-140.90
-184.17
-216.02
-231.02
-226.78
-203.98
-165.50
-114.84
-55.53
8.46
71.74
126.94
166.00
183.00
177.19
154.57
126.55
106.03
102.67
119.81
154.27
198.87
245.59
288.15
322.54
346.17
356.89
352.57
331.89
295.37
245.88
187.75
125.18
60.92
-3.52
-66.00
-121.87
-163.56
-182.97
-175.27
-142.65
-95.38
-49.07
-18.92
-13.33
-30.33
-58.61
-83.05
-91.52
-80.12
-54.02
-24.07
-1.37
7.29
0.75
-17.92
-44.55
-76.07
-110.68
-146.33
-179.09
-203.21
-213.25
-207.69
-190.66
-171.06
-158.80
-160.10
-174.56
-195.42
-213.06
-218.96
-208.55
-181.69
-141.69
-93.69
-43.67
1.81
36.09
53.53
51.49
31.83
1.04
-31.81
-58.08
-72.02
-71.78
-58.41
-34.76
-4.11
29.89
62.95
89.86
105.24
105.27
89.32
60.94
26.69
-6.05
-31.91
-48.75
-57.29
-59.41
-56.43
-48.73
-36.54
-21.48
-7.10
1.86
1.50
-9.13
-27.13
-46.85
-62.66
-71.54
-74.25
-74.05
-74.17
-75.40
-75.43
-70.51
-58.07
-38.79
-16.41
3.99
18.65
26.64
29.68
30.90
33.06
37.87
46.10
58.20
74.48
94.73
117.52
139.87
157.81
167.69
167.83
159.41
146.10
132.25
120.65
110.94
99.58
81.67
53.56
15.29
-28.86
-71.68
-105.89
-126.89
-133.97
-129.69
-117.63
-100.36
-78.32
-50.46
-15.90
24.60
67.92
109.39
144.33
169.87
185.62
193.28
195.19
192.88
186.63
175.87
160.34
140.87
119.38
97.61
75.92
52.26
22.68
-16.94
-69.04
-133.26
-206.99
-286.35
-367.04
-444.16
-511.39
-561.06
-585.21
-578.14
-538.63
-470.68
-381.96
-280.75
-173.51
-64.29
43.43
144.54
231.14
294.22
327.13
329.04
306.14
269.77
232.27
202.52
183.58
172.76
164.79
154.92
141.06
123.93
105.36
86.34
66.07
42.51
13.97
-19.27
-54.39
-87.51
-115.77
-139.08
-160.22
-182.78
-208.22
-233.75
-252.15
-254.33
-233.04
-186.27
-118.48
-39.22
40.10
109.67
163.42
199.56
219.80
228.02
228.98
227.27
226.46
228.16
231.34
232.44
226.52
209.16
178.64
137.27
91.24
48.79
17.63
2.31
2.82
14.98
32.04
47.10
55.11
53.83
43.80
27.43
8.03
-11.22
-27.78
-40.06
-47.70
-51.45
-53.00
-54.57
-58.44
-66.24
-78.28
-93.15
-107.68
-117.81
-119.91
-112.43
-96.72
-77.12
-59.64
-50.05
-52.01
-66.05
-89.69
-118.20
-145.94
-167.21
-176.85
-170.84
-147.16
-106.72
-53.64
5.45
62.94
112.13
148.75
171.45
181.16
180.08
170.64
155.24
136.18
115.64
95.49
76.86
59.87
43.57
26.31
6.15
-18.67
-49.34
-85.83
-126.19
-166.15
-199.38
-218.49
-216.83
-191.08
-143.24
-81.38
-18.40
31.63
58.36
59.55
42.35
20.24
6.70
8.45
22.19
36.73
39.49
23.39
-9.41
-48.93
-82.59
-101.01
-101.21
-86.10
-61.64
-33.77
-6.87
16.03
32.18
39.01
34.91
20.44
-1.39
-25.79
-47.55
-62.75
-69.28
-66.66
-55.28
-35.91
-9.90
20.53
51.94
80.35
102.60
117.86
127.89
136.09
145.93
159.22
175.51
192.24
205.83
212.83
211.02
200.01
181.17
157.02
129.86
100.99
70.20
36.74
1.01
-34.02
-63.07
-80.61
-83.84
-74.98
-60.89
-50.25
-49.60
-60.27
-78.32
-96.65
-108.84
-112.02
-107.76
-100.34
-93.81
-89.53
-85.64
-78.52
-65.27
-45.64
-22.18
1.01
20.28
33.56
40.37
41.00
35.78
25.34
11.02
-4.65
-18.91
-30.01
-38.56
-47.60
-61.12
-81.86
-109.43
-140.03
-167.58
-185.91
-190.69
-180.52
-156.99
-123.46
-83.88
-41.31
2.36
46.16
89.04
129.15
163.78
190.19
207.00
214.90
216.52
215.09
213.16
211.82
211.13
211.11
212.45
216.29
222.87
230.57
235.81
234.50
224.04
204.37
177.83
147.42
115.21
81.51
45.41
5.99
-36.74
-81.50
-126.06
-167.44
-202.14
-226.32
-236.62
-231.44
-212.16
-183.51
-152.26
-124.72
-104.05
-89.35
-76.62
-61.27
-40.79
-15.85
9.62
31.09
45.52
52.69
54.75
54.90
55.89
58.82
62.89
65.44
64.00
57.84
48.75
40.30
36.10
38.25
46.15
57.00
65.81
68.83
64.99
55.94
44.21
31.41
17.99
3.73
-10.90
-27.52
-45.92
-63.75
-77.82
-86.82
-92.66
-99.18
-109.47
-123.81
-146.30
-177.68
-214.63
-251.47
-284.33
-313.19
-339.93
-365.67
-389.60
-420.74
-465.59
-523.95
-588.25
-648.57
-697.38
-730.50
-746.48
-746.51
-748.45
-768.06
-811.22
-872.58
-943.04
-1016.93
-1092.62
-1169.48
-1156.42
-1000.68
-712.01
-359.67
-21.19
256.94
461.10
597.57
681.77
731.33
747.39
730.04
684.66
623.88
562.00
509.22
470.69
447.77
439.13
429.77
408.36
371.87
326.51
281.92
245.17
219.19
203.76
196.71
188.12
169.85
139.88
102.43
64.32
31.03
5.63
-10.58
-17.30
-17.74
-17.50
-18.32
-18.80
-16.43
-9.55
2.09
17.69
35.78
53.37
67.84
78.16
84.61
88.12
89.49
89.11
86.88
82.43
75.20
64.74
51.21
35.15
17.53
-0.34
-17.09
-31.52
-42.87
-50.87
-55.62
-57.17
-55.61
-50.98
-43.41
-33.46
-22.31
-11.85
-4.29
-1.58
-4.41
-11.97
-21.86
-30.84
-35.93
-35.42
-29.58
-20.38
-10.53
-2.00
4.93
11.89
21.74
36.94
58.17
83.62
109.73
132.66
150.32
163.67
176.47
194.13
221.79
262.74
317.34
382.22
449.92
509.39
547.83
554.38
524.68
464.00
387.02
312.76
256.74
224.19
207.70
190.91
156.14
92.35
-0.37
-111.42
-224.43
-323.47
-397.49
-442.25
-459.37
-454.00
-432.08
-398.82
-358.10
-312.79
-265.70
-219.96
-178.69
-143.94
-115.49
-90.67
-65.30
-35.62
0.04
40.65
83.79
127.37
171.16
216.67
265.35
316.41
365.57
405.96
430.55
435.13
419.68
387.79
344.19
292.30
233.41
168.06
98.88
31.99
-24.42
-63.86
-85.28
-94.24
-100.36
-112.24
-132.94
-158.78
-182.02
-195.86
-198.21
-192.21
-183.71
-177.57
-175.14
-174.07
-170.01
-158.71
-137.26
-104.50
-61.19
-9.74
45.65
99.52
145.88
179.60
197.80
200.89
192.69
179.22
167.05
160.91
162.03
167.69
172.81
172.64
165.08
151.22
133.82
115.18
95.75
74.72
51.77
28.67
8.99
-3.69
-8.08
-6.26
-2.90
-3.35
-11.41
-28.00
-51.46
-78.27
-104.17
-125.02
-137.59
-140.17
-133.00
-118.19
-99.04
-79.01
-60.66
-45.32
-33.16
-23.91
-17.53
-14.53
-15.87
-22.36
-33.89
-48.72
-63.39
-73.40
-74.84
-65.87
-47.62
-23.83
0.78
22.15
38.30
49.23
56.23
60.76
63.84
65.91
67.08
67.38
66.58
64.20
59.44
51.65
40.96
28.59
16.61
6.90
0.62
-2.40
-3.02
-2.27
-0.64
1.92
5.65
10.70
16.73
23.09
28.89
33.55
36.97
39.59
42.32
46.12
51.65
58.84
66.86
74.46
80.62
84.99
87.86
89.73
90.60
89.73
85.89
78.15
66.69
53.01
39.48
28.20
20.29
15.43
12.37
9.80
7.07
4.37
2.33
1.67
2.87
6.34
12.44
21.49
33.40
47.11
60.52
70.77
75.25
72.60
63.27
49.30
33.63
19.17
8.13
1.73
0.22
2.91
8.29
14.33
18.88
20.39
18.17
12.48
4.11
-6.21
-18.04
-31.23
-45.48
-60.25
-74.69
-88.30
-101.53
-116.05
-134.36
-158.36
-187.57
-217.83
-241.75
-251.03
-240.08
-208.98
-164.27
-116.89
-77.95
-54.72
-48.52
-55.47
-69.21
-83.92
-96.02
-104.00
-107.29
-105.20
-96.80
-81.64
-60.61
-36.17
-11.55
10.29
27.91
41.67
53.37
65.19
78.44
92.92
106.90
117.80
123.23
121.99
114.43
102.32
88.06
73.83
60.81
48.92
37.24
24.65
10.62
-4.44
-19.36
-32.80
-43.80
-52.05
-57.63
-60.62
-60.78
-57.50
-50.13
-38.53
-23.32
-6.02
11.34
26.66
38.33
45.57
48.55
48.20
45.85
42.79
39.97
37.89
36.62
36.14
36.40
37.25
38.18
38.00
34.73
26.04
10.05
-13.81
-44.41
-79.21
-115.07
-149.10
-179.11
-203.57
-221.50
-232.40
-236.56
-235.25
-230.52
-224.46
-218.14
-211.01
-201.17
-186.41
-165.69
-140.03
-112.54
-87.39
-68.37
-57.49
-54.29
-55.91
-57.99
-56.09
-47.10
-30.18
-6.88
19.50
44.92
65.67
79.22
84.84
84.01
80.30
78.78
84.62
101.55
130.44
168.69
210.79
249.95
280.18
298.14
304.01
301.17
294.72
289.35
287.31
287.25
284.77
274.30
251.95
217.64
175.49
132.11
93.83
64.48
44.85
33.85
30.14
33.18
42.84
58.26
76.84
94.45
106.85
111.42
108.15
99.19
87.47
75.02
62.16
47.81
30.61
10.14
-12.67
-35.86
-57.45
-76.09
-90.90
-100.59
-102.39
-91.88
-64.58
-18.65
42.84
111.32
174.95
222.34
246.31
245.48
223.34
185.85
138.79
86.78
33.33
-18.24
-64.19
-101.06
-127.01
-143.12
-153.52
-163.90
-178.65
-198.44
-219.30
-234.33
-237.35
-226.74
-207.26
-188.54
-180.71
-189.01
-211.06
-237.40
-255.93
-257.77
-240.92
-210.58
-175.57
-143.57
-117.45
-95.30
-72.96
-48.12
-23.13
-4.01
2.53
-6.62
-28.65
-55.65
-79.00
-93.06
-98.08
-99.88
-106.08
-122.61
-150.74
-186.50
-221.98
-248.55
-258.77
-248.73
-219.43
-175.92
-126.68
-80.89
-45.37
-18.16
4.60
29.49
62.75
103.18
146.99
187.92
220.52
241.36
249.71
247.12
236.93
222.42
205.40
186.78
166.54
144.87
123.07
103.74
89.61
82.63
82.44
85.54
86.71
80.44
63.43
36.22
3.19
-29.46
-55.90
-72.87
-80.36
-80.32
-75.43
-67.77
-58.52
-48.23
-37.14
-24.94
-10.86
5.98
25.81
47.15
66.73
80.70
86.32
83.38
74.18
62.09
49.87
38.84
29.08
20.46
13.47
9.02
7.74
9.12
11.52
12.82
11.27
6.01
-2.93
-14.77
-28.20
-41.54
-53.08
-61.64
-67.02
-70.21
-73.09
-77.59
-84.66
-93.78
-103.01
-109.73
-111.61
-107.35
-97.10
-82.23
-64.81
-47.01
-30.68
-17.22
-7.47
-1.34
2.75
7.93
18.15
36.44
63.11
94.69
124.81
146.72
156.28
153.72
143.05
129.92
118.65
110.69
104.78
98.52
90.08
78.95
65.61
50.75
34.82
18.17
1.57
-13.52
-25.34
-32.67
-35.69
-36.17
-36.74
-39.75
-46.29
-55.81
-66.59
-76.67
-84.66
-90.16
-93.52
-95.37
-96.21
-96.26
-95.63
-94.48
-93.02
-91.22
-88.71
-84.98
-80.12
-75.45
-73.71
-78.38
-92.22
-115.87
-147.06
-181.02
-211.65
-233.12
-241.10
-233.57
-211.06
-176.55
-135.23
-93.64
-58.54
-35.23
-26.00
-29.45
-40.90
-54.01
-62.85
-63.73
-55.90
-41.22
-22.99
-4.68
11.02
22.67
30.03
33.71
34.76
34.51
34.36
35.68
39.65
47.12
58.39
73.16
90.64
109.74
129.55
149.59
169.87
190.68
212.11
233.60
253.98
271.54
284.17
289.60
285.75
271.48
247.45
216.57
183.42
152.74
127.53
107.86
91.19
74.11
54.40
32.31
10.23
-8.91
-23.34
-33.32
-40.66
-47.42
-54.79
-62.69
-70.19
-76.42
-81.11
-84.59
-87.24
-88.88
-88.32
-83.76
-73.56
-57.12
-35.60
-11.73
11.08
30.05
43.76
52.30
56.50
57.07
54.07
47.23
36.79
24.32
12.83
5.81
5.74
12.76
24.47
36.93
46.42
50.79
49.90
44.89
37.08
27.22
15.54
2.37
-11.07
-22.72
-30.63
-34.24
-34.92
-35.22
-37.16
-40.87
-44.47
-45.53
-43.14
-39.13
-37.57
-42.91
-57.90
-82.53
-114.38
-150.01
-186.34
-221.27
-253.38
-281.37
-303.90
-319.67
-328.00
-329.09
-324.20
-315.43
-305.40
-296.48
-289.77
-284.29
-276.89
-263.21
-239.42
-203.89
-157.86
-104.98
-49.91
3.12
51.09
92.20
125.27
149.31
163.36
167.18
162.02
151.11
139.35
131.94
132.54
141.75
156.67
171.86
181.41
181.03
169.09
146.63
116.41
82.01
47.14
15.27
-10.69
-28.91
-39.20
-43.07
-43.19
-42.41
-42.67
-44.51
-47.24
-49.41
-49.56
-46.74
-40.95
-33.18
-25.33
-19.46
-16.96
-17.58
-19.32
-19.28
-14.94
-5.39
8.43
24.29
39.80
53.35
64.25
72.52
78.31
82.01
84.24
85.90
87.77
89.82
90.85
88.73
81.35
67.91
49.69
29.72
11.47
-2.57
-12.06
-18.85
-26.26
-37.65
-55.03
-78.13
-104.32
-129.43
-149.03
-159.90
-160.91
-152.98
-138.11
-118.37
-95.14
-69.07
-40.47
-9.71
22.52
55.25
87.43
118.02
146.04
170.74
191.74
209.35
224.65
238.97
253.30
267.62
280.59
289.94
293.27
289.04
277.14
259.00
237.11
214.05
191.38
168.80
144.12
114.41
77.76
34.77
-10.86
-53.36
-87.06
-108.79
-119.18
-122.36
-124.14
-129.48
-140.45
-155.15
-168.17
-172.07
-159.74
-126.87
-73.89
-6.54
65.25
130.02
178.14
204.55
209.87
199.66
182.05
165.19
155.23
155.05
163.98
178.34
192.45
200.27
197.31
181.87
155.53
122.50
87.98
56.40
30.56
11.40
-1.47
-9.28
-14.24
-19.27
-27.43
-40.58
-58.29
-77.38
-93.15
-101.59
-101.56
-95.90
-90.17
-90.00
-98.20
-113.47
-130.81
-143.92
-148.54
-142.11
-125.57
-102.24
-77.03
-54.80
-40.99
-39.87
-53.48
-80.40
-115.26
-150.11
-176.54
-188.38
-183.57
-164.40
-136.02
-104.68
-76.06
-54.00
-40.36
-34.71
-34.82
-37.29
-38.90
-37.73
-34.07
-30.36
-29.96
-35.60
-48.02
-65.57
-84.69
-101.29
-111.84
-114.15
-107.55
-92.68
-71.50
-47.15
-23.51
-4.25
8.23
13.91
15.26
16.47
21.67
33.13
50.55
71.70
93.77
114.67
133.25
148.32
157.64
157.80
145.42
119.37
82.40
40.89
2.76
-25.50
-41.11
-45.50
-42.57
-36.34
-29.18
-21.62
-13.57
-5.27
2.34
8.21
11.87
13.87
15.38
17.50
20.78
25.17
30.41
36.10
41.87
47.17
51.22
52.93
51.37
46.29
38.49
29.85
22.76
19.22
19.97
24.11
29.46
33.46
34.32
31.33
24.64
14.34
-0.27
-20.41
-46.77
-78.16
-111.19
-141.14
-163.75
-176.71
-180.07
-175.46
-165.03
-150.28
-132.05
-111.18
-89.38
-69.35
-54.07
-45.32
-42.34
-41.56
-37.79
-26.45
-5.72
22.77
54.79
85.60
112.06
133.56
151.30
166.54
179.14
187.20
188.17
180.40
164.17
141.58
115.51
88.42
61.79
36.29
12.47
-8.70
-26.03
-38.66
-46.75
-51.89
-56.67
-63.97
-75.74
-92.17
-111.36
-129.83
-143.68
-149.93
-147.70
-138.19
-124.00
-107.64
-90.60
-73.13
-54.84
-35.58
-15.63
4.47
24.63
45.50
68.00
92.40
117.55
140.99
159.92
172.73
179.72
182.97
185.01
187.72
191.73
196.73
202.17
207.69
213.18
218.26
221.95
222.70
218.78
208.94
192.71
170.44
142.87
110.94
75.52
37.56
-1.85
-41.45
-79.71
-114.95
-145.43
-169.45
-185.57
-193.01
-191.70
-182.38
-166.70
-147.09
-126.68
-108.73
-95.96
-89.55
-88.69
-90.57
-91.12
-86.49
-74.54
-56.08
-34.73
-15.60
-3.11
1.31
0.21
-0.77
4.18
17.93
38.51
59.61
73.32
73.79
59.85
35.39
7.39
-17.05
-33.19
-39.65
-37.83
-30.69
-21.67
-14.03
-10.85
-14.73
-27.31
-48.21
-74.44
-100.59
-120.18
-127.56
-119.68
-97.01
-63.10
-23.20
17.33
54.28
84.96
107.87
122.06
126.80
121.70
107.33
85.61
59.65
33.06
8.94
-10.96
-26.47
-38.61
-48.71
-57.72
-66.17
-74.58
-83.59
-93.82
-105.29
-117.14
-128.00
-136.89
-144.25
-152.25
-163.51
-178.95
-196.19
-209.97
-214.36
-206.24
-186.98
-161.95
-137.88
-119.33
-106.33
-95.01
-80.87
-61.96
-40.77
-22.01
-9.17
-1.64
5.52
19.19
44.21
80.41
124.60
168.58
203.74
225.32
233.43
230.59
219.17
202.72
183.28
163.69
147.22
136.89
134.01
137.27
142.52
143.57
133.64
107.45
64.20
8.73
-49.02
-97.64
-129.46
-143.97
-146.78
-144.88
-141.39
-132.81
-112.02
-74.11
-21.85
33.53
76.92
96.98
91.65
68.45
39.78
15.86
0.52
-8.70
-16.84
-26.96
-37.64
-44.15
-41.64
-28.53
-8.06
13.07
28.02
33.14
29.79
23.59
21.59
29.17
47.81
74.71
104.22
130.01
146.89
151.70
143.71
124.06
95.65
62.95
31.57
7.36
-5.22
-4.56
6.89
23.64
38.76
46.35
43.48
30.61
10.97
-11.34
-33.00
-53.45
-74.13
-97.85
-126.57
-160.06
-195.44
-227.96
-252.95
-267.58
-272.66
-270.69
-264.61
-255.61
-243.50
-228.48
-212.38
-198.14
-181.20
-155.26
-111.74
-45.48
39.50
128.25
200.55
240.67
244.98
223.27
192.14
168.68
158.02
157.08
159.20
158.97
155.22
150.54
148.54
150.09
152.93
152.54
144.33
127.50
104.85
81.76
63.76
54.12
52.30
54.75
56.35
53.22
44.08
30.20
14.50
0.10
-11.03
-18.82
-24.53
-29.99
-36.30
-43.43
-50.59
-56.66
-60.71
-62.27
-61.40
-58.42
-53.75
-47.65
-40.12
-31.25
-21.22
-10.30
1.11
12.75
24.55
36.81
50.00
64.38
79.61
94.65
108.23
119.53
128.68
136.82
145.32
154.79
164.36
171.88
174.80
171.78
163.55
152.84
143.36
138.13
138.22
142.08
145.99
144.91
134.09
110.44
73.87
27.96
-20.79
-64.83
-98.35
-119.38
-130.50
-137.24
-145.31
-157.99
-174.50
-191.43
-204.98
-213.47
-218.22
-222.93
-231.70
-247.36
-270.74
-300.03
-332.35
-364.33
-392.59
-413.78
-424.90
-423.26
-407.08
-376.69
-333.12
-279.05
-217.17
-149.23
-76.20
0.59
78.34
152.53
217.53
270.55
310.99
341.00
363.47
379.58
387.42
382.79
365.88
330.83
281.65
224.47
165.84
110.46
60.61
16.59
-21.45
-52.30
-74.24
-84.06
-80.99
-67.14
-47.52
-28.50
-15.64
-11.93
-17.30
-29.91
-46.01
-62.63
-77.36
-88.29
-94.14
-94.71
-91.68
-88.73
-90.80
-101.13
-120.32
-145.47
-171.11
-191.49
-202.73
-203.89
-196.32
-182.27
-163.08
-139.28
-111.05
-79.07
-44.99
-10.99
21.05
50.34
76.94
101.14
122.68
140.47
153.26
160.62
163.57
164.24
164.81
166.36
168.25
168.73
166.08
159.63
150.18
139.57
129.90
122.51
117.46
113.38
107.91
98.47
83.20
61.69
35.30
6.69
-21.02
-45.20
-64.49
-78.89
-89.29
-96.62
-101.17
-102.40
-99.21
-90.68
-76.70
-58.14
-36.63
-14.17
7.29
26.03
40.61
50.13
54.68
55.72
56.03
58.87
66.50
78.93
93.53
105.96
111.92
108.78
96.32
76.43
52.08
26.14
0.62
-23.52
-46.15
-67.37
-86.94
-103.95
-116.86
-123.89
-123.66
-115.76
-100.98
-81.04
-58.03
-34.00
-10.77
10.14
27.44
40.22
48.08
51.20
50.17
45.49
37.31
25.40
9.46
-10.42
-33.51
-58.38
-83.19
-106.12
-125.63
-140.76
-151.18
-157.13
-159.17
-157.96
-154.01
-147.55
-138.71
-127.71
-115.21
-102.30
-90.23
-79.97
-71.84
-65.41
-59.72
-53.75
-46.75
-38.45
-29.02
-18.95
-8.90
0.35
8.03
13.53
16.47
16.84
14.89
11.11
6.09
0.50
-4.90
-9.29
-12.06
-13.06
-12.80
-12.33
-12.80
-15.03
-19.11
-24.10
-28.03
-28.06
-21.11
-4.88
20.86
53.48
87.70
117.19
137.02
145.72
145.94
143.08
142.64
147.71
157.81
169.62
178.98
182.86
180.19
171.54
157.96
140.08
117.79
90.79
59.29
24.53
-11.31
-45.69
-76.37
-101.91
-121.71
-135.82
-144.58
-148.55
-148.44
-145.21
-140.07
-134.14
-128.04
-121.56
-113.60
-102.54
-86.77
-65.52
-39.31
-10.19
18.63
43.41
60.95
69.54
69.55
63.34
54.50
46.56
41.72
40.30
40.97
41.70
40.91
38.19
34.22
30.14
26.77
24.13
21.57
18.28
13.88
8.59
3.09
-1.96
-6.29
-10.10
-13.83
-17.75
-21.64
-24.77
-26.11
-24.80
-20.45
-13.36
-4.42
5.13
13.99
21.07
25.81
28.23
29.11
29.82
32.06
37.26
46.01
57.68
70.46
81.93
89.87
92.98
91.05
84.64
74.46
60.89
43.89
23.43
0.07
-24.78
-48.98
-70.30
-87.09
-98.60
-104.91
-106.52
-103.93
-97.52
-87.69
-75.16
-60.92
-46.03
-31.19
-16.55
-1.94
12.64
26.58
38.57
47.19
51.59
52.22
50.79
49.65
50.78
54.83
60.89
67.00
71.01
71.52
68.36
62.31
54.48
45.54
35.31
22.95
7.59
-10.88
-31.41
-51.86
-69.73
-82.84
-90.04
-91.25
-87.14
-78.62
-66.50
-51.45
-34.25
-16.00
1.81
17.66
30.33
39.30
44.66
46.82
46.11
42.60
36.16
26.92
15.64
3.83
-6.51
-13.47
-16.01
-14.25
-9.42
-3.34
2.26
6.35
8.64
9.48
9.38
8.71
7.58
5.87
3.42
0.17
-3.63
-7.38
-10.24
-11.24
-9.68
-5.34
1.37
9.47
17.76
25.19
31.05
35.10
37.44
38.30
37.92
36.50
34.27
31.45
28.43
25.51
22.94
20.78
18.95
17.46
16.51
16.48
17.73
20.30
23.62
26.57
27.83
26.39
22.03
15.42
7.76
0.27
-6.15
-11.18
-15.01
-18.04
-20.55
-22.54
-23.65
-23.44
-21.64
-18.03
-12.83
-6.80
-1.30
2.08
2.01
-1.87
-8.75
-16.97
-23.96
-27.59
-27.21
-24.20
-21.57
-22.55
-28.94
-40.18
-53.72
-64.91
-69.37
-64.76
-51.98
-34.77
-18.07
-5.90
0.01
0.48
0.04
5.40
24.00
61.68
120.52
197.51
284.70
370.72
434.86
458.73
433.34
364.79
272.17
177.81
97.11
34.98
-11.20
-46.34
-72.57
-89.38
-95.68
-92.34
-83.09
-72.93
-65.98
-63.91
-66.09
-69.60
-71.69
-70.90
-68.66
-67.74
-70.19
-75.67
-81.24
-82.96
-77.71
-64.98
-47.18
-28.66
-13.60
-4.52
-1.69
-3.42
-7.37
-11.65
-15.14
-17.49
-18.98
-20.04
-20.36
-20.11
-19.41
-18.25
-17.01
-16.02
-15.70
-16.62
-19.22
-24.60
-34.41
-50.49
-71.51
-95.88
-121.05
-144.06
-162.11
-172.66
-174.79
-168.82
-156.00
-137.91
-116.49
-93.29
-69.58
-49.47
-33.35
-21.81
-15.26
-13.03
-12.66
-10.43
-2.22
14.46
38.92
67.29
92.74
108.16
108.76
93.06
63.67
26.41
-11.93
-45.86
-72.18
-90.71
-102.81
-109.96
-112.80
-111.15
-104.87
-94.63
-82.37
-70.62
-62.02
-58.11
-58.69
-61.79
-64.20
-62.39
-53.70
-37.34
-14.90
9.45
30.03
41.49
40.68
27.83
6.47
-17.84
-39.26
-53.07
-56.38
-48.12
-28.67
0.13
34.97
71.33
104.23
129.64
145.61
152.70
153.37
150.63
146.70
142.34
137.09
130.11
120.97
110.13
98.72
88.13
79.47
73.30
69.54
67.44
65.66
62.52
56.46
46.69
33.64
18.92
4.77
-6.82
-14.99
-20.41
-24.89
-30.60
-39.26
-51.49
-66.72
-83.38
-99.34
-112.55
-121.70
-126.66
-128.61
-129.60
-131.56
-135.42
-140.49
-144.74
-145.69
-141.39
-131.05
-114.98
-94.01
-69.08
-40.85
-9.89
23.04
56.53
88.49
116.21
136.87
148.28
149.38
140.39
122.66
98.35
70.15
41.32
15.57
-3.33
-12.15
-9.20
5.19
28.69
57.58
87.72
115.25
136.69
149.12
150.85
142.45
127.64
112.54
103.26
102.76
109.01
115.85
116.38
107.00
89.60
70.59
57.18
53.12
56.68
61.71
60.95
49.86
28.62
1.87
-23.25
-39.90
-43.71
-34.07
-14.17
10.20
32.61
48.03
53.91
49.88
36.22
12.40
-22.74
-69.14
-122.87
-175.03
-213.63
-228.15
-214.36
-176.74
-126.98
-79.12
-44.28
-27.19
-25.98
-34.61
-45.96
-53.76
-53.02
-40.15
-13.65
24.59
68.74
109.96
139.46
151.64
146.10
127.25
101.91
76.39
54.61
38.03
26.74
20.55
19.25
22.19
27.59
32.53
33.92
29.86
20.61
8.69
-2.39
-9.93
-13.67
-16.05
-20.76
-30.30
-44.08
-58.48
-68.82
-72.20
-69.05
-62.60
-56.44
-52.09
-48.24
-42.07
-31.68
-17.36
-1.18
14.79
29.84
44.71
60.25
76.02
89.98
99.32
102.10
98.02
88.52
75.99
63.05
52.02
44.67
41.76
42.62
45.23
46.68
44.47
37.80
28.21
19.05
14.24
16.71
27.18
44.09
64.02
82.66
95.82
100.44
95.25
81.23
61.25
38.97
17.53
-1.66
-18.93
-35.24
-50.47
-62.49
-67.85
-64.35
-53.60
-41.74
-37.47
-48.01
-75.41
-115.29
-158.68
-195.87
-219.92
-228.46
-223.05
-207.71
-187.06
-165.54
-147.07
-134.79
-130.32
-133.07
-139.97
-146.06
-145.93
-135.35
-112.63
-79.49
-40.94
-3.97
24.60
40.16
41.71
31.64
14.63
-3.86
-18.76
-26.18
-24.07
-12.97
3.49
19.26
27.66
24.16
8.84
-13.31
-34.48
-47.75
-50.53
-45.95
-40.89
-42.58
-55.03
-76.97
-102.38
-122.55
-129.00
-116.40
-84.27
-37.58
14.19
59.42
87.77
93.68
78.57
50.38
20.24
-2.07
-11.98
-10.91
-4.31
2.66
8.30
15.01
26.74
45.38
68.84
91.69
108.40
115.61
113.86
106.35
96.65
86.50
75.35
61.83
45.39
27.86
11.70
-1.10
-10.37
-17.89
-26.36
-37.83
-52.49
-68.84
-79.70
-79.03
-64.94
-41.39
-16.07
3.99
15.51
18.62
13.41
1.45
-16.64
-40.05
-66.47
-91.86
-111.29
-120.32
-114.09
-91.81
-56.34
-13.98
27.53
61.77
85.43
97.70
101.50
102.66
106.56
115.07
126.13
133.38
130.81
116.12
92.01
65.21
42.83
31.20
33.38
48.37
71.64
96.87
117.25
126.24
118.39
90.13
40.93
-25.21
-99.16
-167.98
-217.58
-236.61
-220.09
-171.02
-99.98
-22.05
47.70
98.76
127.69
137.88
137.09
133.73
133.82
139.60
150.03
162.11
172.34
177.47
174.69
162.66
141.61
113.47
81.03
47.25
14.46
-15.54
-41.39
-62.32
-77.04
-84.33
-83.98
-77.67
-68.94
-62.11
-61.04
-68.36
-85.87
-112.62
-144.97
-176.64
-200.06
-208.61
-199.01
-172.82
-131.04
-81.26
-34.02
1.24
19.99
22.49
11.29
-10.25
-37.63
-64.97
-89.19
-107.16
-118.34
-124.48
-127.95
-129.34
-126.75
-117.25
-99.86
-77.95
-55.99
-40.16
-34.29
-38.49
-50.26
-66.85
-86.85
-109.68
-133.73
-153.68
-161.51
-149.37
-114.03
-59.36
4.52
65.05
111.80
139.32
148.18
143.06
130.60
116.88
106.00
99.73
97.86
98.95
101.06
102.47
101.74
97.76
89.41
75.55
55.49
29.73
0.86
-26.29
-45.43
-50.62
-38.19
-8.26
35.00
84.47
131.91
169.76
192.21
195.70
179.36
145.75
101.40
56.27
21.43
5.39
10.55
31.92
59.04
80.68
89.65
85.04
71.01
53.13
35.20
18.25
1.98
-12.85
-23.46
-26.09
-18.60
-2.39
17.65
34.95
44.10
42.84
32.68
18.16
5.12
-1.20
2.12
14.22
30.31
43.03
45.20
33.10
8.35
-22.43
-50.62
-69.23
-75.68
-72.09
-63.17
-53.41
-45.12
-38.29
-31.83
-25.15
-18.89
-14.54
-13.34
-15.21
-18.49
-20.58
-19.16
-13.19
-3.42
7.95
18.20
25.22
28.37
28.52
27.63
27.77
30.33
35.47
42.02
47.92
50.79
48.73
40.91
27.89
11.66
-4.91
-18.81
-27.84
-31.18
-29.66
-25.18
-19.90
-15.31
-11.79
-8.88
-5.96
-2.90
-0.36
0.57
-0.96
-4.98
-10.64
-16.63
-22.00
-26.71
-31.67
-38.12
-47.04
-58.47
-71.62
-85.35
-98.56
-110.22
-118.90
-122.74
-119.90
-109.66
-93.28
-74.09
-56.05
-42.15
-33.16
-27.73
-23.70
-19.79
-16.43
-15.20
-17.50
-23.31
-31.06
-38.48
-43.62
-45.76
-45.46
-43.88
-42.15
-40.98
-40.16
-39.14
-37.90
-37.42
-40.50
-50.77
-70.69
-98.93
-129.59
-152.75
-158.75
-142.29
-103.52
-48.40
13.87
74.03
124.68
159.85
176.73
174.78
156.72
131.11
109.39
101.95
114.14
144.43
184.53
226.16
262.75
291.49
315.54
339.55
366.51
396.59
427.63
455.23
477.95
495.08
491.15
455.60
384.75
284.09
166.06
57.12
-35.33
-107.97
-158.40
-184.13
-184.12
-160.33
-120.79
-78.21
-49.09
-47.05
-68.05
-103.36
-144.84
-181.41
-204.25
-209.31
-197.45
-173.22
-143.94
-115.05
-91.73
-77.76
-74.34
-81.82
-100.12
-127.87
-161.59
-195.81
-222.55
-235.66
-233.11
-217.70
-197.26
-181.67
-178.18
-187.85
-204.91
-218.53
-218.61
-199.66
-162.52
-113.53
-61.33
-13.22
26.52
56.41
76.94
89.25
95.62
99.87
107.01
122.24
148.66
185.02
225.00
258.70
275.90
269.98
239.58
188.64
125.55
60.90
4.96
-34.66
-54.87
-57.46
-48.38
-35.65
-28.85
-35.12
-55.38
-83.94
-112.30
-134.33
-150.99
-165.14
-179.31
-194.19
-208.20
-218.90
-224.93
-224.66
-218.67
-207.65
-191.08
-167.96
-138.20
-103.14
-65.61
-29.12
3.26
29.27
47.94
59.27
63.36
60.71
53.45
46.03
44.15
52.50
71.86
98.25
124.22
141.77
146.00
137.64
122.73
109.77
106.04
114.31
132.34
154.33
173.52
184.73
185.87
177.80
162.98
144.15
123.39
102.34
82.97
67.77
59.01
57.38
60.80
64.74
64.14
56.12
41.76
25.82
14.35
11.47
17.29
28.08
38.57
44.51
44.10
37.52
25.50
8.05
-15.36
-44.59
-77.46
-109.48
-135.31
-151.29
-157.48
-157.91
-158.67
-164.80
-177.68
-194.73
-210.53
-219.72
-219.53
-210.82
-197.05
-181.69
-166.48
-150.88
-133.54
-113.41
-91.01
-68.47
-48.71
-33.99
-24.47
-18.54
-13.84
-9.10
-3.59
3.01
11.22
21.51
34.15
49.48
67.25
86.61
105.45
122.52
137.67
151.60
164.74
173.25
172.85
160.20
140.36
116.08
89.06
58.61
26.41
-3.95
-27.17
-36.99
-28.73
-1.67
38.79
83.58
122.75
148.93
159.17
155.14
141.90
124.91
107.95
91.76
76.14
61.27
48.58
39.85
36.04
36.72
39.96
43.01
43.30
39.95
33.80
26.56
19.30
11.52
1.37
-13.62
-35.30
-64.30
-99.28
-137.25
-174.13
-205.58
-227.71
-237.54
-233.73
-217.10
-190.65
-158.75
-125.98
-95.71
-69.50
-47.22
-27.96
-11.21
2.48
11.56
14.33
9.84
-1.41
-17.35
-34.92
-50.86
-62.67
-69.21
-71.01
-69.85
-68.10
-67.65
-69.13
-71.75
-73.76
-73.51
-70.35
-64.80
-58.09
-51.22
-44.46
-37.31
-29.08
-19.51
-8.77
3.27
17.85
37.25
63.65
97.21
134.83
170.37
196.71
208.56
204.58
187.67
163.41
137.53
113.91
93.84
76.76
61.64
48.04
36.22
26.71
19.41
13.38
7.13
-0.69
-10.70
-22.50
-34.85
-46.40
-56.20
-64.20
-71.05
-77.76
-85.20
-93.63
-102.57
-110.84
-117.00
-119.71
-118.18
-112.33
-102.77
-90.63
-77.27
-63.95
-51.64
-40.91
-31.94
-24.56
-18.37
-12.76
-6.99
-0.27
8.03
18.13
29.57
41.16
51.27
58.35
61.52
60.91
57.59
53.11
48.75
45.08
41.82
38.10
32.97
25.79
16.37
4.94
-8.04
-21.99
-36.19
-49.80
-61.73
-70.80
-75.89
-76.23
-71.58
-62.38
-49.66
-34.83
-19.43
-4.81
8.01
18.43
26.23
31.46
34.44
35.78
36.46
37.76
40.96
46.86
55.31
65.06
74.04
80.09
81.76
78.90
72.60
64.76
57.27
51.37
47.28
44.38
41.49
37.41
31.31
22.90
12.45
0.60
-11.79
-23.73
-34.23
-42.37
-47.44
-49.08
-47.52
-43.53
-38.28
-33.04
-28.67
-25.50
-23.26
-21.27
-18.79
-15.28
-10.60
-5.02
0.75
5.76
9.04
9.88
8.13
4.26
-0.80
-5.87
-9.98
-12.61
-13.85
-14.30
-14.83
-16.23
-18.93
-22.74
-26.97
-30.63
-32.77
-32.86
-30.88
-27.24
-22.55
-17.33
-11.82
-6.11
-0.25
5.62
11.26
16.53
21.48
26.40
31.67
37.46
43.48
48.94
52.87
54.54
53.85
51.47
48.54
46.16
44.91
44.61
44.46
43.50
41.01
36.85
31.47
25.75
20.69
17.10
15.38
15.50
17.01
19.15
21.10
22.01
21.20
18.16
12.73
5.03
-4.36
-14.54
-24.42
-32.97
-39.48
-43.67
-45.65
-45.76
-44.40
-41.90
-38.50
-34.43
-29.89
-25.09
-20.28
-15.70
-11.64
-8.47
-6.65
-6.72
-9.24
-14.62
-22.90
-33.50
-45.02
-55.41
-62.38
-64.08
-59.67
-49.69
-35.81
-20.40
-5.74
6.42
15.18
20.32
22.08
20.86
17.07
11.21
4.03
-3.28
-9.17
-12.01
-10.63
-4.69
5.19
17.63
31.06
44.18
56.17
66.66
75.46
82.38
87.29
90.21
91.55
92.04
92.46
93.31
94.49
95.23
94.35
90.74
83.84
73.97
62.20
49.99
38.60
28.70
20.25
12.77
5.70
-1.14
-7.61
-13.34
-18.08
-21.86
-24.97
-27.75
-30.21
-31.94
-32.13
-29.91
-24.86
-17.31
-8.48
-0.10
6.17
9.36
9.56
7.75
5.41
3.83
3.63
4.57
5.69
5.66
3.24
-2.36
-11.12
-22.02
-33.06
-41.78
-45.97
-44.57
-38.11
-28.54
-18.45
-10.08
-4.63
-2.17
-2.12
-3.87
-7.12
-11.78
-17.62
-24.00
-29.95
-34.65
-37.87
-40.15
-42.42
-45.59
-50.02
-55.33
-60.53
-64.27
-65.15
-61.98
-54.12
-41.71
-25.93
-8.73
7.70
21.81
33.24
42.87
52.15
62.16
72.88
83.19
91.48
96.44
97.69
95.77
91.57
85.78
78.50
69.34
57.83
43.95
28.37
12.38
-2.38
-14.44
-22.85
-27.42
-28.49
-26.75
-22.82
-17.26
-10.64
-3.80
2.05
5.52
5.43
1.27
-6.59
-17.05
-28.67
-40.15
-50.70
-60.00
-68.04
-74.77
-79.88
-82.79
-82.86
-79.68
-73.30
-64.34
-53.79
-42.77
-32.21
-22.64
-14.18
-6.58
0.64
7.98
15.84
24.40
33.55
42.93
52.06
60.53
68.11
74.78
80.62
85.72
90.03
93.40
95.60
96.50
96.14
94.72
92.54
89.83
86.69
82.98
78.39
72.58
65.36
56.84
47.48
38.01
29.17
21.55
15.45
10.89
7.68
5.47
3.66
1.46
-2.02
-7.40
-14.79
-23.53
-32.36
-39.87
-45.07
-47.73
-48.40
-48.01
-47.46
-47.23
-47.40
-47.79
-48.22
-48.60
-48.91
-49.04
-48.72
-47.57
-45.20
-41.44
-36.47
-30.78
-25.12
-20.24
-16.66
-14.51
-13.55
-13.23
-12.93
-12.16
-10.67
-8.41
-5.51
-2.15
1.41
4.97
8.39
11.75
15.30
19.38
24.15
29.30
34.01
37.08
37.38
34.33
28.13
19.75
10.53
1.77
-5.62
-11.22
-14.90
-16.78
-17.02
-15.92
-13.92
-11.63
-9.67
-8.52
-8.39
-9.13
-10.42
-11.89
-13.34
-14.77
-16.32
-18.15
-20.20
-22.18
-23.54
-23.68
-22.14
-18.82
-13.96
-8.20
-2.26
3.18
7.68
11.11
13.60
15.43
16.88
18.08
18.96
19.33
18.91
17.50
15.12
12.03
8.66
5.50
2.94
1.21
0.31
0.11
0.38
0.85
1.29
1.43
1.10
0.27
-0.99
-2.45
-3.90
-5.21
-6.45
-7.81
-9.53
-11.68
-14.08
-16.29
-17.72
-17.83
-16.33
-13.26
-8.99
-4.07
0.87
5.32
8.93
11.52
13.09
13.67
13.42
12.51
11.17
9.64
8.10
6.70
5.49
4.46
3.55
2.69
1.85
1.02
0.24
-0.47
-1.10
-1.69
-2.28
-2.93
-3.70
-4.62
-5.73
-6.98
-8.35
-9.80
-11.28
-12.78
-14.33
-15.93
-17.51
-18.88
-19.69
-19.53
-18.09
-15.24
-11.19
-6.36
-1.31
3.39
7.29
10.14
11.79
12.29
11.81
10.66
9.20
7.74
6.46
5.36
4.35
3.29
2.15
0.98
-0.13
-1.07
-1.86
-2.60
-3.41
-4.42
-5.65
-7.04
-8.46
-9.76
-10.82
-11.61
-12.22
-12.79
-13.51
-14.51
-15.81
-17.33
-18.83
-19.96
-20.35
-19.64
-17.61
-14.22
-9.75
-4.68
0.39
4.88
8.41
10.85
12.32
13.04
13.25
13.08
12.60
11.79
10.68
9.33
7.91
6.59
5.52
4.73
4.16
3.63
2.99
2.15
1.11
-0.04
-1.21
-2.34
-3.46
-4.62
-5.89
-7.27
-8.74
-10.25
-11.78
-13.40
-15.12
-16.91
-18.53
-19.59
-19.58
-18.08
-14.92
-10.26
-4.65
1.18
6.51
10.80
13.85
15.74
16.71
16.99
16.76
16.11
15.12
13.91
12.65
11.48
10.45
9.58
8.84
8.21
7.70
7.31
7.00
6.61
5.99
5.02
3.72
2.17
0.54
-1.02
-2.44
-3.74
-4.98
-6.21
-7.48
-8.78
-10.12
-11.50
-12.91
-14.21
-15.17
-15.42
-14.60
-12.47
-9.09
-4.78
-0.13
4.24
7.81
10.29
11.66
12.07
11.74
10.93
9.90
8.85
7.92
7.18
6.55
5.88
5.04
3.96
2.76
1.62
0.73
0.15
-0.22
-0.54
-0.94
-1.47
-2.12
-2.83
-3.57
-4.35
-5.19
-6.09
-7.06
-8.16
-9.49
-11.20
-13.32
-15.68
-17.88
-19.34
-19.51
-18.06
-14.98
-10.57
-5.41
-0.15
4.59
8.38
11.02
12.51
13.01
12.75
11.99
10.95
9.80
8.63
7.48
6.38
5.34
4.37
3.47
2.60
1.75
0.90
0.07
-0.74
-1.55
-2.40
-3.33
-4.39
-5.55
-6.74
-7.88
-8.90
-9.82
-10.75
-11.86
-13.25
-14.91
-16.67
-18.21
-19.16
-19.14
-17.89
-15.31
-11.52
-6.83
-1.74
3.20
7.42
10.52
12.33
12.88
12.41
11.22
9.65
7.98
6.44
5.18
4.26
3.66
3.23
2.81
2.31
1.69
1.04
0.47
0.03
-0.30
-0.64
-1.14
-1.90
-2.93
-4.15
-5.40
-6.55
-7.59
-8.64
-9.92
-11.58
-13.59
-15.65
-17.23
-17.77
-16.87
-14.43
-10.67
-6.07
-1.17
3.54
7.67
10.94
13.20
14.41
14.62
14.00
12.78
11.22
9.56
8.00
6.70
5.71
5.02
4.56
4.18
3.78
3.23
2.48
1.54
0.43
-0.77
-2.00
-3.20
-4.34
-5.43
-6.52
-7.69
-9.03
-10.62
-12.48
-14.57
-16.74
-18.72
-20.13
-20.49
-19.40
-16.66
-12.39
-7.03
-1.28
4.15
8.66
11.92
13.93
14.85
14.98
14.58
13.84
12.85
11.68
10.41
9.22
8.30
7.82
7.83
8.18
8.64
8.91
8.77
8.17
7.16
5.86
4.33
2.63
0.76
-1.19
-3.12
-4.87
-6.38
-7.72
-9.12
-10.80
-12.87
-15.14
-17.13
-18.21
-17.82
-15.71
-12.02
-7.23
-2.02
2.99
7.31
10.68
12.99
14.27
14.67
14.35
13.55
12.49
11.35
10.24
9.25
8.42
7.73
7.16
6.63
6.03
5.33
4.53
3.67
2.76
1.83
0.81
-0.28
-1.40
-2.47
-3.44
-4.34
-5.37
-6.73
-8.62
-11.00
-13.62
-16.05
-17.77
-18.30
-17.35
-14.84
-10.92
-6.00
-0.62
4.57
9.01
12.28
14.17
14.67
13.97
12.39
10.31
8.16
6.29
4.92
4.11
3.76
3.66
3.60
3.41
2.99
2.32
1.40
0.27
-0.99
-2.31
-3.56
-4.66
-5.56
-6.32
-7.06
-7.93
-9.07
-10.58
-12.47
-14.64
-16.82
-18.58
-19.43
-18.87
-16.64
-12.77
-7.67
-2.00
3.47
8.10
11.53
13.69
14.69
14.77
14.16
13.07
11.66
10.08
8.46
6.94
5.62
4.58
3.84
3.35
3.00
2.67
2.24
1.66
0.92
0.04
-0.92
-1.90
-2.87
-3.80
-4.68
-5.60
-6.67
-8.05
-9.84
-11.96
-14.16
-15.95
-16.80
-16.27
-14.18
-10.65
-6.07
-1.01
3.97
8.39
11.92
14.38
15.72
15.97
15.27
13.85
11.97
9.96
8.07
6.45
5.18
4.21
3.51
3.01
2.69
2.48
2.31
2.06
1.67
1.12
0.42
-0.38
-1.24
-2.15
-3.18
-4.38
-5.82
-7.56
-9.59
-11.83
-14.03
-15.83
-16.73
-16.32
-14.35
-10.88
-6.25
-0.99
4.28
9.09
13.07
16.03
17.90
18.66
18.40
17.26
15.54
13.62
11.85
10.48
9.56
8.95
8.45
7.89
7.20
6.42
5.61
4.78
3.87
2.83
1.65
0.41
-0.77
-1.80
-2.72
-3.65
-4.77
-6.17
-7.89
-9.83
-11.82
-13.64
-14.96
-15.43
-14.70
-12.57
-9.06
-4.49
0.61
5.65
10.06
13.47
15.73
16.83
16.94
16.28
15.10
13.63
12.05
10.50
9.04
7.72
6.58
5.67
5.04
4.67
4.50
4.35
4.06
3.49
2.58
1.41
0.13
-1.09
-2.14
-2.94
-3.52
-3.97
-4.39
-4.96
-5.86
-7.24
-9.15
-11.37
-13.51
-14.95
-15.18
-13.85
-11.01
-7.05
-2.57
1.75
5.35
7.91
9.33
9.72
9.29
8.32
7.08
5.77
4.55
3.52
2.73
2.20
1.88
1.69
1.52
1.22
0.74
0.03
-0.84
-1.81
-2.80
-3.76
-4.65
-5.42
-6.06
-6.60
-7.14
-7.86
-8.94
-10.45
-12.30
-14.14
-15.53
-16.00
-15.26
-13.28
-10.25
-6.53
-2.52
1.42
4.97
7.90
9.99
11.13
11.29
10.63
9.46
8.12
6.87
5.85
5.04
4.36
3.72
3.11
2.52
1.93
1.27
0.45
-0.58
-1.80
-3.11
-4.39
-5.56
-6.62
-7.60
-8.54
-9.50
-10.52
-11.66
-12.95
-14.38
-15.73
-16.64
-16.63
-15.34
-12.59
-8.57
-3.72
1.31
5.87
9.45
11.81
12.96
13.10
12.48
11.37
9.93
8.32
6.70
5.30
4.29
3.79
3.71
3.81
3.78
3.38
2.56
1.48
0.37
-0.54
-1.17
-1.60
-1.99
-2.51
-3.27
-4.34
-5.77
-7.60
-9.81
-12.22
-14.46
-15.96
-16.19
-14.80
-11.80
-7.59
-2.83
1.77
5.70
8.67
10.69
11.89
12.41
12.33
11.69
10.53
9.04
7.48
6.15
5.27
4.87
4.80
4.82
4.72
4.38
3.80
3.06
2.21
1.31
0.33
-0.71
-1.79
-2.88
-3.94
-4.98
-6.09
-7.37
-8.85
-10.43
-11.82
-12.60
-12.37
-10.87
-8.10
-4.39
-0.24
3.78
7.22
9.78
11.39
12.14
12.22
11.87
11.33
10.75
10.20
9.64
9.05
8.40
7.71
7.05
6.45
5.89
5.30
4.59
3.71
2.69
1.57
0.43
-0.73
-1.87
-2.99
-4.03
-4.93
-5.66
-6.28
-6.97
-7.92
-9.27
-10.93
-12.57
-13.65
-13.62
-12.12
-9.15
-5.06
-0.47
3.92
7.58
10.21
11.75
12.31
12.09
11.26
10.01
8.54
7.09
5.90
5.12
4.78
4.74
4.75
4.55
4.01
3.14
2.11
1.09
0.21
-0.53
-1.21
-1.92
-2.72
-3.62
-4.59
-5.60
-6.65
-7.78
-9.10
-10.67
-12.45
-14.28
-15.78
-16.47
-15.91
-13.87
-10.42
-6.02
-1.30
3.10
6.66
9.18
10.65
11.22
11.05
10.33
9.24
7.98
6.76
5.73
4.95
4.33
3.76
3.16
2.49
1.81
1.19
0.63
0.10
-0.50
-1.22
-2.06
-2.96
-3.84
-4.64
-5.36
-6.07
-6.84
-7.82
-9.10
-10.71
-12.48
-14.11
-15.14
-15.14
-13.86
-11.31
-7.76
-3.66
0.50
4.36
7.64
10.21
12.00
12.99
13.25
12.94
12.25
11.40
10.56
9.83
9.24
8.72
8.25
7.78
7.33
6.91
6.49
6.02
5.44
4.67
3.70
2.58
1.44
0.39
-0.50
-1.23
-1.91
-2.68
-3.72
-5.13
-6.88
-8.84
-10.74
-12.24
-12.98
-12.67
-11.17
-8.52
-5.00
-0.99
3.03
6.59
9.37
11.19
12.09
12.25
11.92
11.37
10.78
10.27
9.85
9.51
9.22
8.94
8.64
8.32
7.95
7.53
7.08
6.61
6.16
5.73
5.33
4.90
4.40
3.73
2.80
1.57
0.08
-1.55
-3.11
-4.43
-5.43
-6.16
-6.78
-7.54
-8.59
-10.01
-11.60
-13.02
-13.82
-13.58
-12.09
-9.38
-5.77
-1.72
2.24
5.67
8.28
10.00
10.89
11.13
10.89
10.32
9.55
8.68
7.85
7.20
6.81
6.69
6.73
6.76
6.61
6.21
5.63
4.95
4.31
3.74
3.25
2.77
2.28
1.73
1.08
0.34
-0.45
-1.23
-1.93
-2.49
-2.97
-3.46
-4.08
-4.92
-5.97
-7.18
-8.43
-9.64
-10.69
-11.43
-11.68
-11.26
-10.06
-8.09
-5.56
-2.75
-0.01
2.39
4.28
5.57
6.25
6.36
6.00
5.32
4.49
3.72
3.12
2.74
2.55
2.45
2.34
2.15
1.87
1.55
1.23
0.93
0.66
0.40
0.12
-0.22
-0.65
-1.17
-1.78
-2.43
-3.06
-3.65
-4.20
-4.73
-5.27
-5.86
-6.53
-7.30
-8.22
-9.29
-10.43
-11.45
-12.04
-11.89
-10.80
-8.77
-6.06
-3.08
-0.25
2.12
3.93
5.21
6.05
6.50
6.59
6.33
5.81
5.18
4.59
4.20
4.02
4.00
4.04
4.08
4.09
4.04
3.88
3.54
2.94
2.09
1.06
-0.03
-1.09
-2.06
-3.02
-4.01
-5.07
-6.12
-7.06
-7.77
-8.21
-8.45
-8.60
-8.83
-9.20
-9.63
-9.94
-9.88
-9.25
-7.95
-6.03
-3.64
-1.02
1.55
3.83
5.63
6.87
7.52
7.62
7.26
6.57
5.72
4.88
4.23
3.87
3.77
3.84
3.88
3.77
3.49
3.08
2.68
2.32
1.97
1.55
0.94
0.16
-0.74
-1.62
-2.39
-3.04
-3.62
-4.20
-4.83
-5.49
-6.14
-6.74
-7.25
-7.73
-8.18
-8.60
-8.83
-8.69
-7.96
-6.56
-4.56
-2.20
0.21
2.44
4.35
5.87
6.98
7.62
7.75
7.39
6.69
5.88
5.20
4.77
4.57
4.47
4.32
4.07
3.74
3.39
3.07
2.77
2.43
2.02
1.57
1.12
0.71
0.35
-0.00
-0.41
-0.92
-1.55
-2.28
-3.05
-3.79
-4.50
-5.23
-6.07
-7.08
-8.21
-9.24
-9.84
-9.66
-8.51
-6.51
-3.99
-1.44
0.77
2.46
3.69
4.63
5.45
6.16
6.65
6.77
6.45
5.75
4.86
3.96
3.19
2.56
1.98
1.39
0.79
0.23
-0.17
-0.36
-0.35
-0.30
-0.38
-0.69
-1.22
-1.85
-2.48
-3.06
-3.61
-4.19
-4.83
-5.52
-6.19
-6.82
-7.40
-7.98
-8.55
-8.99
-9.07
-8.53
-7.24
-5.25
-2.83
-0.37
1.79
3.43
4.49
5.03
5.16
5.00
4.64
4.18
3.68
3.20
2.76
2.38
2.10
1.97
2.01
2.21
2.49
2.72
2.79
2.65
2.34
1.92
1.42
0.83
0.11
-0.75
-1.68
-2.58
-3.35
-3.96
-4.51
-5.10
-5.84
-6.65
-7.35
-7.70
-7.49
-6.64
-5.24
-3.46
-1.54
0.35
2.04
3.42
4.41
4.95
5.03
4.71
4.15
3.52
3.01
2.72
2.66
2.72
2.76
2.62
2.21
1.51
0.58
-0.49
-1.55
-2.47
-3.18
-3.64
-3.90
-4.02
-4.10
-4.19
-4.35
-4.60
-4.96
-5.47
-6.16
-6.98
-7.77
-8.29
-8.22
-7.34
-5.62
-3.28
-0.69
1.69
3.55
4.78
5.45
5.69
5.62
5.29
4.70
3.87
2.91
1.96
1.18
0.63
0.30
0.10
-0.06
-0.26
-0.54
-0.94
-1.47
-2.14
-2.89
-3.65
-4.31
-4.83
-5.24
-5.61
-6.09
-6.75
-7.66
-8.78
-9.98
-11.03
-11.67
-11.60
-10.63
-8.70
-5.95
-2.69
0.65
3.60
5.77
6.93
7.07
6.39
5.22
3.91
2.75
1.87
1.31
1.03
0.96
1.01
1.10
1.06
0.74
0.11
-0.77
-1.70
-2.46
-2.94
-3.19
-3.38
-3.77
-4.47
-5.51
-6.78
-8.12
-9.39
-10.47
-11.21
-11.43
-10.97
-9.69
-7.60
-4.89
-1.88
1.07
3.71
5.87
7.52
8.69
9.38
9.62
9.42
8.86
8.05
7.15
6.31
5.63
5.13
4.75
4.40
4.00
3.48
2.83
2.05
1.17
0.28
-0.59
-1.44
-2.31
-3.30
-4.51
-6.00
-7.73
-9.53
-11.12
-12.19
-12.48
-11.83
-10.24
-7.81
-4.73
-1.26
2.30
5.62
8.38
10.34
11.39
11.60
11.20
10.49
9.73
9.10
8.64
8.30
7.97
7.60
7.17
6.76
6.48
6.39
6.43
6.49
6.40
6.03
5.35
4.41
3.30
2.12
0.91
-0.30
-1.51
-2.70
-3.87
-5.02
-6.24
-7.66
-9.29
-11.03
-12.56
-13.44
-13.25
-11.77
-9.10
-5.60
-1.80
1.81
4.89
7.31
9.07
10.19
10.70
10.63
10.09
9.24
8.35
7.64
7.21
7.01
6.89
6.66
6.23
5.64
4.97
4.36
3.81
3.29
2.70
1.93
0.95
-0.23
-1.53
-2.82
-3.95
-4.78
-5.22
-5.28
-5.10
-4.86
-4.81
-5.18
-6.09
-7.54
-9.37
-11.26
-12.76
-13.43
-12.88
-10.99
-7.91
-4.08
-0.05
3.61
6.49
8.44
9.48
9.79
9.57
8.98
8.17
7.23
6.32
5.57
5.10
4.95
5.04
5.24
5.34
5.22
4.84
4.29
3.65
3.03
2.41
1.76
0.97
0.02
-1.06
-2.17
-3.17
-3.94
-4.43
-4.71
-4.98
-5.49
-6.42
-7.88
-9.73
-11.71
-13.42
-14.44
-14.45
-13.29
-10.99
-7.74
-3.88
0.16
3.94
7.12
9.49
11.01
11.74
11.82
11.40
10.62
9.64
8.66
7.87
7.36
7.13
7.01
6.82
6.43
5.85
5.23
4.72
4.40
4.20
3.93
3.43
2.63
1.59
0.42
-0.75
-1.90
-3.07
-4.30
-5.60
-6.93
-8.28
-9.67
-11.16
-12.76
-14.32
-15.60
-16.17
-15.68
-13.92
-10.92
-6.95
-2.48
1.99
6.01
9.28
11.66
13.15
13.86
13.92
13.48
12.71
11.77
10.85
10.09
9.55
9.19
8.86
8.44
7.84
7.10
6.34
5.62
4.96
4.26
3.37
2.22
0.84
-0.66
-2.11
-3.43
-4.61
-5.72
-6.90
-8.27
-9.93
-11.93
-14.16
-16.42
-18.37
-19.60
-19.71
-18.44
-15.78
-11.94
-7.36
-2.55
2.00
5.90
8.96
11.11
12.39
12.91
12.82
12.28
11.52
10.77
10.22
9.97
9.98
10.11
10.22
10.20
10.09
10.03
10.11
10.34
10.59
10.60
10.07
8.81
6.81
4.29
1.55
-1.05
-3.26
-4.94
-6.12
-6.94
-7.67
-8.59
-10.00
-12.06
-14.73
-17.75
-20.60
-22.72
-23.54
-22.76
-20.34
-16.52
-11.76
-6.64
-1.70
2.56
5.84
8.03
9.19
9.55
9.33
8.78
8.09
7.38
6.77
6.31
6.04
5.89
5.77
5.52
5.05
4.32
3.40
2.40
1.43
0.59
-0.12
-0.76
-1.40
-2.05
-2.70
-3.28
-3.81
-4.31
-4.88
-5.61
-6.54
-7.64
-8.86
-10.17
-11.57
-13.10
-14.67
-16.06
-16.85
-16.59
-14.95
-11.89
-7.74
-3.07
1.48
5.40
8.40
10.44
11.63
12.11
12.04
11.57
10.86
10.07
9.37
8.85
8.52
8.33
8.16
7.93
7.55
7.01
6.32
5.53
4.73
3.97
3.29
2.64
1.93
1.07
0.02
-1.15
-2.30
-3.30
-4.06
-4.64
-5.21
-5.96
-7.08
-8.61
-10.42
-12.25
-13.70
-14.37
-13.95
-12.30
-9.50
-5.83
-1.72
2.40
6.09
9.07
11.21
12.51
13.13
13.20
12.92
12.37
11.62
10.73
9.76
8.82
8.02
7.47
7.19
7.08
7.00
6.73
6.14
5.18
3.93
2.54
1.18
-0.04
-1.08
-2.00
-2.86
-3.72
-4.61
-5.56
-6.61
-7.88
-9.47
-11.41
-13.57
-15.61
-17.04
-17.41
-16.39
-13.93
-10.27
-5.83
-1.10
3.51
7.72
11.37
14.41
16.85
18.71
19.98
20.67
20.87
20.75
20.56
20.55
20.97
21.90
23.35
25.19
27.29
29.50
31.71
33.81
35.78
37.71
39.92
42.85
46.91
52.30
58.91
66.27
73.65
80.27
85.53
89.17
91.32
92.21
92.21
91.69
90.96
90.29
89.77
89.40
89.03
88.58
87.56
85.65
82.75
79.12
75.22
71.44
67.80
63.71
58.16
49.33
35.59
16.14
-8.63
-37.30
-67.81
-98.03
-126.21
-151.08
-172.71
-191.79
-209.29
-226.15
-243.29
-261.47
-281.10
-302.03
-317.58
-320.84
-306.37
-272.66
-222.85
-163.62
-102.39
-45.21
4.08
43.67
72.76
91.83
102.65
109.49
116.50
126.06
137.63
147.81
151.90
145.50
126.44
95.99
59.70
24.74
-3.09
-21.38
-30.86
-36.27
-40.27
-44.26
-48.75
-53.96
-60.41
-68.75
-79.48
-92.52
-104.96
-114.43
-119.78
-120.52
-116.40
-107.34
-93.42
-75.18
-53.49
-29.89
-4.78
19.52
40.59
57.60
71.82
85.89
102.01
121.20
142.74
164.51
183.40
196.42
201.48
197.64
186.73
169.77
148.54
125.40
102.67
81.66
62.64
45.33
29.34
14.42
0.33
-12.69
-24.37
-34.74
-42.21
-46.42
-47.88
-47.63
-46.92
-46.66
-46.65
-45.83
-42.97
-37.49
-30.17
-22.59
-16.46
-12.81
-11.47
-10.85
-8.59
-2.41
8.92
24.86
43.67
62.96
80.57
95.01
105.81
113.00
116.68
116.72
112.79
105.01
94.21
81.95
69.86
59.15
50.00
41.80
33.54
24.42
14.30
3.76
-6.17
-14.45
-20.32
-23.48
-24.02
-22.41
-19.24
-15.14
-10.68
-6.17
-1.86
2.18
5.89
9.16
11.92
14.25
16.49
19.14
22.60
26.76
30.84
33.52
33.33
29.23
20.89
8.59
-7.12
-25.73
-46.84
-69.96
-94.22
-118.28
-140.41
-158.91
-172.54
-180.74
-183.68
-182.15
-177.31
-170.40
-162.57
-154.57
-146.74
-139.05
-131.34
-123.51
-115.72
-108.27
-101.48
-95.47
-90.19
-85.42
-80.96
-76.63
-72.23
-67.50
-62.04
-55.45
-47.53
-38.42
-28.61
-18.80
-9.65
-1.62
5.20
10.90
15.68
19.58
22.57
24.51
25.32
25.10
24.14
22.84
21.55
20.52
19.83
19.43
19.24
19.19
19.23
19.26
19.19
18.89
18.22
17.12
15.64
13.75
11.41
8.38
4.28
-1.27
-8.46
-17.05
-26.29
-34.96
-41.73
-45.53
-45.87
-42.98
-37.60
-30.72
-23.21
-15.65
-8.37
-1.56
4.56
9.74
13.71
16.41
17.97
18.74
19.15
19.51
19.87
20.11
19.99
19.33
18.18
16.78
15.43
14.35
13.53
12.74
11.65
9.98
7.65
4.71
1.40
-2.05
-5.44
-8.65
-11.68
-14.58
-17.53
-20.73
-24.39
-28.58
-33.11
-37.40
-40.64
-41.95
-40.70
-36.71
-30.36
-22.42
-13.82
-5.43
2.14
8.58
13.75
17.67
20.39
22.04
22.84
23.11
23.11
22.99
22.83
22.51
21.98
21.26
20.52
19.95
19.65
19.51
19.25
18.48
16.95
14.71
12.08
9.56
7.57
6.21
5.25
4.23
2.72
0.54
-2.18
-5.12
-7.88
-10.15
-11.58
-11.72
-9.94
-5.63
1.47
11.13
22.56
34.75
46.82
58.20
68.63
77.80
85.25
90.27
92.21
90.73
86.10
79.12
70.95
62.73
55.29
48.96
43.56
38.53
33.22
27.24
20.57
13.56
6.65
0.11
-6.10
-12.24
-18.44
-24.57
-30.19
-34.74
-37.90
-39.75
-40.84
-41.90
-43.64
-46.37
-49.94
-53.83
-57.24
-59.42
-59.81
-58.17
-54.49
-48.92
-41.60
-32.68
-22.23
-10.40
2.52
16.04
29.61
42.81
55.47
67.64
79.38
90.61
100.94
109.76
116.58
121.21
123.81
124.87
124.93
124.53
124.12
124.02
124.19
124.03
122.16
116.66
105.70
88.24
64.54
36.20
5.57
-24.89
-53.25
-78.28
-99.44
-116.66
-130.27
-140.82
-149.01
-155.39
-160.11
-162.75
-162.51
-158.58
-150.54
-138.72
-124.07
-107.94
-91.67
-76.29
-62.48
-50.71
-41.31
-34.54
-30.40
-28.50
-28.02
-27.89
-27.11
-25.05
-21.69
-17.49
-13.06
-8.87
-4.98
-1.16
2.89
7.24
11.59
15.34
17.84
18.68
17.85
15.72
12.82
9.54
6.09
2.37
-1.78
-6.51
-11.83
-17.64
-23.79
-30.06
-36.09
-41.28
-44.82
-45.91
-44.06
-39.31
-32.32
-24.14
-15.87
-8.29
-1.77
3.74
8.47
12.56
15.95
18.44
19.85
20.16
19.54
18.32
16.89
15.53
14.45
13.70
13.31
13.27
13.57
14.18
14.94
15.63
16.03
16.05
15.79
15.47
15.25
15.02
14.44
13.04
10.52
7.03
3.12
-0.41
-2.89
-4.05
-3.98
-3.01
-1.34
1.02
4.21
8.42
13.76
20.23
27.70
35.94
44.41
52.31
58.60
62.25
62.59
59.60
53.93
46.60
38.66
30.88
23.77
17.60
12.55
8.74
6.17
4.63
3.59
2.41
0.55
-1.83
-4.10
-5.35
-4.70
-1.85
2.78
8.06
12.48
14.65
14.46
12.63
10.48
9.37
10.07
12.51
15.98
19.46
22.20
25.04
29.43
36.90
48.68
65.18
85.85
109.35
133.65
156.41
176.68
193.96
208.42
220.87
232.66
245.55
261.64
282.71
300.56
307.10
294.79
259.96
205.04
137.77
67.95
4.24
-48.22
-88.12
-115.85
-133.22
-142.08
-143.89
-140.08
-132.67
-123.70
-116.24
-112.90
-114.26
-119.72
-127.82
-136.82
-145.06
-151.20
-153.72
-151.25
-142.95
-128.54
-109.08
-86.76
-64.17
-42.69
-24.20
-9.92
-0.60
3.46
2.42
-3.14
-12.09
-22.67
-32.80
-40.90
-46.05
-48.38
-48.91
-49.02
-49.96
-52.42
-56.33
-61.02
-65.69
-69.59
-72.46
-74.53
-76.45
-78.82
-81.83
-84.62
-85.24
-81.30
-70.69
-52.38
-26.76
4.33
37.98
70.50
98.33
118.40
128.32
126.33
111.92
86.31
52.71
16.15
-17.88
-44.15
-59.11
-61.96
-55.11
-42.93
-30.25
-20.92
-17.10
-19.45
-26.55
-35.20
-41.05
-40.16
-29.83
-9.77
17.27
48.77
78.10
97.85
101.98
91.72
71.08
45.41
19.13
-4.75
-24.68
-40.48
-51.88
-58.08
-57.88
-50.79
-36.98
-17.45
6.27
32.37
58.78
83.91
106.58
125.61
139.12
145.15
142.26
130.23
110.26
84.43
55.59
26.56
-0.36
-24.00
-43.91
-60.19
-72.98
-82.39
-88.48
-91.14
-90.23
-85.75
-78.24
-68.58
-57.87
-47.13
-37.08
-28.24
-20.82
-14.93
-10.49
-7.33
-5.01
-2.98
-0.79
1.49
3.16
3.06
0.02
-6.61
-16.69
-29.24
-42.99
-56.72
-69.61
-81.23
-91.25
-99.27
-104.70
-106.90
-105.42
-100.21
-91.79
-81.14
-69.56
-58.21
-47.89
-38.78
-30.59
-22.89
-15.44
-8.57
-3.11
-0.22
-0.95
-5.97
-15.25
-28.15
-43.34
-59.01
-73.14
-83.70
-89.05
-88.23
-81.11
-68.42
-51.52
-32.13
-12.02
7.19
24.32
38.63
49.89
58.35
64.60
69.32
73.10
76.32
79.04
81.20
82.63
83.33
83.44
83.28
83.23
83.58
84.42
85.46
86.18
85.84
83.73
79.27
72.18
62.43
50.30
36.29
21.07
5.35
-10.20
-25.00
-38.54
-50.27
-59.40
-64.97
-65.96
-61.70
-52.14
-38.09
-21.23
-3.78
11.89
23.71
30.20
30.78
25.77
16.34
4.28
-8.46
-20.25
-30.12
-37.91
-44.08
-49.37
-54.39
-59.30
-63.89
-67.75
-70.70
-73.02
-75.18
-77.85
-81.51
-86.21
-91.38
-95.97
-98.62
-98.00
-93.20
-83.50
-68.87
-50.03
-28.35
-5.47
16.97
37.58
55.33
69.37
79.72
86.62
90.54
92.09
92.15
91.75
91.97
93.70
97.34
103.66
112.99
125.29
140.10
157.03
175.88
196.86
220.54
241.47
254.33
254.29
238.75
207.96
165.08
115.03
63.81
17.62
-18.30
-40.09
-47.19
-41.49
-28.49
-13.94
-2.35
4.00
5.01
1.99
-2.80
-7.77
-12.42
-17.29
-22.99
-30.20
-38.26
-45.82
-51.44
-54.01
-53.47
-50.44
-45.92
-40.72
-35.40
-30.47
-26.98
-26.30
-29.83
-38.21
-50.34
-63.63
-74.78
-80.96
-80.67
-73.93
-61.17
-43.11
-20.51
5.37
31.83
54.64
69.58
74.09
68.29
55.27
38.40
19.66
0.83
-17.09
-33.20
-45.78
-52.86
-57.52
-61.57
-67.44
-77.59
-93.38
-111.72
-129.09
-141.76
-147.24
-145.14
-136.53
-124.10
-111.04
-99.81
-91.78
-87.35
-85.53
-84.50
-82.24
-76.89
-68.16
-57.52
-47.62
-41.28
-40.56
-45.46
-53.99
-63.00
-69.02
-69.77
-64.49
-53.57
-38.00
-19.07
2.09
24.41
46.65
67.60
85.98
100.88
112.02
119.86
125.32
129.58
133.54
137.58
141.57
145.00
147.42
148.70
149.10
148.95
148.42
147.24
144.84
140.68
134.50
126.60
117.72
108.73
100.27
92.55
85.26
77.70
68.87
57.65
43.00
24.42
2.54
-20.41
-40.67
-53.85
-56.55
-47.83
-29.96
-7.83
12.66
26.62
31.46
27.25
15.99
0.54
-16.20
-31.67
-43.80
-51.08
-52.94
-50.04
-44.27
-38.21
-34.33
-34.02
-37.23
-42.65
-48.34
-52.55
-54.31
-53.57
-50.99
-47.60
-44.40
-42.27
-41.83
-43.49
-47.49
-53.83
-62.34
-72.59
-83.87
-95.14
-105.06
-112.19
-115.17
-113.19
-106.15
-94.69
-80.07
-63.83
-47.57
-32.71
-20.41
-11.39
-5.86
-3.33
-2.72
-2.56
-1.42
1.73
7.29
15.13
24.77
35.60
47.04
58.65
70.01
80.73
90.15
97.24
100.47
98.14
88.90
72.66
51.02
27.19
5.03
-12.44
-24.17
-31.41
-37.02
-43.99
-54.10
-67.17
-81.39
-94.15
-103.15
-106.98
-105.22
-98.14
-86.31
-70.44
-51.47
-30.86
-10.52
7.36
20.93
29.28
32.80
33.04
32.08
31.71
32.75
34.93
37.25
38.65
38.61
37.43
35.97
35.11
35.24
36.05
36.71
36.22
33.92
29.67
23.88
17.29
10.59
4.26
-1.51
-6.82
-11.93
-17.20
-22.95
-29.46
-36.75
-44.51
-51.99
-58.11
-61.60
-61.40
-56.96
-48.47
-36.76
-23.16
-9.13
4.10
15.66
25.12
32.32
37.31
40.22
41.25
40.65
38.77
36.03
32.81
29.43
26.13
23.07
20.34
18.06
16.26
14.91
13.77
12.49
10.67
7.97
4.34
0.01
-4.58
-8.93
-12.65
-15.57
-17.80
-19.68
-21.70
-24.32
-27.85
-32.25
-37.01
-41.19
-43.65
-43.31
-39.55
-32.35
-22.25
-10.19
2.82
15.88
28.23
39.27
48.48
55.42
59.78
61.50
60.81
58.22
54.42
50.09
45.77
41.73
38.01
34.50
31.09
27.70
24.42
21.32
18.43
15.64
12.74
9.49
5.80
1.78
-2.37
-6.38
-10.15
-13.67
-17.09
-20.58
-24.23
-28.09
-32.20
-36.60
-41.31
-46.20
-50.80
-54.40
-56.07
-54.99
-50.68
-43.18
-33.08
-21.37
-9.20
2.39
12.65
21.18
27.87
32.75
35.87
37.30
37.16
35.76
33.59
31.22
29.12
27.50
26.21
24.93
23.33
21.32
19.13
17.17
15.76
15.04
14.77
14.48
13.66
11.99
9.47
6.36
3.12
0.11
-2.47
-4.68
-6.78
-9.08
-11.87
-15.34
-19.55
-24.44
-29.69
-34.70
-38.64
-40.53
-39.55
-35.28
-27.94
-18.28
-7.42
3.42
13.30
21.55
27.84
32.09
34.30
34.57
33.10
30.21
26.42
22.37
18.71
15.83
13.84
12.43
11.16
9.63
7.73
5.64
3.70
2.19
1.13
0.31
-0.62
-1.94
-3.67
-5.67
-7.70
-9.61
-11.43
-13.32
-15.45
-18.01
-21.01
-24.44
-28.17
-31.96
-35.40
-37.88
-38.73
-37.36
-33.48
-27.20
-19.00
-9.60
0.19
9.59
17.92
24.59
29.15
31.42
31.51
29.91
27.29
24.39
21.79
19.77
18.32
17.24
16.32
15.42
14.54
13.73
13.02
12.32
11.45
10.22
8.49
6.31
3.85
1.31
-1.13
-3.43
-5.67
-8.06
-10.84
-14.24
-18.44
-23.50
-29.33
-35.63
-41.81
-47.08
-50.52
-51.26
-48.77
-42.93
-34.21
-23.51
-11.97
-0.74
9.23
17.31
23.19
26.83
28.38
28.15
26.54
24.11
21.45
19.11
17.56
16.93
17.05
17.53
17.90
17.78
17.03
15.71
13.95
11.90
9.60
7.04
4.21
1.14
-2.07
-5.29
-8.44
-11.44
-14.30
-17.12
-20.08
-23.39
-27.23
-31.56
-35.98
-39.74
-41.87
-41.52
-38.22
-32.05
-23.64
-13.95
-4.01
5.32
13.37
19.74
24.20
26.67
27.29
26.36
24.39
21.94
19.49
17.32
15.54
14.06
12.81
11.71
10.76
9.99
9.40
8.91
8.39
7.67
6.62
5.20
3.40
1.28
-1.08
-3.59
-6.13
-8.59
-10.91
-13.11
-15.31
-17.72
-20.48
-23.57
-26.64
-29.06
-30.05
-28.93
-25.34
-19.40
-11.67
-2.96
5.91
14.21
21.44
27.23
31.34
33.69
34.33
33.53
31.72
29.36
26.90
24.63
22.69
21.06
19.70
18.52
17.47
16.56
15.76
15.09
14.47
13.80
12.91
11.66
9.93
7.74
5.20
2.55
0.06
-2.12
-4.01
-5.90
-8.15
-11.09
-14.73
-18.67
-22.18
-24.38
-24.49
-22.17
-17.51
-11.01
-3.45
4.34
11.57
17.58
21.92
24.40
25.06
24.24
22.43
20.13
17.77
15.55
13.49
11.47
9.38
7.21
5.12
3.33
1.96
0.97
0.14
-0.82
-2.14
-3.89
-6.02
-8.39
-10.87
-13.42
-15.97
-18.52
-21.07
-23.67
-26.50
-29.66
-33.14
-36.62
-39.46
-40.84
-40.02
-36.63
-30.77
-22.97
-14.03
-4.82
3.86
11.34
17.18
21.17
23.36
24.00
23.50
22.26
20.59
18.69
16.67
14.65
12.77
11.13
9.78
8.62
7.45
6.05
4.37
2.46
0.46
-1.51
-3.47
-5.55
-7.94
-10.71
-13.83
-17.18
-20.67
-24.25
-27.91
-31.50
-34.64
-36.73
-37.05
-35.05
-30.52
-23.70
-15.28
-6.10
2.94
11.13
17.94
23.05
26.33
27.83
27.78
26.57
24.68
22.61
20.73
19.23
18.09
17.13
16.13
14.96
13.58
12.09
10.60
9.19
7.87
6.53
5.03
3.25
1.16
-1.16
-3.62
-6.11
-8.63
-11.22
-13.95
-16.79
-19.55
-21.77
-22.83
-22.07
-19.05
-13.69
-6.23
2.68
12.12
21.08
28.67
34.37
38.07
40.04
40.73
40.83
40.77
40.59
40.06
39.01
37.53
36.04
35.13
35.15
36.64
39.58
43.35
47.02
49.75
51.18
51.59
51.68
52.20
54.65
59.93
68.03
77.99
88.32
97.60
104.98
110.50
115.07
121.60
132.88
150.55
174.11
200.92
226.73
247.13
259.07
253.74
227.61
182.50
125.91
67.94
17.54
-20.90
-47.04
-62.94
-71.53
-74.45
-73.91
-72.09
-70.36
-69.31
-69.03
-69.03
-69.06
-69.42
-70.26
-73.48
-81.84
-98.05
-122.29
-153.30
-188.16
-220.41
-244.17
-250.60
-236.46
-205.00
-172.37
-147.57
-134.42
-129.55
-129.14
-129.55
-127.83
-123.29
-116.43
-108.02
-97.19
-83.51
-66.92
-48.04
-27.98
-8.29
8.63
20.79
27.28
29.58
29.44
28.53
27.82
27.84
28.94
31.14
34.67
39.94
47.73
57.68
68.27
77.04
81.36
79.13
69.12
51.49
27.85
1.23
-25.09
-48.25
-66.34
-78.51
-84.84
-86.09
-83.38
-77.86
-70.59
-62.59
-54.78
-47.92
-42.50
-38.73
-36.60
-35.89
-36.24
-37.22
-38.39
-39.36
-39.79
-39.43
-38.11
-35.87
-32.94
-29.73
-26.74
-24.41
-23.00
-22.44
-22.42
-22.42
-21.95
-20.71
-18.69
-16.32
-14.29
-13.34
-13.92
-15.90
-18.45
-20.28
-20.02
-16.82
-10.73
-2.77
5.43
12.08
15.81
15.97
12.64
6.42
-1.90
-11.51
-21.65
-31.57
-40.44
-47.43
-51.86
-53.45
-52.38
-49.48
-46.00
-43.27
-42.33
-43.50
-46.26
-49.34
-51.25
-50.92
-48.17
-44.09
-40.74
-40.43
-44.63
-53.06
-63.30
-71.18
-71.70
-60.18
-33.41
9.39
65.90
130.85
196.83
255.91
301.77
331.36
345.57
348.44
345.29
340.49
336.05
331.52
324.87
313.91
297.24
274.47
245.86
212.02
173.64
131.70
87.71
43.69
1.86
-35.89
-68.70
-96.93
-121.87
-145.10
-167.74
-190.04
-211.36
-230.53
-246.46
-258.45
-266.27
-269.91
-269.41
-264.70
-255.76
-242.78
-226.31
-207.13
-185.99
-163.34
-139.22
-113.44
-86.02
-57.55
-29.30
-2.81
20.63
40.55
57.32
71.65
83.90
93.51
99.28
100.14
96.16
88.93
81.12
75.31
72.63
72.12
70.92
65.68
54.05
35.80
12.94
-11.42
-34.46
-54.85
-72.75
-88.92
-103.35
-114.58
-119.93
-116.59
-102.85
-78.38
-43.94
-0.62
50.18
106.30
164.00
217.94
262.12
291.54
304.07
301.07
286.56
265.35
241.08
215.12
186.95
155.37
119.57
80.52
41.35
6.89
-17.80
-29.37
-27.85
-16.88
-2.63
5.91
0.92
-21.23
-57.92
-101.51
-143.35
-177.46
-202.90
-221.02
-232.98
-238.88
-238.35
-231.46
-219.52
-203.20
-184.22
-163.61
-140.97
-115.07
-84.87
-50.69
-14.55
20.50
51.91
78.86
102.93
126.97
152.77
179.30
202.75
218.22
222.14
214.09
196.74
174.70
152.49
132.81
116.19
101.82
88.76
76.48
64.66
52.61
39.42
24.50
8.05
-8.55
-23.09
-33.47
-38.84
-40.09
-39.79
-41.24
-47.44
-60.16
-79.61
-104.25
-131.05
-155.89
-174.18
-181.88
-176.70
-159.11
-132.40
-101.82
-72.87
-49.54
-33.33
-23.40
-17.67
-14.26
-12.31
-12.00
-13.86
-18.05
-23.89
-30.09
-35.31
-38.72
-40.30
-40.50
-40.09
-39.57
-39.15
-38.77
-38.34
-37.75
-36.72
-34.87
-31.93
-27.95
-23.52
-19.59
-17.13
-16.61
-17.87
-20.16
-22.66
-24.80
-26.34
-27.07
-26.58
-24.12
-19.01
-11.13
-1.24
9.09
18.11
24.58
28.33
30.22
31.63
33.86
37.25
41.13
44.13
44.93
43.07
39.03
33.98
29.12
25.07
21.76
18.77
15.80
13.03
11.01
10.30
11.19
13.65
17.50
22.59
28.66
35.08
40.62
43.61
42.72
37.82
30.43
23.39
19.50
20.19
24.70
30.35
33.78
32.59
26.35
16.79
6.94
-0.18
-2.65
-0.16
6.20
14.58
23.15
30.59
36.15
39.51
40.46
38.91
34.95
29.11
22.60
17.14
14.54
16.09
22.10
31.69
43.13
54.20
62.56
66.12
63.27
53.42
37.47
18.09
-0.72
-14.76
-21.33
-20.27
-14.05
-6.57
-1.32
0.02
-2.03
-5.59
-8.70
-10.35
-10.60
-9.91
-8.45
-5.81
-1.45
4.55
11.27
17.05
20.18
19.75
15.84
9.38
1.69
-6.09
-13.24
-19.42
-24.53
-28.48
-31.22
-32.90
-33.89
-34.80
-36.22
-38.43
-41.21
-43.96
-45.92
-46.63
-46.32
-45.98
-47.03
-50.65
-57.08
-65.39
-73.76
-80.25
-83.77
-84.50
-83.74
-83.14
-83.62
-84.87
-85.49
-83.72
-78.44
-69.73
-58.81
-47.60
-37.88
-30.70
-25.99
-22.51
-18.06
-9.75
5.47
29.84
63.56
103.99
145.80
182.41
207.84
218.36
213.39
195.39
169.16
140.71
116.02
99.87
94.70
99.92
111.96
125.14
133.33
131.78
118.41
94.14
62.24
27.31
-5.92
-33.49
-52.93
-63.63
-66.76
-64.51
-59.25
-52.78
-46.23
-40.23
-35.48
-32.76
-32.83
-35.88
-41.10
-46.87
-51.20
-52.31
-48.83
-39.87
-24.92
-4.07
21.44
48.93
74.23
92.58
99.96
94.36
76.54
49.82
19.12
-10.37
-34.56
-51.48
-61.58
-67.36
-72.20
-78.97
-88.81
-100.72
-111.99
-119.51
-121.01
-115.86
-105.19
-91.15
-76.13
-62.07
-50.13
-40.94
-34.71
-31.42
-30.72
-31.93
-34.08
-36.10
-37.16
-36.99
-35.79
-34.09
-32.34
-30.72
-29.11
-27.26
-24.99
-22.36
-19.61
-17.17
-15.46
-14.90
-15.66
-17.62
-20.34
-23.15
-25.41
-26.73
-27.04
-26.54
-25.56
-24.38
-23.27
-22.47
-22.35
-23.38
-26.00
-30.39
-36.24
-42.71
-48.51
-52.36
-53.27
-50.98
-45.94
-39.24
-32.26
-26.30
-22.31
-20.58
-20.71
-21.69
-22.13
-20.68
-16.49
-9.60
-0.96
7.68
14.37
17.33
15.50
8.66
-2.48
-16.40
-30.94
-43.63
-52.18
-55.09
-52.20
-44.90
-35.68
-27.23
-21.32
-18.08
-15.97
-12.62
-5.94
4.74
18.31
32.14
43.01
48.14
46.10
37.07
22.72
5.69
-11.15
-25.37
-35.43
-40.84
-41.82
-38.94
-32.71
-23.52
-11.84
1.59
15.55
28.59
39.44
47.44
52.78
56.34
59.35
62.97
67.93
74.49
82.31
90.56
98.07
103.72
106.76
107.14
105.46
102.67
99.49
95.98
91.49
84.93
75.38
62.63
47.34
30.84
14.64
-0.02
-12.46
-22.54
-30.54
-36.95
-42.33
-47.17
-51.88
-56.68
-61.48
-65.85
-69.02
-70.12
-68.42
-63.66
-56.15
-46.78
-36.70
-26.99
-18.41
-11.23
-5.44
-0.81
2.83
5.56
7.27
7.89
7.43
6.07
4.26
2.55
1.58
1.76
3.18
5.55
8.21
10.37
11.36
10.75
8.49
4.80
0.07
-5.28
-10.80
-16.13
-20.98
-25.25
-28.97
-32.30
-35.28
-37.67
-38.91
-38.17
-34.66
-27.97
-18.32
-6.57
5.91
17.62
27.28
34.09
37.85
38.95
38.16
36.42
34.58
33.22
32.47
32.15
31.83
31.13
29.87
28.12
26.16
24.32
22.77
21.45
20.07
18.30
15.84
12.49
8.18
2.84
-3.55
-11.03
-19.47
-28.48
-37.35
-45.08
-50.64
-53.24
-52.53
-48.71
-42.39
-34.43
-25.62
-16.67
-8.05
-0.20
6.54
11.82
15.35
17.08
17.17
16.01
14.13
12.04
10.09
8.48
7.24
6.28
5.51
4.85
4.28
3.78
3.39
3.17
3.09
3.11
3.01
2.50
1.24
-1.08
-4.71
-9.76
-16.16
-23.59
-31.31
-38.22
-42.89
-43.98
-40.64
-32.82
-21.38
-7.81
6.25
19.44
30.93
40.41
47.82
53.15
56.34
57.33
56.32
53.80
50.57
47.56
45.58
45.10
46.09
48.11
50.47
52.47
53.59
53.54
52.25
49.79
46.23
41.69
36.35
30.56
24.75
19.27
14.25
9.41
4.22
-1.81
-8.72
-15.88
-22.12
-26.07
-26.76
-23.94
-18.25
-10.91
-3.28
3.61
9.26
13.69
17.10
19.62
21.14
21.28
19.61
15.93
10.44
3.75
-3.31
-9.94
-15.62
-20.13
-23.55
-26.10
-28.07
-29.75
-31.40
-33.22
-35.17
-37.01
-38.22
-38.37
-37.29
-35.43
-33.81
-33.75
-36.25
-41.37
-47.78
-52.96
-53.95
-48.46
-35.89
-17.74
2.89
22.44
38.19
49.13
55.81
59.69
62.05
63.35
63.25
61.13
56.83
50.94
44.62
39.09
35.02
32.36
30.48
28.68
26.62
24.52
23.04
22.80
24.01
26.23
28.49
29.65
28.85
25.76
20.66
14.26
7.50
1.40
-3.04
-4.83
-3.16
2.44
11.81
24.11
37.88
51.45
63.22
71.92
76.66
76.93
72.68
64.34
52.99
40.15
27.56
16.59
7.86
1.20
-4.02
-8.44
-12.36
-15.65
-18.05
-19.37
-19.79
-19.76
-19.85
-20.43
-21.51
-22.72
-23.49
-23.28
-21.55
-18.03
-12.75
-5.93
2.11
11.11
20.97
31.75
43.55
56.89
72.05
88.74
106.09
122.82
137.70
149.97
159.45
166.43
172.40
178.74
186.10
194.24
202.20
208.94
213.86
216.98
218.88
221.91
228.48
239.82
255.56
273.84
292.15
308.22
320.56
328.56
334.37
340.89
350.19
362.67
377.00
390.90
402.32
410.33
399.16
358.77
286.33
187.41
74.43
-38.11
-138.56
-220.35
-281.66
-320.19
-339.55
-343.84
-337.15
-323.62
-307.23
-291.39
-278.56
-270.49
-268.45
-271.82
-278.98
-288.47
-299.35
-311.35
-324.57
-339.01
-354.23
-369.15
-381.26
-387.33
-384.88
-373.21
-353.71
-329.38
-303.75
-279.81
-259.32
-242.40
-227.87
-214.40
-201.21
-188.13
-175.30
-162.65
-149.75
-135.87
-120.35
-102.80
-83.51
-63.39
-43.60
-25.16
-8.70
5.61
17.88
28.24
36.74
43.37
48.07
50.87
52.00
51.86
50.93
49.71
48.54
47.53
46.62
45.65
44.51
43.23
41.90
40.64
39.43
38.10
36.35
33.97
30.87
27.21
23.24
19.24
15.35
11.55
7.70
3.67
-0.50
-4.55
-8.06
-10.49
-11.38
-10.47
-7.80
-3.64
1.50
7.07
12.44
17.11
20.67
22.95
23.91
23.73
22.68
21.04
19.01
16.70
14.13
11.37
8.55
5.91
3.74
2.29
1.64
1.74
2.34
3.17
4.01
4.83
5.81
7.18
9.15
11.76
14.89
18.28
21.59
24.44
26.41
27.20
26.76
25.53
24.40
24.52
26.82
31.58
38.28
45.77
52.85
58.75
63.33
66.93
69.90
72.25
73.58
73.38
71.32
67.57
62.70
57.36
52.03
46.77
41.29
35.09
27.66
18.71
8.22
-3.39
-15.41
-26.89
-37.02
-45.29
-51.66
-56.55
-60.51
-63.99
-67.10
-69.68
-71.44
-72.25
-72.18
-71.56
-70.71
-69.90
-69.25
-68.74
-68.36
-67.96
-67.29
-65.98
-63.59
-59.72
-54.22
-47.31
-39.47
-31.38
-23.67
-16.81
-11.09
-6.65
-3.53
-1.66
-0.91
-0.95
-1.41
-1.95
-2.32
-2.44
-2.35
-2.11
-1.81
-1.45
-1.05
-0.60
-0.06
0.61
1.47
2.58
3.91
5.34
6.71
7.86
8.72
9.36
9.96
10.70
11.67
12.76
13.77
14.41
14.45
13.79
12.46
10.62
8.56
6.70
5.50
5.40
6.66
9.25
12.78
16.64
20.13
22.73
24.17
24.43
23.65
21.99
19.65
16.79
13.66
10.54
7.71
5.35
3.52
2.17
1.26
0.76
0.64
0.90
1.44
2.10
2.74
3.25
3.62
3.95
4.34
4.87
5.45
5.82
5.56
4.21
1.51
-2.46
-7.23
-12.07
-16.28
-19.41
-21.28
-21.88
-21.12
-18.77
-14.60
-8.62
-1.23
6.76
14.47
21.26
26.91
31.59
35.68
39.39
42.70
45.30
46.82
47.03
46.05
44.37
42.70
41.67
41.61
42.38
43.46
44.24
44.23
43.31
41.63
39.44
36.94
34.28
31.57
29.03
26.90
25.36
24.34
23.50
22.22
19.91
16.13
10.82
4.29
-2.85
-9.90
-16.31
-21.77
-26.39
-30.56
-34.80
-39.47
-44.67
-50.07
-55.06
-59.01
-61.46
-62.26
-61.58
-59.77
-57.17
-54.05
-50.56
-46.83
-43.03
-39.38
-36.06
-33.19
-30.72
-28.51
-26.39
-24.23
-22.05
-20.02
-18.33
-17.19
-16.65
-16.64
-16.92
-17.15
-17.07
-16.49
-15.47
-14.24
-13.11
-12.34
-12.05
-12.22
-12.69
-13.34
-14.02
-14.62
-14.94
-14.71
-13.61
-11.31
-7.70
-2.86
2.87
9.01
15.03
20.44
24.89
28.16
30.11
30.65
29.75
27.46
23.94
19.49
14.51
9.44
4.61
0.14
-4.03
-8.02
-11.90
-15.57
-18.77
-21.26
-22.93
-23.93
-24.59
-25.23
-25.96
-26.65
-27.03
-26.91
-26.33
-25.57
-25.13
-25.37
-26.43
-28.11
-29.85
-30.95
-30.70
-28.66
-24.72
-19.17
-12.52
-5.35
1.82
8.65
14.89
20.36
24.93
28.54
31.24
33.21
34.66
35.69
36.29
36.41
36.05
35.39
34.76
34.46
34.60
34.99
35.24
34.96
33.95
32.29
30.25
28.09
25.95
23.73
21.23
18.26
14.78
10.96
7.12
3.62
0.76
-1.33
-2.63
-3.18
-3.02
-2.12
-0.43
2.03
5.16
8.72
12.39
15.84
18.79
21.06
22.52
23.13
22.88
21.89
20.41
18.74
17.13
15.66
14.20
12.57
10.62
8.44
6.29
4.44
2.92
1.24
-1.57
-6.56
-14.45
-25.12
-37.60
-50.30
-61.67
-70.63
-76.86
-80.60
-82.21
-81.82
-79.15
-73.85
-65.75
-55.25
-43.27
-30.99
-19.48
-9.36
-0.82
6.27
12.08
16.67
19.97
21.90
22.49
22.03
20.97
19.83
19.02
18.65
18.60
18.59
18.31
17.58
16.42
14.92
13.21
11.37
9.39
7.26
5.01
2.72
0.43
-1.92
-4.50
-7.54
-11.07
-14.86
-18.40
-21.03
-22.20
-21.69
-19.57
-16.22
-12.04
-7.41
-2.65
1.88
5.79
8.58
9.87
9.48
7.57
4.61
1.24
-1.89
-4.27
-5.61
-5.93
-5.44
-4.57
-3.80
-3.54
-4.05
-5.38
-7.43
-10.00
-12.94
-16.10
-19.39
-22.66
-25.72
-28.39
-30.55
-32.24
-33.67
-35.08
-36.65
-38.30
-39.61
-39.85
-38.22
-34.02
-26.94
-17.19
-5.43
7.34
19.99
31.52
41.17
48.53
53.58
56.60
58.02
58.29
57.68
56.26
53.93
50.60
46.29
41.38
36.55
32.62
30.28
29.71
30.47
31.52
31.65
29.79
25.45
18.83
10.56
1.54
-7.39
-15.59
-22.64
-28.34
-32.63
-35.57
-37.28
-37.83
-37.17
-35.15
-31.63
-26.61
-20.31
-13.17
-5.72
1.49
7.93
13.21
16.99
19.15
19.79
19.28
18.19
17.17
16.77
17.22
18.39
19.86
21.06
21.54
21.09
19.86
18.18
16.42
14.76
13.12
11.16
8.51
4.97
0.72
-3.74
-7.80
-11.00
-13.28
-14.93
-16.34
-17.67
-18.57
-18.29
-15.94
-11.07
-3.84
4.86
13.88
22.17
29.11
34.56
38.66
41.58
43.41
44.23
44.12
43.23
41.57
38.90
34.64
28.04
18.68
6.80
-6.51
-19.54
-30.56
-38.44
-42.96
-44.80
-45.05
-44.72
-44.36
-44.05
-43.60
-42.86
-41.97
-41.32
-41.35
-42.41
-44.53
-47.28
-49.91
-51.53
-51.31
-48.76
-43.86
-36.99
-28.87
-20.29
-11.99
-4.55
1.65
6.37
9.53
11.18
11.58
11.09
10.21
9.39
8.96
9.06
9.61
10.38
11.11
11.55
11.61
11.30
10.75
10.08
9.41
8.72
7.96
7.02
5.83
4.39
2.72
0.89
-1.12
-3.42
-6.24
-9.73
-13.90
-18.45
-22.81
-26.23
-27.94
-27.44
-24.59
-19.65
-13.19
-5.93
1.42
8.27
14.21
19.09
22.94
25.97
28.41
30.45
32.18
33.58
34.53
34.98
34.95
34.51
33.81
32.93
31.85
30.39
28.26
25.16
20.87
15.34
8.74
1.51
-5.71
-12.25
-17.53
-21.31
-23.74
-25.28
-26.54
-28.00
-29.76
-31.48
-32.56
-32.33
-30.31
-26.37
-20.71
-13.76
-6.03
1.98
9.82
17.05
23.30
28.21
31.62
33.54
34.18
33.83
32.80
31.30
29.43
27.23
24.75
22.09
19.41
16.88
14.62
12.58
10.58
8.36
5.62
2.13
-2.23
-7.47
-13.39
-19.62
-25.60
-30.68
-34.33
-36.29
-36.68
-35.94
-34.61
-33.09
-31.44
-29.46
-26.82
-23.35
-19.13
-14.44
-9.59
-4.76
0.03
4.82
9.49
13.76
17.17
19.30
20.00
19.46
18.17
16.70
15.55
14.88
14.61
14.45
14.12
13.44
12.36
10.93
9.25
7.45
5.61
3.79
2.00
0.21
-1.65
-3.66
-5.85
-8.20
-10.58
-12.74
-14.47
-15.62
-16.22
-16.49
-16.70
-17.01
-17.39
-17.53
-16.96
-15.28
-12.28
-8.05
-2.96
2.50
7.79
12.46
16.09
18.40
19.26
18.74
17.15
14.98
12.79
11.09
10.17
10.12
10.84
12.04
13.40
14.60
15.41
15.69
15.44
14.73
13.68
12.38
10.80
8.84
6.34
3.19
-0.57
-4.77
-9.17
-13.56
-17.81
-21.87
-25.69
-29.14
-31.92
-33.58
-33.67
-31.86
-28.09
-22.52
-15.51
-7.48
1.16
9.92
18.28
25.63
31.34
34.97
36.30
35.41
32.58
28.23
22.81
16.86
10.99
5.95
2.47
1.04
1.68
3.93
6.87
9.46
10.83
10.56
8.69
5.66
2.08
-1.53
-4.86
-7.85
-10.61
-13.34
-16.16
-19.03
-21.74
-23.88
-24.99
-24.59
-22.35
-18.19
-12.27
-5.08
2.72
10.38
17.23
22.77
26.72
29.07
29.94
29.63
28.43
26.68
24.66
22.57
20.55
18.65
16.85
15.09
13.32
11.50
9.63
7.75
5.87
4.00
2.16
0.45
-1.02
-2.09
-2.68
-2.89
-3.07
-3.75
-5.52
-8.77
-13.50
-19.22
-25.08
-30.08
-33.35
-34.35
-32.98
-29.57
-24.77
-19.43
-14.47
-10.68
-8.62
-8.44
-9.91
-12.49
-15.55
-18.54
-21.11
-23.11
-24.48
-25.19
-25.19
-24.49
-23.26
-21.76
-20.35
-19.35
-18.85
-18.75
-18.76
-18.55
-17.89
-16.69
-15.02
-13.02
-10.86
-8.68
-6.56
-4.60
-2.88
-1.47
-0.46
0.15
0.47
0.64
0.89
1.36
2.12
3.11
4.31
5.76
7.60
10.01
13.09
16.73
20.62
24.35
27.57
30.07
31.77
32.63
32.59
31.57
29.55
26.67
23.16
19.36
15.55
11.97
8.87
6.54
5.39
5.85
8.19
12.32
17.65
23.11
27.43
29.44
28.46
24.50
18.13
10.36
2.16
-5.69
-12.71
-18.58
-23.05
-25.89
-26.96
-26.35
-24.45
-21.85
-19.09
-16.44
-13.80
-10.84
-7.35
-3.48
0.09
2.37
2.42
-0.20
-5.19
-11.66
-18.42
-24.51
-29.35
-32.88
-35.27
-36.75
-37.41
-37.25
-36.35
-34.98
-33.63
-32.91
-33.35
-35.07
-37.70
-40.37
-41.93
-41.27
-37.73
-31.28
-22.54
-12.52
-2.38
6.97
14.92
21.18
25.68
28.38
29.29
28.50
26.29
23.22
20.02
17.39
15.79
15.28
15.51
15.84
15.60
14.25
11.61
7.86
3.53
-0.77
-4.48
-7.35
-9.51
-11.42
-13.66
-16.67
-20.57
-25.07
-29.59
-33.39
-35.73
-36.04
-34.01
-29.63
-23.18
-15.06
-5.83
3.95
13.68
22.71
30.38
36.11
39.61
40.97
40.70
39.54
38.33
37.84
38.81
41.86
47.35
55.01
63.80
72.08
78.32
81.82
83.06
83.43
84.16
85.43
86.01
83.91
77.54
66.73
52.91
38.30
24.94
13.94
5.57
-0.21
-3.32
-3.61
-1.37
2.24
5.31
5.90
2.92
-3.31
-11.23
-18.87
-24.72
-28.24
-29.79
-30.12
-29.89
-29.35
-28.41
-26.93
-24.89
-22.48
-20.00
-17.69
-15.65
-13.75
-11.72
-9.30
-6.36
-3.06
0.20
2.91
4.64
5.22
4.72
3.37
1.39
-1.07
-3.86
-6.69
-9.00
-10.05
-9.09
-5.77
-0.25
6.73
14.10
20.76
25.89
29.09
30.43
30.27
29.09
27.36
25.30
22.96
20.19
16.85
12.99
8.90
5.14
2.26
0.64
0.21
0.45
0.47
-0.57
-3.13
-6.99
-11.30
-14.91
-16.90
-17.13
-16.34
-15.92
-17.28
-21.15
-27.25
-34.18
-39.84
-41.83
-38.05
-27.35
-10.13
11.09
31.77
46.24
49.53
39.29
17.24
-10.93
-37.37
-54.93
-59.81
-52.81
-38.69
-23.73
-13.23
-9.63
-12.34
-18.78
-25.93
-31.49
-34.19
-33.55
-29.42
-21.86
-11.33
1.13
13.95
25.61
35.30
43.33
50.82
59.00
68.39
78.08
85.83
88.89
85.36
75.27
61.02
46.72
36.71
34.00
39.20
50.71
65.54
80.55
93.31
102.22
106.31
104.97
98.09
86.33
71.52
56.29
43.45
35.02
31.54
32.02
34.32
35.99
35.08
30.61
22.77
12.46
0.84
-11.14
-23.11
-35.36
-48.67
-64.00
-82.06
-102.89
-125.65
-148.65
-169.69
-186.58
-197.79
-202.72
-201.85
-196.35
-187.67
-177.09
-165.47
-153.30
-140.76
-127.91
-114.73
-101.17
-87.14
-72.62
-57.71
-42.75
-28.27
-14.82
-2.77
7.92
17.82
27.72
38.30
49.63
60.91
70.63
77.00
78.65
75.14
67.12
56.07
43.83
31.95
21.49
12.79
5.69
-0.23
-5.47
-10.37
-15.07
-19.55
-23.72
-27.44
-30.55
-32.88
-34.19
-34.30
-33.14
-30.90
-27.93
-24.64
-21.24
-17.61
-13.36
-7.98
-1.21
6.83
15.61
24.31
32.00
37.85
41.22
41.70
39.21
33.93
26.43
17.56
8.44
0.15
-6.46
-10.98
-13.56
-14.86
-15.82
-17.37
-20.06
-23.95
-28.55
-33.05
-36.66
-38.83
-39.37
-38.30
-35.81
-32.08
-27.31
-21.79
-15.96
-10.25
-4.96
-0.05
4.85
10.30
16.76
24.35
32.77
41.28
49.00
55.09
59.07
60.87
60.85
59.65
57.95
56.23
54.53
52.44
49.16
43.79
35.65
24.54
10.88
-4.33
-19.79
-34.15
-46.29
-55.47
-61.27
-63.61
-62.60
-58.56
-51.96
-43.44
-33.75
-23.68
-13.98
-5.33
1.79
7.15
10.81
13.03
14.13
14.27
13.44
11.56
8.73
5.36
2.16
-0.12
-1.05
-0.71
0.37
1.50
2.19
2.26
1.81
0.89
-0.74
-3.63
-8.38
-15.28
-23.97
-33.42
-42.18
-48.77
-52.06
-51.48
-47.03
-39.12
-28.43
-15.72
-1.77
12.66
26.90
40.35
52.54
63.17
72.17
79.66
85.92
91.29
96.07
100.43
104.32
107.47
109.41
109.68
107.87
103.81
97.63
89.66
80.41
70.36
59.90
49.33
38.89
28.75
19.00
9.75
1.08
-6.68
-12.87
-16.67
-17.38
-14.94
-10.04
-3.90
2.26
7.73
12.59
17.38
22.51
27.72
31.97
33.93
32.63
28.06
21.31
14.16
8.42
5.26
4.96
6.95
10.29
14.11
18.03
22.09
26.71
32.38
39.42
47.94
57.51
67.07
75.07
79.93
80.87
78.40
74.56
72.28
74.22
81.74
94.28
109.60
124.69
136.83
144.43
147.54
147.51
146.30
145.57
145.85
146.34
145.12
140.00
129.27
112.43
90.25
64.70
38.37
13.86
-6.87
-23.23
-36.14
-47.73
-60.47
-76.07
-94.64
-114.79
-134.40
-151.69
-165.99
-177.74
-187.97
-197.40
-206.16
-213.60
-218.72
-220.66
-218.94
-213.51
-204.65
-192.81
-178.52
-162.41
-145.23
-127.85
-111.25
-96.25
-83.31
-72.28
-62.36
-52.35
-41.22
-28.64
-15.43
-3.37
5.37
9.08
7.21
0.65
-8.60
-18.07
-25.59
-29.86
-30.65
-28.69
-25.40
-22.48
-21.53
-23.70
-29.41
-38.24
-49.07
-60.15
-69.52
-75.22
-75.78
-70.52
-59.78
-44.88
-27.81
-10.62
5.09
18.46
29.27
37.73
44.05
48.30
50.43
50.51
48.77
45.63
41.51
36.62
30.88
24.04
15.94
6.76
-2.88
-12.06
-19.85
-25.70
-29.64
-32.21
-34.30
-36.69
-39.82
-43.68
-48.02
-52.58
-57.25
-61.93
-66.35
-69.80
-71.20
-69.47
-63.92
-54.53
-41.93
-27.12
-11.28
4.27
17.97
28.17
33.50
33.49
29.06
22.45
16.45
13.28
13.69
16.67
20.13
21.93
20.95
17.50
12.98
8.96
6.40
5.20
4.35
2.52
-1.24
-7.19
-14.90
-23.58
-32.39
-40.57
-47.34
-51.81
-52.97
-50.01
-42.54
-30.82
-15.65
1.94
20.79
39.68
57.22
71.93
82.40
87.78
88.10
84.24
77.70
70.01
62.28
55.06
48.52
42.67
37.58
33.27
29.56
25.93
21.63
16.06
9.02
0.88
-7.55
-15.41
-22.20
-28.04
-33.49
-39.32
-46.08
-53.90
-62.39
-70.83
-78.27
-83.73
-86.24
-85.07
-79.97
-71.34
-60.23
-48.08
-36.25
-25.52
-15.93
-7.01
1.83
10.80
19.66
27.91
35.09
41.06
45.96
49.96
53.03
54.81
54.74
52.35
47.65
41.23
34.25
28.03
23.63
21.51
21.31
22.10
22.72
22.26
20.27
16.85
12.48
7.93
4.14
2.14
2.85
6.81
13.91
23.20
33.10
41.84
48.02
50.97
50.87
48.56
45.18
41.75
38.87
36.56
34.36
31.53
27.41
21.75
14.83
7.46
0.65
-4.80
-8.50
-10.70
-12.02
-13.22
-14.84
-17.10
-19.89
-22.97
-26.08
-29.13
-32.17
-35.38
-38.97
-43.10
-47.79
-52.80
-57.63
-61.67
-64.34
-65.29
-64.56
-62.49
-59.53
-56.00
-51.93
-47.04
-40.84
-32.82
-22.61
-10.20
3.89
18.63
32.60
44.40
53.06
58.47
61.34
62.88
64.20
65.73
66.98
66.74
63.71
57.13
47.21
35.14
22.54
10.90
1.01
-7.27
-14.89
-22.99
-32.27
-42.55
-52.62
-60.65
-64.94
-64.60
-59.87
-51.98
-42.51
-32.77
-23.39
-14.24
-4.50
7.00
21.58
40.21
62.85
87.90
112.05
130.99
140.83
139.79
129.24
113.43
97.93
87.49
84.12
86.48
90.72
92.24
87.56
75.45
56.93
34.40
10.43
-13.08
-35.20
-55.73
-74.74
-92.34
-108.57
-123.39
-136.69
-148.00
-156.15
-159.20
-154.80
-141.08
-117.62
-86.00
-49.66
-13.03
19.74
45.83
64.20
75.29
80.41
80.84
77.50
70.93
61.62
50.31
38.16
26.55
16.68
9.24
4.17
0.74
-2.06
-5.06
-8.49
-11.93
-14.63
-15.98
-16.02
-15.60
-16.11
-18.93
-24.74
-33.12
-42.51
-50.55
-54.65
-52.59
-43.06
-25.99
-2.78
23.83
50.20
72.75
88.97
98.21
101.76
102.21
102.12
102.86
104.00
103.66
99.54
90.08
75.17
56.12
35.03
14.01
-5.45
-22.63
-37.52
-50.53
-62.31
-73.48
-84.40
-95.05
-104.83
-112.66
-117.30
-117.68
-113.43
-105.02
-93.62
-80.70
-67.52
-54.81
-42.68
-30.83
-18.91
-6.94
4.53
14.52
21.96
26.03
26.57
24.08
19.59
14.15
8.56
3.18
-1.95
-6.68
-10.52
-12.63
-12.19
-8.89
-3.34
3.09
8.73
12.41
13.97
14.31
14.96
17.40
22.61
30.73
41.25
53.00
64.39
73.54
78.68
78.88
74.72
68.56
63.88
63.86
69.75
80.04
91.03
98.60
100.27
96.33
89.36
82.41
76.97
71.95
64.17
50.13
27.98
-1.36
-34.49
-66.82
-94.32
-114.65
-127.45
-133.72
-134.73
-131.24
-123.20
-110.31
-92.78
-71.90
-50.09
-30.24
-14.91
-5.60
-2.73
-5.89
-14.35
-27.17
-43.03
-59.96
-75.39
-86.63
-91.63
-89.70
-81.56
-68.96
-54.00
-38.45
-23.58
-10.13
1.33
10.28
16.34
19.43
20.00
18.94
17.40
16.48
17.03
19.54
24.08
30.28
37.30
44.02
49.25
52.06
51.99
49.09
43.87
37.00
29.27
21.50
14.57
9.33
6.35
5.67
6.61
7.96
8.41
7.22
4.55
1.64
0.42
2.98
10.80
24.17
41.97
61.70
80.16
94.23
101.71
102.01
96.15
86.38
75.34
65.17
56.90
50.41
44.82
39.19
33.02
26.51
20.35
15.31
11.85
9.94
9.13
8.81
8.44
7.60
5.97
3.34
-0.31
-4.68
-8.99
-11.96
-12.18
-8.55
-0.70
10.78
24.50
38.54
50.90
59.71
63.44
60.95
51.78
36.36
16.27
-5.95
-27.27
-44.92
-57.14
-63.53
-64.94
-62.89
-58.93
-54.09
-48.79
-43.03
-36.68
-29.71
-22.31
-14.83
-7.81
-2.02
1.53
1.75
-2.22
-10.51
-22.16
-35.13
-46.77
-54.60
-57.07
-54.06
-46.73
-37.20
-27.86
-20.92
-17.98
-19.86
-26.37
-36.38
-48.05
-59.27
-68.29
-74.18
-77.16
-78.30
-78.98
-80.22
-82.24
-84.44
-85.70
-85.01
-81.82
-76.21
-68.72
-60.09
-51.05
-42.28
-34.48
-28.35
-24.45
-22.77
-22.54
-22.14
-19.66
-13.65
-3.77
8.88
22.29
34.29
43.56
50.08
54.94
59.62
65.17
71.74
78.53
84.33
88.01
89.09
87.69
84.32
79.52
73.69
67.12
60.06
52.85
45.82
39.35
33.64
28.69
24.22
20.01
15.99
12.28
8.94
5.76
2.36
-2.03
-8.29
-17.26
-28.79
-41.54
-53.09
-60.75
-62.41
-56.81
-44.44
-27.41
-9.37
6.56
18.60
26.88
32.87
38.88
47.89
62.12
82.23
105.95
129.95
150.33
163.77
167.98
162.72
150.91
137.06
125.72
118.67
116.35
117.73
121.29
125.31
123.30
111.35
88.26
63.88
43.05
28.11
17.16
9.86
6.31
6.76
11.68
20.15
29.99
37.19
39.74
37.40
31.91
24.97
17.75
11.16
5.09
-0.49
-6.18
-10.87
-13.95
-15.79
-18.51
-24.23
-33.34
-45.07
-57.56
-69.75
-80.18
-88.96
-97.09
-106.49
-118.53
-130.02
-138.08
-140.77
-145.09
-153.98
-168.06
-182.34
-193.00
-197.19
-193.46
-182.54
-166.36
-147.51
-127.15
-106.21
-85.15
-64.48
-44.10
-23.54
-2.94
17.13
35.58
51.95
65.53
75.91
82.93
87.25
90.05
92.18
94.01
95.33
95.96
95.08
91.57
84.04
71.60
54.27
32.93
9.37
-14.05
-34.73
-50.72
-60.92
-65.22
-63.98
-57.99
-48.31
-36.24
-23.25
-10.64
0.43
9.07
14.65
16.96
16.23
13.26
9.39
6.21
5.20
7.19
12.11
18.93
26.05
31.67
34.28
33.02
27.89
19.79
10.35
1.62
-4.59
-7.33
-6.99
-5.25
-4.59
-7.20
-14.14
-24.77
-37.03
-48.22
-56.04
-59.34
-58.35
-54.30
-48.84
-43.48
-39.30
-36.91
-36.59
-38.22
-41.41
-45.46
-49.57
-53.04
-55.52
-57.12
-58.30
-59.78
-62.18
-65.83
-70.63
-76.05
-81.30
-85.61
-88.57
-90.26
-91.21
-92.02
-92.94
-93.47
-92.44
-88.27
-79.67
-66.12
-48.14
-27.03
-4.40
18.47
40.88
62.48
82.94
101.56
117.14
128.32
133.96
133.84
128.84
120.76
111.39
102.20
93.80
85.99
78.35
70.28
61.44
51.81
41.52
30.33
18.11
5.04
-8.24
-20.45
-30.58
-38.19
-43.47
-47.25
-50.70
-54.19
-56.95
-57.45
-53.71
-45.17
-32.83
-19.10
-4.13
10.94
25.10
37.90
46.97
53.57
59.79
67.23
77.69
91.06
105.45
118.22
126.71
128.95
124.60
114.20
99.11
81.16
61.92
42.24
22.69
3.68
-14.47
-31.16
-46.13
-59.32
-70.56
-79.53
-85.62
-87.84
-85.16
-77.08
-63.74
-46.35
-26.76
-6.92
11.33
26.56
37.77
44.47
46.69
45.10
40.63
34.21
26.40
17.15
5.91
-8.08
-25.19
-45.11
-66.71
-88.12
-107.17
-121.74
-130.36
-132.63
-129.47
-122.86
-115.25
-108.69
-104.14
-101.14
-98.14
-93.10
-84.23
-70.52
-51.90
-29.24
-4.31
20.55
42.56
59.04
68.01
68.90
62.83
52.53
41.54
33.03
28.75
28.51
30.48
32.22
31.78
28.47
22.79
15.80
8.15
-0.36
-10.76
-24.18
-41.13
-60.94
-81.86
-101.48
-117.29
-127.17
-129.57
-123.62
-109.19
-86.96
-58.52
-26.32
6.71
37.72
64.47
85.74
101.28
111.53
117.03
118.23
115.22
108.10
97.19
83.41
68.24
53.39
40.33
29.83
21.85
15.78
10.73
6.10
1.64
-2.60
-6.56
-10.42
-14.67
-19.85
-26.26
-33.67
-41.21
-47.57
-51.17
-50.47
-44.23
-31.90
-13.86
8.38
32.20
54.43
72.00
82.86
86.55
84.26
78.31
71.25
64.98
60.10
56.04
51.38
44.66
34.94
22.15
6.93
-9.62
-26.29
-42.03
-55.87
-67.08
-75.26
-80.59
-83.89
-86.37
-88.99
-91.58
-92.47
-88.77
-77.62
-57.59
-29.74
2.45
34.13
60.80
79.71
90.30
93.80
92.15
87.08
79.61
70.17
59.05
46.74
34.10
22.11
11.50
2.54
-4.96
-11.40
-17.11
-22.04
-25.81
-27.99
-28.46
-27.64
-26.31
-25.31
-24.96
-24.85
-23.90
-20.83
-14.75
-5.63
5.65
17.52
28.15
35.97
40.03
40.13
36.86
31.43
25.36
20.11
16.68
15.29
15.41
15.95
15.65
13.50
9.02
2.35
-5.90
-14.86
-23.73
-31.93
-39.25
-45.80
-51.87
-57.79
-63.66
-69.29
-74.12
-77.36
-78.22
-76.15
-70.97
-63.00
-53.00
-41.97
-30.96
-20.83
-12.14
-5.00
0.92
6.25
11.73
17.90
24.86
32.17
38.96
44.20
47.10
47.29
45.02
40.89
35.63
29.76
23.44
16.48
8.61
-0.19
-9.48
-18.31
-25.50
-29.93
-30.91
-28.34
-22.65
-14.59
-4.97
5.44
15.99
26.13
35.37
43.32
49.72
54.47
57.63
59.33
59.76
59.07
57.41
54.95
51.85
48.26
44.30
39.94
35.10
29.65
23.45
16.46
8.78
0.68
-7.37
-14.73
-20.59
-24.07
-24.32
-20.71
-12.95
-1.24
13.71
30.88
49.05
67.02
83.77
98.44
110.44
119.40
125.30
128.35
129.03
127.94
125.71
122.78
119.36
115.32
110.35
104.08
96.35
87.31
77.46
67.45
57.78
48.57
39.49
29.94
19.42
7.91
-4.11
-15.79
-26.27
-34.98
-41.73
-46.47
-49.16
-49.61
-47.61
-43.17
-36.77
-29.31
-21.87
-15.36
-10.32
-6.95
-5.30
-5.44
-7.39
-10.99
-15.63
-20.24
-23.52
-24.37
-22.24
-17.33
-10.53
-3.12
3.47
7.96
9.35
7.11
1.23
-7.65
-18.30
-29.10
-38.39
-44.85
-47.81
-47.28
-44.00
-39.01
-33.44
-28.19
-23.90
-20.90
-19.32
-19.17
-20.33
-22.41
-24.76
-26.34
-25.91
-22.29
-14.70
-3.09
11.80
28.53
45.12
59.41
69.50
74.14
73.11
67.32
58.70
49.64
42.45
38.72
38.99
42.70
48.36
53.98
57.44
57.07
52.05
42.76
30.77
18.33
7.54
-0.49
-6.00
-10.43
-15.63
-23.00
-32.82
-44.16
-55.33
-64.67
-71.25
-75.17
-77.50
-79.75
-83.23
-88.44
-94.81
-100.82
-104.56
-104.43
-99.79
-91.18
-80.17
-68.81
-59.06
-52.26
-48.90
-48.43
-49.32
-49.16
-45.04
-34.20
-15.08
11.72
43.00
73.64
98.12
112.38
115.19
108.21
94.92
78.96
63.12
49.04
37.88
30.88
29.31
33.67
42.67
52.97
60.07
60.19
51.95
36.93
18.95
2.35
-9.83
-16.80
-19.89
-21.56
-24.15
-28.96
-36.07
-44.50
-52.88
-59.86
-64.55
-66.48
-65.48
-61.57
-54.82
-45.55
-34.40
-22.47
-11.11
-1.67
4.96
8.50
9.37
8.34
6.21
3.56
0.62
-2.61
-6.20
-10.12
-14.24
-18.30
-22.05
-25.28
-27.87
-29.81
-31.21
-32.24
-33.10
-34.02
-35.21
-36.80
-38.91
-41.58
-44.72
-48.08
-51.21
-53.47
-54.17
-52.68
-48.63
-42.02
-33.24
-23.04
-12.28
-1.85
7.55
15.42
21.44
25.49
27.47
27.46
25.65
22.40
18.29
13.99
10.14
7.17
5.21
4.08
3.38
2.69
1.69
0.25
-1.61
-3.77
-6.10
-8.53
-11.08
-13.75
-16.56
-19.55
-22.77
-26.26
-29.96
-33.60
-36.64
-38.35
-37.95
-34.89
-29.09
-21.04
-11.64
-1.97
7.04
14.71
20.72
24.97
27.48
28.31
27.59
25.51
22.42
18.75
14.98
11.51
8.58
6.22
4.31
2.62
0.94
-0.85
-2.75
-4.73
-6.70
-8.63
-10.58
-12.58
-14.74
-17.13
-19.89
-23.11
-26.75
-30.48
-33.62
-35.26
-34.49
-30.74
-24.01
-14.97
-4.78
5.25
13.99
20.72
25.17
27.38
27.62
26.27
23.76
20.54
17.09
13.78
10.86
8.48
6.63
5.23
4.18
3.38
2.70
2.00
1.05
-0.34
-2.33
-4.92
-7.98
-11.26
-14.52
-17.54
-20.23
-22.67
-25.00
-27.48
-30.33
-33.57
-36.92
-39.66
-40.83
-39.44
-34.92
-27.32
-17.36
-6.21
4.89
14.90
23.16
29.35
33.35
35.20
35.08
33.40
30.70
27.62
24.74
22.40
20.67
19.40
18.34
17.25
16.02
14.66
13.27
11.94
10.61
9.08
7.11
4.51
1.28
-2.31
-5.81
-8.82
-11.12
-12.80
-14.23
-15.93
-18.37
-21.85
-26.34
-31.41
-36.27
-39.88
-41.14
-39.22
-33.84
-25.37
-14.85
-3.60
7.02
15.95
22.59
26.75
28.50
28.10
25.92
22.50
18.53
14.74
11.70
9.73
8.74
8.31
8.02
7.54
6.81
5.91
4.96
3.92
2.63
0.87
-1.54
-4.57
-8.02
-11.60
-15.05
-18.17
-20.94
-23.41
-25.84
-28.58
-32.00
-36.36
-41.53
-46.96
-51.54
-53.99
-53.09
-48.21
-39.46
-27.69
-14.29
-0.79
11.49
21.64
29.18
34.03
36.37
36.51
34.93
32.16
28.81
25.46
22.54
20.26
18.59
17.30
16.09
14.78
13.32
11.78
10.25
8.70
6.96
4.76
1.88
-1.71
-5.77
-9.93
-13.81
-17.15
-19.89
-22.24
-24.59
-27.38
-31.08
-35.86
-41.46
-47.03
-51.19
-52.46
-49.67
-42.46
-31.40
-17.82
-3.41
10.30
22.22
31.71
38.49
42.49
43.83
42.82
39.99
36.12
32.01
28.33
25.46
23.41
21.91
20.61
19.24
17.74
16.26
15.04
14.21
13.64
12.97
11.69
9.41
6.03
1.79
-2.84
-7.33
-11.33
-14.72
-17.61
-20.29
-23.09
-26.36
-30.38
-35.27
-40.76
-46.12
-50.14
-51.42
-48.76
-41.64
-30.40
-16.24
-0.85
14.09
27.17
37.49
44.56
48.25
48.70
46.32
41.83
36.20
30.47
25.51
21.80
19.37
17.88
16.84
15.80
14.57
13.14
11.69
10.33
9.03
7.59
5.68
3.00
-0.57
-4.90
-9.64
-14.35
-18.68
-22.52
-26.03
-29.68
-33.93
-39.10
-45.14
-51.53
-57.27
-61.00
-61.34
-57.25
-48.39
-35.28
-19.29
-2.28
13.86
27.61
38.10
45.08
48.77
49.57
48.08
44.88
40.65
36.06
31.72
28.02
25.11
22.84
20.90
18.98
16.97
14.88
12.88
11.04
9.23
7.14
4.37
0.64
-4.02
-9.30
-14.70
-19.76
-24.29
-28.38
-32.44
-36.97
-42.35
-48.63
-55.36
-61.58
-65.90
-66.88
-63.42
-55.08
-42.29
-26.28
-8.76
8.46
23.81
36.23
45.17
50.53
52.58
51.80
48.89
44.65
39.89
35.31
31.38
28.28
25.95
24.16
22.67
21.31
19.98
18.57
16.94
14.87
12.06
8.33
3.67
-1.68
-7.31
-12.81
-17.91
-22.61
-27.20
-32.17
-38.04
-45.14
-53.33
-61.88
-69.42
-74.16
-74.38
-68.94
-57.68
-41.60
-22.52
-2.67
15.94
31.79
44.02
52.31
56.71
57.63
55.70
51.80
46.93
42.05
37.87
34.67
32.38
30.62
29.03
27.38
25.64
23.93
22.28
20.58
18.51
15.76
12.08
7.53
2.41
-2.87
-7.96
-12.71
-17.20
-21.71
-26.61
-32.33
-39.21
-47.30
-56.11
-64.47
-70.59
-72.49
-68.63
-58.49
-42.85
-23.62
-3.28
15.89
32.22
44.91
53.84
59.24
61.49
61.02
58.40
54.41
49.89
45.65
42.17
39.51
37.39
35.38
33.20
30.81
28.49
26.56
25.17
24.12
22.86
20.71
17.14
12.05
5.82
-0.86
-7.25
-12.88
-17.68
-22.06
-26.65
-32.15
-39.02
-47.31
-56.44
-65.12
-71.55
-73.74
-70.17
-60.22
-44.53
-24.87
-3.62
16.76
34.28
47.69
56.47
60.71
60.95
58.02
52.93
46.76
40.49
34.87
30.31
26.94
24.54
22.80
21.29
19.62
17.52
14.81
11.45
7.43
2.82
-2.28
-7.71
-13.33
-19.03
-24.75
-30.55
-36.52
-42.90
-49.97
-57.99
-66.97
-76.42
-85.13
-91.26
-92.74
-87.85
-75.95
-57.89
-35.89
-13.04
7.58
23.59
33.91
38.72
39.16
36.81
33.04
28.65
23.77
18.12
11.38
3.73
-4.11
-11.07
-16.25
-19.39
-20.87
-21.49
-21.85
-22.26
-22.96
-24.52
-27.81
-33.16
-39.29
-42.89
-39.70
-26.83
-5.01
20.75
43.01
55.25
55.03
45.02
31.30
20.31
15.93
18.61
26.23
36.06
46.16
55.68
64.14
70.79
74.39
73.66
67.98
57.87
44.94
31.34
19.11
9.55
2.96
-1.23
-4.01
-6.38
-9.00
-12.04
-15.40
-18.95
-22.72
-26.97
-31.99
-37.93
-44.61
-51.49
-57.78
-62.79
-66.20
-68.23
-69.56
-71.06
-73.15
-75.45
-76.69
-75.08
-68.97
-57.60
-41.40
-21.89
-1.27
18.22
34.79
47.27
55.16
58.46
57.63
53.49
47.15
39.83
32.57
26.12
20.72
16.22
12.20
8.18
3.76
-1.31
-7.06
-13.33
-19.79
-26.04
-31.65
-36.30
-39.81
-42.19
-43.69
-44.74
-45.91
-47.95
-51.64
-57.63
-66.09
-76.37
-86.89
-95.32
-99.14
-96.40
-86.41
-69.95
-49.09
-26.51
-4.89
13.75
28.21
38.14
43.77
45.73
44.79
41.75
37.35
32.23
27.00
22.23
18.44
15.99
15.03
15.54
17.25
19.78
22.64
25.33
27.31
28.14
27.56
25.54
22.19
17.55
11.45
3.46
-6.84
-19.39
-33.37
-47.09
-58.50
-65.75
-67.84
-64.82
-57.52
-47.06
-34.37
-20.11
-4.80
10.76
25.39
37.66
46.29
50.59
50.60
47.01
40.89
33.56
26.43
21.01
18.44
19.07
22.13
25.85
28.20
27.95
25.36
22.02
19.89
19.95
21.48
22.18
19.24
10.70
-3.65
-22.12
-41.87
-59.76
-73.16
-80.41
-80.90
-74.93
-63.60
-48.56
-31.74
-15.13
-0.51
10.73
17.78
20.56
19.75
16.72
13.09
10.30
9.09
9.36
10.24
10.54
9.26
5.99
1.05
-4.66
-10.00
-13.92
-15.73
-15.21
-12.55
-8.24
-3.04
2.10
6.16
8.26
8.02
5.92
3.28
1.97
3.64
9.08
17.77
28.11
38.02
45.85
50.85
53.28
54.05
54.23
54.65
55.75
57.58
59.85
61.96
63.21
62.95
61.06
58.13
55.49
54.73
56.94
62.00
68.41
73.77
75.68
72.79
65.20
54.35
42.28
30.86
21.33
14.24
9.83
8.32
10.02
15.06
23.11
33.27
44.12
54.09
61.87
66.67
68.24
66.84
62.99
57.39
50.70
43.52
36.29
29.32
22.80
16.88
11.72
7.50
4.30
2.01
0.24
-1.67
-4.48
-8.92
-15.59
-24.80
-36.55
-50.38
-65.41
-80.30
-93.36
-102.88
-107.33
-105.72
-97.78
-84.05
-65.80
-44.94
-23.66
-4.13
12.06
24.19
32.57
38.36
43.01
47.79
53.34
59.62
66.16
72.35
77.73
82.11
85.56
88.20
90.20
91.75
93.11
94.50
96.00
97.39
97.98
96.74
92.56
84.68
73.09
58.65
42.89
27.60
14.28
3.82
-3.58
-8.23
-10.79
-12.05
-12.85
-14.00
-16.15
-19.56
-24.00
-28.65
-32.38
-34.11
-33.21
-29.76
-24.56
-18.89
-14.19
-11.59
-11.69
-14.38
-18.96
-24.25
-29.08
-32.60
-34.68
-36.00
-37.78
-41.32
-47.27
-55.15
-63.18
-68.76
-69.18
-62.64
-48.78
-28.80
-5.04
19.79
43.37
64.14
81.38
94.89
104.72
110.81
113.02
111.27
105.76
97.15
86.54
75.28
64.68
55.67
48.60
43.24
39.03
35.29
31.55
27.59
23.37
18.98
14.49
9.96
5.42
0.84
-3.97
-9.40
-15.93
-23.82
-32.69
-41.42
-48.42
-52.19
-52.10
-48.69
-43.52
-38.54
-35.33
-34.67
-36.43
-39.91
-44.26
-48.72
-52.73
-55.77
-57.32
-56.93
-54.43
-50.06
-44.50
-38.68
-33.43
-29.26
-26.27
-24.22
-22.74
-21.59
-20.84
-20.91
-22.54
-26.54
-33.38
-42.79
-53.42
-63.02
-68.92
-69.00
-62.44
-50.00
-33.68
-16.01
0.82
15.25
26.43
33.93
37.67
37.95
35.71
32.57
30.47
31.11
35.25
42.52
51.60
60.84
68.94
75.33
80.25
84.50
88.97
94.28
100.36
106.40
110.95
112.34
109.20
101.13
88.97
74.72
60.89
49.59
41.74
36.80
33.12
28.70
22.14
13.09
2.33
-8.75
-18.80
-27.14
-34.10
-40.74
-48.41
-58.05
-69.69
-82.45
-94.85
-105.48
-113.51
-118.89
-122.07
-123.54
-123.45
-121.55
-117.59
-111.73
-104.81
-98.13
-92.89
-89.46
-87.05
-83.83
-77.65
-66.90
-51.17
-31.49
-9.88
11.34
30.31
45.99
58.16
67.06
72.99
76.12
76.55
74.54
70.71
66.05
61.71
58.62
57.35
57.90
59.82
62.31
64.42
65.25
64.04
60.32
53.99
45.40
35.24
24.38
13.74
4.03
-4.19
-10.55
-14.67
-16.21
-14.85
-10.51
-3.53
5.21
14.42
22.69
28.75
31.82
31.59
28.11
21.67
12.62
1.48
-11.12
-24.28
-37.06
-48.56
-58.22
-65.84
-71.48
-75.33
-77.45
-77.78
-76.21
-72.82
-68.02
-62.61
-57.52
-53.53
-50.90
-49.27
-47.87
-45.76
-42.28
-37.21
-30.78
-23.55
-16.23
-9.53
-4.01
-0.09
2.06
2.52
1.70
0.27
-1.03
-1.47
-0.52
2.07
6.13
11.15
16.29
20.61
23.28
23.93
22.74
20.42
17.95
16.24
15.83
16.78
18.80
21.60
25.16
29.94
36.67
46.01
58.11
72.41
87.84
103.11
117.26
129.81
140.75
150.30
158.56
165.30
169.93
171.67
169.72
163.49
152.74
137.63
118.74
97.02
73.57
49.44
25.37
1.75
-21.23
-43.50
-64.85
-84.91
-103.22
-119.40
-133.25
-144.76
-154.01
-160.93
-165.25
-166.52
-164.36
-158.79
-150.33
-139.98
-129.01
-118.62
-109.63
-102.39
-96.75
-92.26
-88.28
-84.22
-79.66
-74.45
-68.70
-62.72
-56.88
-51.42
-46.40
-41.68
-37.07
-32.41
-27.74
-23.15
-18.77
-14.72
-11.08
-7.92
-5.35
-3.40
-2.01
-0.87
0.49
2.62
5.85
10.26
15.51
21.12
26.65
31.92
37.11
42.51
48.27
54.23
59.88
64.61
68.09
70.40
72.01
73.48
75.03
76.47
77.22
76.76
74.89
71.97
68.67
65.72
63.56
62.21
61.28
60.11
57.90
53.72
46.69
36.17
21.98
4.60
-14.77
-34.47
-52.71
-67.94
-79.15
-85.97
-88.66
-87.94
-84.81
-80.34
-75.50
-71.02
-67.32
-64.57
-62.70
-61.52
-60.73
-59.96
-58.82
-56.98
-54.29
-50.89
-47.19
-43.76
-41.14
-39.63
-39.28
-39.78
-40.51
-40.63
-39.18
-35.32
-28.51
-18.81
-6.93
5.98
18.55
29.56
38.23
44.25
47.73
49.01
48.59
47.09
45.23
43.78
43.53
45.06
48.71
54.48
62.11
71.15
81.10
91.41
101.50
110.81
118.75
124.88
129.00
131.18
131.72
130.81
128.26
123.43
115.39
103.47
87.77
69.39
50.20
32.12
16.46
3.39
-7.87
-18.62
-29.92
-42.20
-55.17
-68.12
-80.33
-91.33
-100.93
-108.99
-115.31
-119.59
-121.48
-120.81
-117.77
-112.94
-107.27
-101.75
-97.21
-94.09
-92.26
-91.08
-89.53
-86.61
-81.58
-74.30
-65.12
-54.79
-44.08
-33.63
-23.82
-14.88
-7.00
-0.36
4.91
8.87
11.73
13.86
15.60
17.06
18.14
18.53
17.92
16.14
13.28
9.68
5.92
2.64
0.48
-0.07
1.28
4.61
9.78
16.44
24.11
32.24
40.27
47.76
54.52
60.55
66.08
71.38
76.58
81.50
85.54
87.76
87.14
82.99
75.25
64.66
52.61
40.65
29.94
20.93
13.28
6.14
-1.35
-9.73
-19.03
-28.87
-38.73
-48.12
-56.70
-64.32
-70.82
-76.08
-79.83
-81.72
-81.36
-78.46
-73.03
-65.44
-56.39
-46.75
-37.34
-28.71
-21.12
-14.61
-9.15
-4.64
-1.07
1.51
2.90
2.79
0.86
-2.98
-8.34
-14.35
-19.85
-23.86
-25.98
-26.53
-26.18
-25.56
-24.83
-23.69
-21.70
-18.67
-14.93
-11.20
-8.19
-6.24
-5.08
-3.97
-2.01
1.44
6.53
12.90
19.84
26.60
32.58
37.51
41.37
44.40
46.89
49.17
51.60
54.52
58.05
61.94
65.47
67.56
67.24
64.07
58.52
51.76
45.08
39.24
34.00
28.32
21.03
11.76
1.27
-8.66
-16.08
-19.75
-19.71
-17.11
-13.66
-10.92
-9.77
-10.47
-12.90
-16.81
-22.00
-28.16
-34.76
-41.03
-46.16
-49.59
-51.22
-51.44
-50.92
-50.29
-49.88
-49.64
-49.19
-48.19
-46.55
-44.55
-42.78
-41.79
-41.82
-42.56
-43.18
-42.58
-39.76
-34.14
-25.82
-15.60
-4.81
5.01
12.52
16.90
18.11
16.75
13.84
10.44
7.30
4.87
3.32
2.81
3.48
5.41
8.40
11.85
14.86
16.45
15.99
13.43
9.38
4.81
0.70
-2.33
-4.13
-4.94
-5.12
-4.83
-3.91
-1.88
1.90
8.00
16.60
27.34
39.29
50.99
60.83
67.54
70.59
70.45
68.43
66.18
65.04
65.51
67.07
68.50
68.38
65.65
60.06
52.08
42.68
32.86
23.21
13.79
4.20
-6.12
-17.54
-29.92
-42.63
-54.66
-64.92
-72.57
-77.19
-78.77
-77.61
-74.18
-69.02
-62.72
-55.96
-49.39
-43.63
-39.04
-35.67
-33.21
-31.17
-29.04
-26.53
-23.64
-20.62
-17.80
-15.49
-13.85
-12.87
-12.40
-12.17
-11.85
-11.20
-10.17
-9.04
-8.24
-8.15
-8.81
-9.73
-10.04
-8.86
-5.73
-0.92
4.67
9.91
13.92
16.38
17.55
17.93
17.81
17.12
15.43
12.26
7.49
1.54
-4.66
-9.97
-13.49
-14.84
-14.29
-12.60
-10.71
-9.33
-8.79
-8.97
-9.43
-9.54
-8.74
-6.58
-2.86
2.35
8.68
15.47
21.95
27.49
31.70
34.64
36.74
38.48
40.18
41.75
42.68
42.23
39.83
35.34
29.18
22.25
15.59
10.03
5.96
3.27
1.49
0.03
-1.65
-3.95
-7.18
-11.52
-17.03
-23.50
-30.43
-36.97
-42.10
-44.84
-44.56
-41.18
-35.26
-27.87
-20.31
-13.75
-8.92
-5.94
-4.40
-3.64
-2.99
-2.05
-0.78
0.57
1.62
2.00
1.46
-0.13
-2.70
-6.02
-9.75
-13.47
-16.83
-19.59
-21.79
-23.62
-25.36
-27.18
-29.00
-30.45
-31.02
-30.23
-27.87
-24.14
-19.57
-14.81
-10.35
-6.44
-3.01
0.08
2.97
5.72
8.30
10.72
13.08
15.55
18.23
21.20
24.49
28.25
32.74
38.27
44.89
52.10
58.76
63.27
64.20
60.82
53.55
44.00
34.39
26.92
22.99
22.85
25.66
29.96
34.26
37.45
39.02
38.91
37.29
34.32
30.13
24.92
19.11
13.32
8.19
4.22
1.63
0.41
0.43
1.55
3.61
6.46
9.64
12.45
14.16
14.37
13.33
11.80
10.71
10.58
11.43
12.50
12.69
11.19
8.04
4.23
1.22
0.20
1.51
4.96
9.77
15.05
20.29
25.53
31.24
37.99
46.31
56.52
69.25
84.61
101.63
117.96
130.28
135.26
130.83
117.07
92.93
60.66
24.81
-9.26
-37.30
-57.41
-69.91
-76.26
-77.84
-76.23
-72.30
-66.87
-60.76
-54.66
-48.83
-43.05
-36.96
-30.37
-23.87
-18.29
-14.97
-15.51
-21.50
-34.11
-53.76
-79.86
-108.70
-136.98
-161.53
-180.09
-191.56
-195.91
-193.72
-185.68
-175.26
-162.21
-146.75
-129.53
-111.58
-93.89
-77.07
-61.11
-45.52
-29.65
-12.56
5.50
23.73
41.13
56.79
70.18
81.02
89.15
94.51
97.35
97.31
93.96
87.23
77.62
66.20
54.25
42.96
32.96
24.50
16.95
9.56
1.79
-6.42
-14.77
-22.80
-30.21
-37.01
-43.41
-49.80
-56.34
-62.71
-68.15
-71.65
-72.30
-69.51
-63.25
-53.95
-42.54
-30.18
-18.01
-6.96
2.56
10.68
18.02
25.32
33.02
40.88
47.97
52.97
54.70
52.73
47.53
40.41
32.99
26.72
22.49
20.56
20.59
21.72
22.56
21.36
16.37
6.45
-8.19
-25.80
-43.39
-57.62
-65.86
-66.96
-61.39
-50.78
-37.21
-22.59
-8.41
4.26
14.61
22.09
26.51
28.15
27.72
26.22
24.50
23.01
21.69
20.06
17.60
14.14
10.04
6.16
3.44
2.44
3.00
4.27
5.10
4.53
2.28
-1.13
-4.66
-7.22
-8.24
-7.81
-6.67
-5.75
-5.79
-6.92
-8.73
-10.40
-11.07
-10.19
-7.67
-3.88
0.54
4.91
8.74
11.79
14.13
16.08
18.03
20.37
23.38
27.05
31.07
34.76
37.22
37.54
35.23
30.43
24.04
17.58
12.70
10.66
11.94
16.05
21.77
27.54
31.92
33.95
33.32
30.30
25.55
19.83
13.78
7.79
2.03
-3.46
-8.56
-13.05
-16.66
-19.19
-20.72
-21.62
-22.41
-23.60
-25.48
-28.02
-31.00
-34.13
-37.15
-39.82
-41.85
-42.83
-42.35
-40.13
-36.27
-31.24
-25.74
-20.41
-15.56
-11.13
-6.82
-2.33
2.31
6.81
10.67
13.46
14.96
15.23
14.49
12.96
10.83
8.15
4.88
1.04
-3.29
-7.86
-12.31
-16.25
-19.36
-21.47
-22.62
-22.92
-22.46
-21.23
-19.05
-15.78
-11.29
-5.61
1.24
9.25
18.48
28.86
39.92
50.67
59.63
65.24
66.40
62.90
55.59
46.10
36.32
27.81
21.42
17.28
14.93
13.70
12.90
12.01
10.63
8.43
5.14
0.62
-5.08
-11.66
-18.59
-25.22
-30.81
-34.75
-36.58
-36.15
-33.58
-29.29
-23.89
-18.02
-12.26
-7.02
-2.57
0.93
3.44
5.04
5.94
6.50
7.13
7.98
8.91
9.37
8.75
6.63
3.11
-1.23
-5.57
-9.24
-11.99
-13.96
-15.53
-17.07
-18.71
-20.40
-21.95
-23.18
-23.87
-23.78
-22.59
-20.04
-16.00
-10.63
-4.39
2.05
7.97
12.83
16.42
18.89
20.64
22.21
24.03
26.30
29.00
31.97
34.98
37.94
40.87
43.88
47.18
50.95
55.32
60.29
65.63
70.91
75.62
79.41
82.21
84.25
85.89
87.27
88.08
87.42
84.03
76.69
64.67
48.16
28.25
6.89
-13.66
-31.27
-44.57
-53.23
-57.94
-60.13
-61.38
-62.96
-65.50
-68.99
-72.98
-76.88
-80.08
-82.12
-82.65
-81.44
-78.49
-74.11
-69.01
-64.13
-60.35
-58.19
-57.52
-57.51
-56.85
-54.17
-48.50
-39.68
-28.51
-16.56
-5.80
2.08
6.24
6.94
5.43
3.40
2.24
2.51
3.89
5.46
6.36
6.13
4.85
2.85
0.38
-2.55
-6.14
-10.52
-15.51
-20.62
-25.25
-28.99
-31.74
-33.63
-34.84
-35.35
-34.79
-32.64
-28.38
-21.84
-13.31
-3.58
6.30
15.26
22.44
27.42
30.23
31.34
31.51
31.66
32.63
34.99
38.84
43.83
49.32
54.61
59.21
62.85
65.40
66.58
65.83
62.39
55.57
45.15
31.67
16.38
1.05
-12.51
-22.79
-28.88
-30.58
-28.40
-23.39
-16.80
-9.82
-3.28
2.39
7.11
10.91
13.85
15.93
17.18
17.78
18.16
19.08
21.35
25.57
31.66
38.68
44.97
48.60
48.06
42.76
33.22
20.78
7.11
-6.41
-18.86
-29.78
-38.92
-46.09
-51.10
-53.79
-54.16
-52.21
-48.02
-41.71
-33.63
-24.52
-15.51
-7.95
-2.96
-1.06
-1.94
-4.59
-7.79
-10.48
-12.17
-12.88
-12.98
-12.88
-12.87
-13.09
-13.60
-14.57
-16.16
-18.49
-21.45
-24.70
-27.64
-29.66
-30.25
-29.17
-26.46
-22.38
-17.32
-11.68
-5.89
-0.32
4.68
8.84
11.99
14.08
15.19
15.56
15.53
15.55
16.03
17.32
19.57
22.73
26.50
30.50
34.39
37.90
40.91
43.33
45.01
45.73
45.24
43.49
40.74
37.66
35.16
34.16
35.21
38.30
42.77
47.48
51.01
52.09
49.85
44.10
35.49
25.25
14.96
6.00
-0.85
-5.56
-8.75
-11.31
-13.99
-17.09
-20.44
-23.53
-25.81
-26.91
-26.72
-25.40
-23.28
-20.72
-18.01
-15.35
-12.84
-10.52
-8.42
-6.49
-4.59
-2.49
0.07
3.19
6.76
10.39
13.50
15.51
16.06
15.13
13.14
10.87
9.24
9.05
10.68
13.94
17.98
21.66
23.79
23.69
21.38
17.59
13.49
10.29
8.87
9.50
11.91
15.41
19.29
23.13
26.92
31.08
36.28
43.11
51.89
62.57
74.72
87.57
100.17
111.52
120.78
127.47
131.55
133.43
133.72
132.91
131.24
128.59
124.65
119.23
112.37
104.32
95.49
86.18
76.56
66.70
56.70
46.67
36.80
27.22
17.87
8.55
-1.00
-10.91
-21.01
-30.83
-39.75
-47.28
-53.36
-58.30
-62.64
-66.78
-70.69
-73.84
-75.47
-74.94
-72.05
-67.25
-61.35
-55.12
-48.84
-42.20
-34.34
-24.30
-11.55
3.99
21.76
40.85
60.22
78.74
95.02
107.58
115.41
118.86
120.21
123.10
130.87
144.56
161.82
177.49
185.66
182.15
165.82
138.15
101.61
58.17
9.01
-44.47
-99.28
-150.52
-192.54
-221.06
-234.86
-236.15
-229.22
-218.58
-207.53
-197.38
-188.23
-179.84
-172.40
-166.52
-162.69
-160.64
-159.18
-156.53
-151.15
-142.46
-131.20
-119.12
-108.24
-100.10
-95.25
-93.31
-93.15
-93.21
-91.66
-86.53
-76.16
-59.89
-38.75
-15.66
5.16
19.56
25.00
21.44
11.22
-2.02
-14.86
-25.10
-32.08
-36.17
-38.06
-38.15
-36.49
-33.04
-27.99
-21.89
-15.54
-9.70
-4.88
-1.21
1.47
3.41
4.74
5.40
5.17
3.82
1.31
-2.12
-5.93
-9.40
-11.76
-12.49
-11.40
-8.83
-5.52
-2.42
-0.35
0.19
-0.83
-3.02
-5.81
-8.60
-10.91
-12.47
-13.04
-12.47
-10.67
-7.68
-3.75
0.66
4.94
8.51
10.93
12.06
11.99
11.06
9.59
7.89
6.11
4.30
2.54
1.00
-0.06
-0.37
0.20
1.53
3.22
4.67
5.39
5.02
3.56
1.30
-1.32
-3.75
-5.50
-6.17
-5.58
-3.71
-0.81
2.68
6.16
9.01
10.81
11.41
10.96
9.86
8.58
7.45
6.61
6.02
5.51
4.92
4.14
3.13
1.92
0.56
-0.87
-2.28
-3.58
-4.71
-5.71
-6.65
-7.63
-8.59
-9.37
-9.60
-8.92
-7.07
-4.03
-0.10
4.19
8.16
11.22
12.97
13.33
12.50
10.85
8.82
6.80
5.08
3.82
3.09
2.88
3.09
3.53
3.96
4.17
4.03
3.52
2.77
1.88
0.89
-0.30
-1.82
-3.72
-5.83
-7.73
-8.89
-8.87
-7.48
-4.89
-1.58
1.90
5.01
7.38
8.88
9.60
9.77
9.73
9.72
9.88
10.14
10.26
9.98
9.06
7.49
5.39
3.06
0.76
-1.28
-2.96
-4.32
-5.48
-6.62
-7.92
-9.49
-11.31
-13.15
-14.62
-15.24
-14.61
-12.56
-9.24
-5.07
-0.64
3.49
6.88
9.26
10.56
10.84
10.24
8.94
7.19
5.23
3.33
1.73
0.56
-0.15
-0.54
-0.85
-1.31
-2.00
-2.85
-3.65
-4.23
-4.52
-4.59
-4.54
-4.32
-3.74
-2.52
-0.53
2.08
4.87
7.24
8.67
8.88
7.92
6.07
3.70
1.20
-1.15
-3.13
-4.61
-5.58
-6.09
-6.24
-6.11
-5.74
-5.08
-4.10
-2.79
-1.24
0.41
1.95
3.17
3.86
3.86
3.16
1.91
0.49
-0.60
-0.89
-0.17
1.42
3.41
5.22
6.40
6.80
6.60
6.16
5.83
5.83
6.14
6.66
7.14
7.35
7.05
6.05
4.26
1.76
-1.14
-4.02
-6.44
-8.08
-8.86
-8.94
-8.61
-8.17
-7.82
-7.60
-7.45
-7.20
-6.70
-5.86
-4.69
-3.28
-1.84
-0.63
0.09
0.17
-0.45
-1.67
-3.30
-5.14
-7.00
-8.76
-10.41
-11.99
-13.51
-14.99
-16.40
-17.74
-19.07
-20.53
-22.29
-24.49
-27.15
-30.16
-33.31
-36.39
-39.19
-41.44
-42.78
-42.67
-40.52
-35.83
-28.39
-18.26
-5.65
9.17
25.94
44.23
63.15
81.22
96.59
107.70
113.85
115.66
114.84
113.45
113.05
114.06
115.69
116.39
114.59
109.38
100.81
89.74
77.48
65.34
54.34
45.10
37.85
32.59
29.18
27.37
26.87
27.41
28.68
30.26
31.70
32.29
31.37
28.58
24.27
19.83
17.70
21.00
32.72
54.46
85.13
120.42
153.29
175.67
180.90
165.92
132.37
85.96
34.58
-14.27
-55.39
-86.75
-108.85
-123.58
-132.97
-138.41
-140.70
-140.28
-137.63
-133.44
-128.46
-123.38
-118.32
-112.99
-106.88
-99.73
-91.87
-84.19
-77.76
-73.46
-71.50
-71.50
-72.78
-74.79
-77.20
-79.64
-81.27
-80.60
-75.98
-66.46
-52.68
-37.04
-23.04
-13.88
-11.23
-14.63
-21.99
-30.54
-38.03
-43.16
-45.59
-45.48
-43.15
-38.96
-33.47
-27.55
-22.26
-18.58
-17.04
-17.49
-19.22
-21.23
-22.71
-23.29
-23.15
-22.74
-22.46
-22.49
-22.65
-22.60
-22.06
-21.01
-19.75
-18.80
-18.67
-19.58
-21.39
-23.45
-24.82
-24.54
-21.97
-16.99
-10.15
-2.44
4.99
11.14
15.43
17.75
18.40
17.89
16.80
15.57
14.49
13.62
12.93
12.33
11.68
10.87
9.76
8.21
6.10
3.33
-0.10
-4.14
-8.64
-13.41
-18.15
-22.48
-25.99
-28.35
-29.42
-29.35
-28.46
-27.09
-25.35
-22.97
-19.40
-14.02
-6.57
2.59
12.39
21.24
27.44
29.81
28.01
22.68
15.20
7.20
0.04
-5.60
-9.66
-12.54
-14.66
-16.18
-16.90
-16.44
-14.35
-10.44
-4.77
2.30
10.28
18.65
26.90
34.50
40.86
45.41
47.69
47.51
45.06
40.84
35.51
29.61
23.35
16.68
9.42
1.51
-6.77
-14.87
-22.10
-28.01
-32.53
-36.14
-39.63
-43.85
-49.26
-55.64
-61.96
-66.61
-67.92
-64.66
-56.50
-44.08
-28.76
-12.17
4.24
19.46
32.92
44.28
53.36
60.06
64.43
66.82
67.72
67.64
66.87
65.38
63.05
59.95
56.56
53.47
50.93
48.27
43.97
36.25
24.16
8.37
-8.77
-24.05
-34.68
-39.36
-38.49
-33.63
-26.56
-18.52
-10.08
-1.46
6.96
14.44
20.05
23.03
23.20
20.99
17.40
13.57
10.47
8.58
7.90
8.06
8.60
9.16
9.65
9.98
9.95
9.04
6.60
2.25
-3.71
-10.11
-15.29
-17.71
-16.56
-11.98
-4.87
3.70
12.80
21.74
29.69
35.47
37.61
34.91
27.15
15.48
2.17
-10.20
-19.67
-25.51
-28.20
-28.86
-28.70
-28.46
-28.46
-28.73
-29.20
-29.86
-30.65
-31.34
-31.37
-29.95
-26.14
-19.22
-8.86
4.67
20.52
37.43
54.08
69.41
82.78
93.96
102.94
109.80
114.58
117.37
118.36
117.89
116.42
114.52
112.74
111.19
109.18
104.89
95.70
79.14
54.09
21.77
-14.27
-49.12
-78.21
-98.68
-109.85
-112.79
-109.20
-100.59
-88.03
-72.58
-55.72
-39.49
-25.95
-16.43
-10.99
-8.45
-7.06
-5.39
-3.00
-0.53
0.80
-0.05
-3.31
-8.32
-13.72
-18.13
-20.64
-21.05
-19.78
-17.57
-15.22
-13.40
-12.67
-13.42
-15.97
-20.45
-26.66
-33.88
-40.88
-46.10
-48.04
-45.73
-39.11
-29.08
-17.19
-5.13
5.73
14.63
21.44
26.41
29.85
31.95
32.74
32.14
30.17
27.05
23.17
19.08
15.27
12.12
9.92
8.87
9.21
11.19
14.90
20.18
26.38
32.53
37.50
40.53
41.54
41.32
41.30
43.08
47.79
55.55
65.46
75.88
85.04
91.59
94.92
95.12
92.77
88.65
83.47
77.76
71.76
65.31
57.96
49.05
38.10
25.30
11.53
-1.77
-13.00
-20.88
-24.88
-25.37
-23.48
-20.70
-18.05
-16.16
-15.16
-14.70
-14.04
-12.20
-8.16
-1.14
9.11
23.13
40.53
60.18
80.40
99.46
116.09
129.81
140.82
149.64
158.31
168.36
180.74
195.67
212.89
232.10
253.16
276.05
300.45
327.40
356.44
385.59
411.44
430.15
438.91
437.22
426.99
398.96
349.30
278.54
192.81
102.29
17.68
-52.97
-105.73
-140.67
-160.68
-166.76
-163.31
-154.48
-143.79
-134.05
-127.31
-124.86
-127.60
-136.45
-150.98
-169.57
-190.65
-213.13
-236.44
-260.08
-282.95
-303.34
-319.12
-327.59
-327.64
-320.26
-308.36
-295.60
-284.85
-277.03
-271.59
-266.90
-260.91
-252.50
-241.57
-228.98
-216.00
-203.66
-192.19
-181.56
-171.01
-159.19
-145.19
-129.22
-112.80
-98.16
-87.24
-80.67
-78.86
-81.49
-87.63
-95.91
-104.60
-111.73
-115.78
-116.20
-114.00
-113.08
-118.00
-131.63
-153.86
-181.76
-211.17
-238.56
-262.08
-270.59
-256.31
-215.93
-151.74
-71.21
15.50
98.69
171.20
229.05
268.92
292.14
300.46
296.01
281.78
261.83
240.72
222.27
208.67
201.19
197.94
195.50
191.17
184.09
175.13
165.95
157.80
151.05
145.31
139.15
130.86
119.22
103.79
84.89
63.92
43.19
25.74
14.55
11.32
15.93
26.74
40.96
54.68
63.86
65.54
59.10
47.15
34.79
27.72
29.47
39.41
51.54
57.45
49.84
25.67
-12.93
-59.99
-108.57
-153.10
-190.45
-221.05
-246.31
-267.55
-285.52
-300.63
-313.03
-322.75
-329.34
-331.58
-329.59
-323.43
-313.24
-299.53
-283.03
-264.53
-244.66
-223.86
-193.24
-148.18
-87.95
-16.26
60.07
133.48
197.36
246.43
276.32
288.44
285.63
273.99
261.81
256.67
262.36
277.15
294.37
304.88
301.34
279.70
241.64
193.13
141.45
92.77
50.95
17.68
-6.42
-21.09
-27.86
-29.34
-29.12
-31.07
-37.79
-49.16
-62.02
-71.17
-71.60
-61.88
-44.71
-25.97
-11.85
-5.64
-6.03
-7.94
-5.19
6.68
28.50
57.94
91.08
123.93
153.17
175.93
189.44
191.17
179.71
155.51
121.34
81.75
42.14
7.70
-17.70
-32.19
-36.28
-32.51
-24.64
-16.24
-9.74
-6.11
-5.50
-8.17
-14.81
-26.05
-41.36
-58.33
-73.06
-81.76
-82.80
-77.89
-71.76
-70.18
-77.18
-93.09
-113.99
-133.21
-143.80
-141.04
-124.15
-96.44
-64.35
-35.46
-16.25
-10.34
-17.45
-33.72
-53.04
-69.04
-77.29
-76.62
-69.45
-60.59
-55.21
-56.67
-65.35
-78.79
-93.08
-104.47
-110.56
-110.51
-104.30
-92.12
-74.14
-51.04
-24.82
0.95
21.79
33.78
35.10
26.86
12.63
-2.94
-15.79
-23.66
-26.31
-25.05
-21.72
-17.86
-14.25
-11.05
-8.15
-5.60
-3.73
-3.02
-3.76
-5.72
-8.13
-9.86
-9.85
-7.58
-3.51
0.79
2.84
-0.28
-11.30
-31.91
-62.08
-99.41
-139.16
-174.90
-200.01
-209.36
-200.89
-176.09
-139.52
-97.37
-55.64
-18.83
10.82
33.18
49.66
62.47
73.82
85.37
97.67
110.04
120.70
127.49
128.65
123.49
112.70
97.98
81.43
64.83
49.29
35.23
22.80
12.11
3.46
-2.82
-6.68
-8.54
-9.36
-10.43
-13.01
-17.86
-25.08
-33.92
-42.77
-49.39
-51.34
-46.74
-34.99
-17.18
4.09
25.55
44.37
59.12
70.31
80.08
91.21
105.72
123.67
142.68
158.62
166.93
164.61
151.46
130.33
106.05
83.61
66.36
55.24
49.22
46.37
44.93
43.71
41.85
38.37
32.06
21.95
7.96
-8.68
-25.75
-40.78
-52.23
-60.01
-65.50
-70.73
-77.49
-86.44
-96.95
-107.36
-115.63
-120.08
-119.96
-115.61
-108.19
-99.27
-90.17
-81.64
-73.73
-66.05
-58.15
-49.73
-40.79
-31.44
-21.73
-11.53
-0.44
12.07
26.64
43.77
63.46
84.82
105.86
123.79
135.81
140.22
137.09
128.33
116.85
105.41
95.58
87.52
80.39
73.21
65.57
57.67
49.98
42.67
35.31
27.03
17.00
4.94
-8.51
-21.83
-33.13
-40.66
-43.36
-41.10
-34.52
-24.72
-12.87
-0.08
12.75
24.68
34.74
42.04
45.94
46.41
44.12
40.34
36.50
33.78
32.60
32.64
33.04
32.80
31.20
28.01
23.53
18.34
13.06
8.07
3.50
-0.77
-4.97
-9.32
-13.89
-18.61
-23.22
-27.42
-30.94
-33.68
-35.80
-37.78
-40.20
-43.58
-48.03
-53.06
-57.53
-59.92
-58.84
-53.51
-44.06
-31.48
-17.26
-2.92
10.35
21.73
30.82
37.37
41.33
42.79
42.20
40.24
37.73
35.42
33.68
32.49
31.47
30.15
28.19
25.53
22.37
19.05
15.81
12.69
9.49
5.84
1.46
-3.75
-9.61
-15.73
-21.70
-27.21
-32.20
-36.76
-41.14
-45.55
-50.15
-54.86
-59.30
-62.72
-64.11
-62.39
-56.69
-46.80
-33.27
-17.42
-0.95
14.48
27.65
38.01
45.50
50.41
53.07
53.77
52.77
50.34
46.92
42.99
39.10
35.61
32.68
30.24
28.04
25.82
23.37
20.63
17.57
14.24
10.59
6.55
2.02
-3.01
-8.39
-13.91
-19.25
-24.26
-28.96
-33.63
-38.64
-44.22
-50.15
-55.60
-59.32
-59.94
-56.48
-48.74
-37.37
-23.71
-9.31
4.38
16.31
25.83
32.67
36.84
38.54
38.15
36.17
33.15
29.59
25.96
22.63
19.91
17.99
16.92
16.47
16.25
15.73
14.48
12.30
9.28
5.81
2.37
-0.61
-2.96
-4.79
-6.42
-8.24
-10.53
-13.34
-16.53
-19.62
-21.89
-22.32
-19.73
-12.97
-1.30
15.39
36.38
60.47
86.28
112.75
139.14
164.66
187.87
206.20
216.25
214.79
200.01
172.49
135.16
92.24
47.80
4.71
-35.62
-72.72
-106.23
-135.50
-159.75
-178.60
-192.43
-202.21
-208.99
-213.43
-215.62
-215.34
-212.47
-207.36
-200.87
-194.05
-187.88
-182.72
-178.15
-172.81
-164.69
-151.61
-131.92
-105.03
-71.60
-33.36
7.30
47.69
85.06
116.59
139.65
152.18
153.32
143.96
126.65
105.04
82.85
62.93
46.69
34.18
24.59
16.91
10.36
4.53
-0.72
-5.42
-9.52
-12.83
-14.91
-15.13
-13.08
-8.85
-3.48
1.20
3.02
0.46
-6.61
-16.57
-26.50
-33.11
-33.96
-28.24
-16.91
-2.12
13.63
28.25
40.38
49.38
54.95
57.06
55.80
51.58
45.16
37.57
29.86
22.81
16.74
11.49
6.61
1.57
-4.02
-10.21
-16.75
-23.08
-28.58
-32.68
-35.12
-36.02
-35.86
-35.35
-35.19
-35.82
-37.27
-39.10
-40.39
-39.95
-36.50
-28.94
-16.68
0.14
20.61
43.14
65.65
85.96
102.09
112.46
116.23
113.30
104.42
91.02
74.98
58.25
42.52
28.92
17.90
9.32
2.65
-2.71
-7.24
-11.16
-14.40
-16.86
-18.52
-19.55
-20.35
-21.44
-23.32
-26.43
-31.06
-37.35
-45.08
-53.51
-61.30
-66.68
-67.83
-63.48
-53.43
-38.59
-20.79
-2.19
15.34
30.56
42.95
52.49
59.32
63.58
65.29
64.54
61.55
56.85
51.12
45.08
39.21
33.68
28.36
23.01
17.51
11.97
6.64
1.74
-2.73
-7.05
-11.63
-16.87
-22.99
-30.02
-37.91
-46.45
-55.24
-63.48
-69.89
-72.89
-71.03
-63.57
-50.80
-34.08
-15.37
3.36
20.55
35.29
47.17
55.99
61.65
64.10
63.48
60.30
55.38
49.71
44.18
39.31
35.19
31.48
27.71
23.49
18.75
13.75
8.89
4.49
0.57
-3.16
-7.20
-12.01
-17.93
-25.00
-33.02
-41.43
-49.32
-55.41
-58.22
-56.49
-49.58
-37.82
-22.52
-5.57
11.08
25.97
38.31
47.91
54.79
59.02
60.62
59.73
56.78
52.51
47.81
43.42
39.70
36.52
33.51
30.26
26.53
22.40
18.10
13.92
10.06
6.54
3.21
-0.20
-3.98
-8.49
-13.99
-20.62
-28.17
-35.91
-42.62
-46.73
-46.82
-42.03
-32.49
-19.30
-4.26
10.72
24.13
35.10
43.43
49.22
52.69
53.88
52.84
49.73
44.97
39.26
33.42
28.14
23.73
20.15
17.06
14.05
10.85
7.34
3.63
-0.13
-3.77
-7.15
-10.21
-12.91
-15.33
-17.65
-20.22
-23.47
-27.78
-33.28
-39.65
-46.07
-51.25
-53.77
-52.40
-46.50
-36.24
-22.58
-7.05
8.60
22.83
34.51
43.08
48.41
50.77
50.61
48.50
45.05
40.84
36.34
31.90
27.67
23.71
20.03
16.65
13.67
11.15
9.13
7.48
6.02
4.46
2.59
0.31
-2.39
-5.41
-8.69
-12.20
-16.02
-20.32
-25.31
-31.11
-37.65
-44.59
-51.22
-56.49
-59.24
-58.41
-53.41
-44.37
-32.11
-17.99
-3.56
9.81
21.15
29.95
36.14
39.87
41.45
41.23
39.65
37.18
34.33
31.53
29.07
27.06
25.44
24.06
22.71
21.28
19.65
17.78
15.61
13.10
10.23
7.05
3.68
0.29
-2.96
-5.97
-8.74
-11.41
-14.23
-17.56
-21.72
-26.78
-32.40
-37.71
-41.48
-42.44
-39.73
-33.19
-23.47
-11.78
0.49
12.11
22.16
30.14
35.86
39.35
40.81
40.67
39.47
37.84
36.30
35.12
34.25
33.40
32.21
30.37
27.84
24.80
21.61
18.57
15.81
13.25
10.65
7.78
4.55
1.00
-2.67
-6.31
-9.87
-13.45
-17.24
-21.46
-26.23
-31.54
-37.16
-42.64
-47.28
-50.25
-50.74
-48.18
-42.51
-34.18
-24.10
-13.41
-3.15
5.90
13.28
18.84
22.56
24.53
24.91
23.96
22.08
19.71
17.36
15.37
13.97
13.11
12.61
12.23
11.81
11.25
10.56
9.80
8.97
7.97
6.67
4.89
2.55
-0.34
-3.61
-7.01
-10.32
-13.36
-16.08
-18.60
-21.13
-23.94
-27.25
-31.11
-35.25
-39.02
-41.51
-41.73
-38.98
-33.08
-24.48
-14.15
-3.25
7.19
16.46
24.23
30.40
34.89
37.61
38.48
37.59
35.29
32.15
28.80
25.72
23.10
20.85
18.75
16.59
14.32
12.04
9.93
8.14
6.73
5.65
4.76
3.90
2.87
1.55
-0.11
-2.11
-4.32
-6.64
-8.95
-11.17
-13.27
-15.26
-17.16
-19.08
-21.15
-23.59
-26.56
-30.09
-33.95
-37.53
-40.00
-40.51
-38.48
-33.82
-26.97
-18.75
-10.04
-1.60
6.07
12.69
18.08
22.09
24.61
25.59
25.16
23.61
21.40
18.98
16.74
14.85
13.33
12.04
10.83
9.59
8.33
7.11
5.97
4.84
3.57
2.00
0.04
-2.26
-4.72
-7.18
-9.50
-11.70
-13.87
-16.07
-18.25
-20.30
-22.08
-23.58
-24.97
-26.50
-28.46
-31.02
-34.15
-37.56
-40.74
-43.07
-43.89
-42.66
-39.10
-33.27
-25.62
-16.89
-7.94
0.46
7.70
13.45
17.58
20.09
21.10
20.80
19.47
17.44
15.11
12.82
10.82
9.20
7.89
6.71
5.48
4.14
2.79
1.57
0.69
0.13
-0.33
-1.03
-2.37
-4.58
-7.56
-10.96
-14.29
-17.17
-19.45
-21.26
-22.90
-24.71
-26.82
-29.27
-31.95
-34.70
-37.31
-39.43
-40.51
-39.91
-37.02
-31.59
-23.86
-14.58
-4.79
4.50
12.59
19.13
24.09
27.57
29.67
30.52
30.23
29.06
27.38
25.60
24.08
22.98
22.27
21.73
21.06
20.03
18.57
16.84
15.10
13.65
12.61
11.87
11.13
10.03
8.30
5.93
3.11
0.13
-2.73
-5.33
-7.71
-9.98
-12.26
-14.64
-17.24
-20.16
-23.42
-26.84
-29.93
-31.90
-31.94
-29.48
-24.47
-17.45
-9.30
-0.99
6.78
13.64
19.51
24.41
28.29
31.04
32.53
32.76
31.88
30.21
28.10
25.89
23.78
21.84
20.03
18.22
16.29
14.16
11.89
9.59
7.44
5.53
3.81
2.14
0.23
-2.09
-4.87
-8.01
-11.31
-14.65
-18.02
-21.45
-24.95
-28.48
-31.91
-35.18
-38.34
-41.48
-44.70
-47.86
-50.53
-52.10
-51.91
-49.51
-44.83
-38.17
-30.14
-21.51
-13.03
-5.27
1.43
6.95
11.37
14.83
17.45
19.33
20.55
21.21
21.43
21.38
21.10
20.59
19.71
18.32
16.39
14.02
11.47
9.05
7.00
5.43
4.32
3.54
2.94
2.33
1.53
0.33
-1.41
-3.79
-6.75
-10.07
-13.47
-16.68
-19.57
-22.22
-24.83
-27.71
-31.09
-34.95
-38.97
-42.46
-44.54
-44.33
-41.31
-35.46
-27.36
-17.98
-8.43
0.42
8.08
14.48
19.84
24.41
28.37
31.70
34.28
36.00
36.90
37.24
37.47
38.07
39.36
41.43
44.14
47.15
50.06
52.49
54.23
55.36
56.44
58.57
63.26
71.90
85.21
102.73
122.60
141.85
156.99
164.71
162.58
149.57
126.29
95.00
59.26
23.32
-8.80
-34.12
-51.22
-60.39
-63.26
-62.20
-59.62
-57.36
-56.32
-56.37
-56.54
-55.60
-52.58
-47.23
-40.15
-32.36
-24.93
-18.67
-13.98
-10.59
-7.42
-2.68
5.38
17.43
32.04
45.48
52.77
49.81
35.35
11.84
-15.45
-40.68
-59.76
-71.59
-77.57
-80.20
-81.47
-82.21
-82.41
-82.01
-81.38
-81.27
-82.32
-84.61
-87.42
-89.59
-90.14
-88.87
-86.42
-84.00
-82.71
-82.98
-84.17
-84.75
-82.89
-77.20
-67.34
-54.19
-39.52
-25.35
-13.30
-4.21
1.91
5.58
7.38
7.74
6.88
4.95
2.19
-0.99
-4.07
-6.58
-8.26
-9.11
-9.32
-9.13
-8.71
-8.16
-7.49
-6.71
-5.89
-5.16
-4.69
-4.61
-4.98
-5.84
-7.11
-8.71
-10.47
-12.23
-13.88
-15.43
-17.05
-19.01
-21.63
-25.05
-29.14
-33.32
-36.69
-38.17
-36.82
-32.17
-24.41
-14.31
-3.04
8.24
18.66
27.74
35.31
41.36
45.84
48.67
49.85
49.52
48.01
45.76
43.18
40.51
37.77
34.90
31.84
28.71
25.76
23.29
21.46
20.26
19.41
18.53
17.27
15.39
12.95
10.16
7.38
4.96
3.08
1.75
0.75
-0.28
-1.75
-4.01
-7.25
-11.33
-15.73
-19.61
-21.92
-21.75
-18.58
-12.52
-4.26
5.12
14.46
22.84
29.67
34.71
37.99
39.64
39.88
38.99
37.25
34.93
32.22
29.21
25.94
22.50
19.02
15.71
12.72
10.10
7.79
5.63
3.39
0.93
-1.85
-4.98
-8.40
-12.06
-15.83
-19.60
-23.22
-26.63
-29.85
-33.00
-36.30
-39.87
-43.60
-47.07
-49.51
-50.03
-47.89
-42.78
-35.00
-25.42
-15.20
-5.43
3.08
9.90
14.91
18.16
19.75
19.81
18.63
16.67
14.62
13.18
12.92
14.08
16.47
19.62
22.88
25.69
27.65
28.64
28.64
27.70
25.83
23.02
19.33
14.90
9.97
4.81
-0.43
-5.73
-11.23
-16.97
-22.85
-28.38
-32.74
-34.98
-34.26
-30.14
-22.72
-12.59
-0.65
12.00
24.29
35.21
43.90
49.69
52.25
51.65
48.34
43.13
36.92
30.56
24.71
19.74
15.80
12.75
10.30
8.06
5.67
2.92
-0.16
-3.34
-6.38
-9.09
-11.51
-13.80
-16.16
-18.79
-21.77
-25.17
-29.08
-33.59
-38.55
-43.49
-47.49
-49.45
-48.40
-43.91
-36.28
-26.47
-15.69
-5.09
4.62
13.13
20.43
26.57
31.51
35.08
37.11
37.49
36.37
34.13
31.24
28.24
25.46
23.02
20.80
18.55
16.03
13.09
9.71
5.94
1.88
-2.41
-6.85
-11.41
-16.07
-20.81
-25.70
-30.86
-36.47
-42.62
-49.11
-55.35
-60.31
-62.77
-61.64
-56.44
-47.44
-35.69
-22.63
-9.76
1.83
11.60
19.43
25.48
29.95
33.00
34.71
35.19
34.63
33.26
31.33
29.05
26.55
23.94
21.34
18.89
16.68
14.69
12.79
10.72
8.21
5.15
1.60
-2.24
-6.14
-9.97
-13.69
-17.46
-21.49
-26.01
-31.14
-36.83
-42.71
-48.03
-51.78
-52.85
-50.40
-44.14
-34.53
-22.57
-9.57
3.25
14.97
25.07
33.28
39.50
43.70
45.96
46.53
45.78
44.15
41.99
39.52
36.78
33.76
30.57
27.42
24.63
22.40
20.71
19.31
17.73
15.56
12.51
8.59
4.01
-0.90
-5.82
-10.55
-15.02
-19.27
-23.45
-27.79
-32.48
-37.65
-43.09
-48.19
-51.93
-53.10
-50.69
-44.28
-34.21
-21.54
-7.72
5.87
18.20
28.72
37.30
43.92
48.62
51.39
52.29
51.53
49.54
46.89
44.10
41.46
38.99
36.51
33.80
30.79
27.63
24.54
21.72
19.18
16.74
14.11
11.06
7.50
3.44
-0.92
-5.39
-9.76
-13.82
-17.49
-20.81
-23.98
-27.37
-31.41
-36.33
-42.08
-48.17
-53.70
-57.59
-58.76
-56.51
-50.57
-41.27
-29.40
-16.05
-2.37
10.58
22.04
31.55
38.96
44.35
47.92
49.90
50.56
50.21
49.18
47.81
46.36
44.93
43.49
41.94
40.22
38.35
36.49
34.73
33.06
31.31
29.22
26.61
23.42
19.78
15.91
11.97
8.11
4.30
0.46
-3.48
-7.56
-11.78
-16.01
-20.08
-23.83
-27.13
-30.03
-32.68
-35.42
-38.58
-42.48
-47.21
-52.55
-57.93
-62.46
-65.08
-64.75
-60.82
-53.22
-42.55
-29.97
-16.87
-4.49
6.34
15.27
22.33
27.73
31.67
34.27
35.65
35.96
35.48
34.55
33.44
32.29
31.11
29.85
28.49
27.10
25.80
24.63
23.61
22.59
21.40
19.86
17.89
15.48
12.73
9.74
6.62
3.47
0.32
-2.88
-6.20
-9.75
-13.53
-17.47
-21.36
-24.99
-28.17
-30.88
-33.27
-35.58
-38.13
-41.18
-44.82
-48.85
-52.76
-55.72
-56.77
-55.07
-50.12
-42.02
-31.40
-19.30
-6.91
4.72
14.85
23.08
29.30
33.63
36.28
37.51
37.58
36.78
35.43
33.83
32.25
30.82
29.61
28.52
27.49
26.44
25.38
24.32
23.29
22.22
20.99
19.47
17.58
15.38
13.03
10.73
8.61
6.66
4.73
2.57
-0.07
-3.25
-6.87
-10.62
-14.20
-17.36
-20.10
-22.58
-25.05
-27.83
-31.12
-35.00
-39.34
-43.79
-47.68
-50.14
-50.24
-47.34
-41.34
-32.71
-22.38
-11.39
-0.62
9.41
18.43
26.29
32.77
37.66
40.81
42.32
42.54
41.94
41.00
40.01
39.11
38.27
37.43
36.59
35.70
34.78
33.76
32.60
31.24
29.61
27.66
25.32
22.52
19.25
15.57
11.69
7.93
4.61
1.88
-0.26
-2.08
-3.98
-6.36
-9.46
-13.31
-17.73
-22.39
-26.96
-31.11
-34.66
-37.61
-40.05
-42.20
-44.31
-46.62
-49.29
-52.31
-55.43
-58.14
-59.70
-59.35
-56.51
-51.00
-43.13
-33.65
-23.52
-13.63
-4.60
3.28
9.92
15.36
19.63
22.71
24.57
25.30
25.10
24.28
23.19
22.12
21.20
20.42
19.72
19.06
18.46
18.00
17.70
17.52
17.32
16.87
16.03
14.69
12.90
10.77
8.42
6.00
3.64
1.41
-0.66
-2.65
-4.72
-6.98
-9.51
-12.25
-15.06
-17.82
-20.44
-22.91
-25.29
-27.61
-29.92
-32.26
-34.73
-37.43
-40.33
-43.23
-45.63
-46.83
-46.09
-42.91
-37.16
-29.23
-19.79
-9.76
0.06
9.04
16.74
22.94
27.52
30.55
32.21
32.84
32.79
32.40
31.88
31.31
30.63
29.75
28.66
27.43
26.22
25.15
24.30
23.61
22.87
21.83
20.25
18.04
15.27
12.20
9.04
5.99
3.02
-0.03
-3.30
-6.83
-10.55
-14.28
-17.84
-21.16
-24.25
-27.19
-30.11
-33.12
-36.35
-39.87
-43.62
-47.26
-50.21
-51.67
-50.92
-47.50
-41.41
-33.15
-23.53
-13.47
-3.79
4.92
12.31
18.26
22.78
25.96
27.95
28.91
29.04
28.56
27.70
26.67
25.61
24.55
23.51
22.45
21.36
20.25
19.18
18.18
17.25
16.29
15.23
13.99
12.53
10.84
8.87
6.61
4.06
1.26
-1.67
-4.59
-7.42
-10.12
-12.70
-15.26
-17.92
-20.82
-24.11
-27.85
-31.95
-36.03
-39.43
-41.32
-40.91
-37.75
-31.86
-23.79
-14.38
-4.62
4.71
13.01
19.97
25.42
29.30
31.69
32.74
32.73
32.03
30.97
29.82
28.71
27.65
26.57
25.39
23.99
22.34
20.46
18.39
16.31
14.32
12.52
10.88
9.28
7.46
5.25
2.54
-0.63
-4.08
-7.60
-11.02
-14.27
-17.38
-20.48
-23.70
-27.14
-30.86
-34.79
-38.68
-42.15
-44.59
-45.35
-43.88
-39.86
-33.40
-24.96
-15.30
-5.26
4.42
13.17
20.64
26.64
31.03
33.78
34.96
34.79
33.61
31.78
29.68
27.56
25.58
23.82
22.28
20.97
19.82
18.77
17.71
16.52
15.13
13.47
11.56
9.41
7.06
4.49
1.70
-1.32
-4.58
-7.99
-11.53
-15.10
-18.61
-21.94
-24.96
-27.57
-29.86
-32.07
-34.60
-37.78
-41.71
-46.00
-49.85
-52.18
-52.04
-48.89
-42.80
-34.40
-24.64
-14.60
-5.13
3.17
9.96
15.14
18.75
20.95
21.99
22.22
21.94
21.42
20.81
20.18
19.54
18.89
18.22
17.51
16.69
15.67
14.41
12.94
11.42
10.00
8.78
7.72
6.62
5.22
3.30
0.79
-2.19
-5.42
-8.63
-11.65
-14.44
-17.04
-19.60
-22.33
-25.42
-28.97
-32.92
-36.85
-40.08
-41.73
-40.98
-37.36
-30.88
-22.14
-12.15
-2.03
7.26
15.10
21.20
25.57
28.33
29.68
29.80
28.95
27.43
25.61
23.87
22.48
21.56
20.98
20.54
19.96
19.09
17.97
16.76
15.68
14.79
14.00
13.02
11.53
9.30
6.30
2.74
-1.10
-4.96
-8.73
-12.37
-15.96
-19.54
-23.18
-26.98
-31.07
-35.61
-40.55
-45.59
-49.96
-52.67
-52.70
-49.39
-42.69
-33.16
-21.90
-10.11
1.14
11.13
19.51
26.20
31.27
34.84
37.05
38.07
38.11
37.47
36.46
35.38
34.41
33.61
32.91
32.18
31.30
30.22
28.97
27.57
26.06
24.37
22.43
20.10
17.36
14.19
10.62
6.72
2.53
-1.86
-6.30
-10.62
-14.71
-18.52
-22.19
-25.98
-30.18
-35.00
-40.42
-46.10
-51.35
-55.25
-56.83
-55.30
-50.35
-42.19
-31.61
-19.71
-7.61
3.78
13.87
22.33
29.03
33.93
37.08
38.66
38.98
38.43
37.36
36.02
34.52
32.90
31.19
29.50
27.91
26.51
25.23
23.94
22.48
20.70
18.59
16.19
13.59
10.84
7.96
4.96
1.83
-1.41
-4.78
-8.28
-11.94
-15.75
-19.61
-23.37
-26.87
-29.99
-32.81
-35.56
-38.60
-42.26
-46.64
-51.45
-55.97
-59.17
-59.96
-57.57
-51.74
-42.85
-31.79
-19.62
-7.40
3.98
13.95
22.07
28.16
32.19
34.33
34.95
34.50
33.41
32.01
30.51
29.04
27.71
26.61
25.77
25.12
24.46
23.57
22.28
20.58
18.57
16.45
14.35
12.29
10.17
7.83
5.13
2.00
-1.51
-5.28
-9.15
-12.95
-16.56
-19.92
-22.99
-25.78
-28.37
-30.94
-33.79
-37.14
-41.01
-45.03
-48.38
-49.96
-48.73
-44.11
-36.16
-25.66
-13.78
-1.80
9.26
18.70
26.20
31.68
35.23
37.02
37.31
36.46
34.87
32.93
31.00
29.29
27.85
26.63
25.53
24.44
23.34
22.25
21.20
20.17
19.09
17.86
16.37
14.59
12.49
10.04
7.22
4.01
0.43
-3.40
-7.31
-11.18
-14.92
-18.57
-22.21
-25.96
-29.92
-34.19
-38.81
-43.67
-48.34
-52.05
-53.79
-52.59
-47.87
-39.70
-28.80
-16.34
-3.58
8.41
18.95
27.72
34.66
39.79
43.18
44.95
45.29
44.50
42.99
41.20
39.43
37.84
36.43
35.09
33.71
32.35
31.08
30.00
29.07
28.12
26.85
25.00
22.43
19.19
15.47
11.54
7.58
3.68
-0.19
-4.13
-8.22
-12.46
-16.73
-20.83
-24.59
-27.93
-30.94
-33.91
-37.21
-41.17
-45.84
-50.87
-55.48
-58.54
-58.91
-55.77
-48.94
-38.93
-26.82
-13.88
-1.30
10.11
19.92
27.93
34.09
38.40
40.90
41.81
41.46
40.34
38.94
37.55
36.31
35.07
33.66
31.90
29.82
27.61
25.55
23.89
22.66
21.67
20.56
18.95
16.62
13.64
10.29
6.91
3.76
0.84
-2.01
-5.07
-8.48
-12.22
-16.08
-19.79
-23.18
-26.20
-28.97
-31.63
-34.34
-37.26
-40.53
-44.30
-48.62
-53.27
-57.61
-60.67
-61.29
-58.55
-52.09
-42.33
-30.33
-17.46
-5.04
5.99
15.11
22.16
27.23
30.48
32.23
32.78
32.51
31.74
30.71
29.54
28.26
26.89
25.46
24.03
22.65
21.37
20.22
19.19
18.28
17.41
16.45
15.27
13.74
11.80
9.47
6.79
3.77
0.43
-3.18
-6.96
-10.72
-14.23
-17.39
-20.20
-22.78
-25.38
-28.19
-31.41
-35.17
-39.42
-43.83
-47.75
-50.26
-50.35
-47.30
-40.91
-31.63
-20.43
-8.54
2.95
13.25
21.94
28.86
34.01
37.44
39.28
39.75
39.19
38.03
36.65
35.33
34.21
33.27
32.42
31.57
30.64
29.61
28.45
27.15
25.67
23.96
21.93
19.53
16.71
13.50
9.96
6.16
2.19
-1.92
-6.10
-10.30
-14.40
-18.30
-21.88
-25.12
-28.07
-30.92
-33.92
-37.38
-41.41
-45.89
-50.29
-53.71
-55.09
-53.50
-48.44
-40.10
-29.26
-17.12
-4.92
6.33
16.01
23.90
30.00
34.40
37.26
38.75
39.16
38.87
38.26
37.60
36.99
36.32
35.40
34.10
32.47
30.71
29.07
27.71
26.60
25.51
24.11
