1513830665.00
64.000000
-0.00
-0.00
-0.00
-0.00
-0.00
-0.00
-0.00
-0.00
-0.00
-0.00
0.00
0.01
0.01
-0.00
-0.03
-0.05
-0.05
0.00
0.13
0.36
0.66
1.01
1.37
1.72
2.06
2.40
2.79
3.24
3.80
4.42
5.06
5.66
6.20
6.68
7.15
7.68
8.31
9.14
10.09
11.04
11.88
12.56
13.14
13.76
14.65
15.96
17.91
20.32
22.90
25.38
27.58
29.57
31.68
34.32
37.81
42.54
48.15
54.10
59.83
64.97
69.58
74.14
79.34
85.71
93.76
103.00
112.62
121.73
129.77
136.75
143.30
150.75
157.77
166.64
177.95
191.79
206.97
220.57
228.25
225.36
208.53
176.87
132.76
80.05
23.07
-34.94
-92.44
-149.16
-205.23
-260.37
-313.74
-363.87
-409.83
-450.91
-486.50
-515.74
-537.23
-549.22
-549.96
-538.37
-514.21
-478.67
-433.88
-382.45
-327.02
-269.84
-212.63
-156.66
-102.95
-52.37
-5.90
35.58
71.43
101.35
125.50
144.38
158.69
169.15
176.37
180.75
182.57
182.07
179.51
175.23
169.65
163.18
156.15
148.81
141.30
133.69
126.02
118.33
110.69
103.16
95.80
88.68
81.83
75.25
68.95
62.95
57.25
51.86
46.78
42.03
37.59
33.45
29.61
26.07
22.81
19.83
17.11
14.67
12.48
10.54
8.83
7.35
6.07
4.97
4.05
3.27
2.62
2.09
1.65
1.30
1.01
0.79
0.61
0.47
0.37
0.28
0.22
0.18
0.15
0.13
0.12
0.12
0.13
0.14
0.17
0.19
0.23
0.26
0.30
0.34
0.39
0.43
0.48
0.53
0.58
0.63
0.69
0.75
0.81
0.88
0.96
1.04
1.13
1.23
1.35
1.48
1.62
1.78
1.96
2.17
2.39
2.63
2.91
3.21
3.54
3.90
4.30
4.73
5.19
5.70
6.24
6.82
7.45
8.12
8.83
9.59
10.39
11.24
12.13
13.06
14.06
15.11
16.23
17.40
18.64
19.91
21.18
22.40
23.48
24.33
24.81
24.82
24.23
22.98
21.01
18.32
14.98
11.07
6.79
2.30
-2.17
-6.42
-10.27
-13.55
-16.16
-18.03
-19.15
-19.54
-19.32
-18.60
-17.51
-16.19
-14.72
-13.18
-11.55
-9.84
-8.02
-6.16
-4.28
-2.45
-0.68
1.03
2.72
4.45
6.33
8.44
10.70
13.01
15.29
17.48
19.58
21.68
23.93
26.52
29.66
33.08
36.56
39.86
42.80
45.38
47.80
50.38
53.54
57.64
62.26
66.95
71.18
74.58
77.04
78.81
80.40
82.42
85.36
88.59
91.27
92.45
91.23
86.99
79.43
68.15
52.20
34.75
16.41
-2.87
-23.63
-46.65
-72.93
-103.26
-137.64
-174.50
-210.28
-240.71
-261.19
-268.55
-262.35
-244.94
-220.48
-193.41
-167.09
-143.36
-123.34
-107.37
-95.41
-87.10
-81.51
-77.16
-72.36
-65.72
-56.58
-45.49
-33.43
-21.57
-10.79
-1.57
6.14
12.72
18.67
24.35
29.70
34.44
38.22
40.88
42.60
43.85
45.16
46.90
49.02
51.01
52.13
51.68
49.25
44.81
38.69
31.39
23.40
15.01
6.26
-2.97
-12.84
-23.29
-33.95
-43.96
-52.18
-57.39
-58.69
-55.75
-48.96
-39.33
-28.14
-16.64
-5.70
4.23
13.00
20.56
26.87
31.88
35.54
38.05
39.69
40.92
42.03
43.22
44.44
45.59
46.56
47.38
48.13
48.85
49.48
49.74
49.33
47.95
45.55
42.28
38.40
34.24
29.97
25.69
21.39
17.08
12.81
8.71
4.85
1.28
-2.08
-5.35
-8.71
-12.26
-16.03
-19.92
-23.75
-27.28
-30.43
-33.15
-35.58
-37.92
-40.43
-43.37
-46.99
-51.42
-56.51
-61.74
-66.12
-68.42
-67.46
-62.59
-53.94
-42.44
-29.50
-16.60
-4.84
5.26
13.69
20.68
26.51
31.21
34.73
36.95
37.90
37.83
37.17
36.42
35.93
35.86
36.09
36.45
36.76
36.97
37.13
37.26
37.29
37.06
36.33
34.91
32.78
30.03
26.93
23.73
20.73
18.10
15.84
13.85
11.83
9.46
6.45
2.76
-1.44
-5.76
-9.77
-13.21
-16.08
-18.69
-21.46
-24.83
-29.07
-34.25
-40.19
-46.46
-52.38
-57.04
-59.46
-58.75
-54.47
-46.72
-36.25
-24.22
-11.89
-0.36
9.65
17.80
24.09
28.70
31.81
33.66
34.43
34.31
33.49
32.25
30.88
29.70
28.98
28.85
29.33
30.25
31.36
32.34
32.89
32.75
31.78
30.00
27.49
24.48
21.14
17.67
14.18
10.72
7.30
3.92
0.59
-2.68
-5.88
-9.03
-12.13
-15.25
-18.44
-21.88
-25.75
-30.29
-35.67
-41.83
-48.39
-54.48
-58.97
-60.64
-58.62
-52.70
-43.42
-31.96
-19.69
-7.88
2.70
11.74
19.31
25.58
30.64
34.46
36.92
38.04
37.94
37.02
35.73
34.53
33.79
33.62
34.01
34.74
35.60
36.35
36.84
36.96
36.64
35.77
34.27
32.12
29.35
26.18
22.83
19.56
16.49
13.58
10.75
7.83
4.74
1.42
-2.11
-5.88
-9.87
-13.99
-18.12
-22.03
-25.56
-28.67
-31.52
-34.44
-37.82
-42.04
-47.23
-53.34
-59.91
-66.12
-70.83
-72.86
-71.22
-65.54
-56.21
-44.30
-31.28
-18.56
-7.15
2.57
10.70
17.64
23.73
29.10
33.65
37.14
39.46
40.66
41.04
40.98
40.88
40.99
41.37
41.98
42.68
43.41
44.06
44.60
44.94
44.94
44.43
43.22
41.25
38.56
35.38
32.04
28.85
25.97
23.32
20.70
17.86
14.66
11.12
7.45
3.82
0.42
-2.76
-5.80
-8.85
-12.06
-15.45
-18.99
-22.50
-25.86
-29.07
-32.29
-35.78
-39.69
-43.93
-48.01
-51.26
-52.99
-52.80
-50.55
-46.32
-40.16
-32.07
-22.16
-10.73
1.45
13.29
23.63
31.67
37.11
40.19
41.43
41.28
40.13
38.18
35.71
33.05
30.57
28.60
27.24
26.46
26.09
26.00
26.14
26.43
26.82
27.17
27.45
27.80
28.59
30.23
32.96
36.69
41.01
45.35
49.22
52.29
54.24
54.74
53.33
49.58
43.34
34.92
25.14
14.98
5.39
-3.11
-10.42
-16.69
-22.17
-26.99
-31.19
-34.68
-37.39
-39.19
-39.98
-39.70
-38.45
-36.59
-34.86
-34.20
-35.43
-38.92
-44.26
-50.36
-55.61
-58.42
-57.67
-52.93
-44.64
-33.85
-21.98
-10.42
-0.27
7.83
13.65
17.26
18.94
18.96
17.73
15.70
13.35
11.06
8.95
6.91
4.61
1.84
-1.35
-4.59
-7.37
-9.29
-10.34
-10.86
-11.29
-11.88
-12.48
-12.53
-11.30
-8.29
-3.49
2.52
8.71
13.96
17.35
18.60
18.01
16.41
14.70
13.44
12.63
11.63
9.58
5.69
-0.40
-8.50
-17.98
-27.90
-37.22
-44.79
-49.66
-51.05
-48.72
-42.94
-34.57
-24.82
-14.94
-5.99
1.34
6.72
10.17
11.91
12.31
11.75
10.55
8.91
6.94
4.75
2.53
0.60
-0.66
-0.94
-0.12
1.61
3.79
5.79
7.03
7.11
6.01
3.94
1.32
-1.47
-4.19
-6.77
-9.28
-11.78
-14.22
-16.45
-18.25
-19.54
-20.38
-21.09
-22.11
-23.99
-27.17
-31.97
-38.43
-46.28
-54.92
-63.38
-70.57
-75.41
-77.17
-75.58
-71.00
-64.22
-56.27
-48.18
-40.77
-34.61
-30.06
-27.34
-26.53
-27.40
-29.29
-30.97
-30.83
-27.26
-19.34
-7.18
7.84
23.55
37.50
47.72
53.20
53.86
50.49
44.26
36.52
28.41
20.85
14.32
8.94
4.52
0.68
-2.89
-6.40
-9.84
-13.15
-16.19
-18.85
-21.04
-22.66
-23.66
-24.00
-23.81
-23.34
-22.97
-23.16
-24.33
-26.87
-31.04
-36.94
-44.31
-52.52
-60.43
-66.60
-69.60
-68.40
-62.74
-53.16
-40.90
-27.42
-14.09
-1.77
9.21
18.86
27.38
34.83
41.24
46.52
50.74
54.08
56.83
59.28
61.54
63.58
65.24
66.44
67.17
67.58
67.81
67.84
67.49
66.32
63.95
60.09
54.78
48.35
41.39
34.56
28.37
23.16
18.88
15.33
12.11
8.92
5.54
1.94
-1.77
-5.44
-8.91
-12.18
-15.28
-18.44
-21.93
-26.11
-31.31
-37.74
-45.36
-53.67
-61.75
-68.23
-71.72
-71.14
-66.09
-57.03
-45.08
-31.73
-18.36
-6.02
4.81
13.98
21.63
27.96
33.13
37.28
40.44
42.73
44.18
44.98
45.32
45.50
45.77
46.27
47.04
47.94
48.80
49.42
49.67
49.48
48.79
47.60
45.91
43.79
41.33
38.68
35.93
33.14
30.25
27.22
24.09
20.95
18.01
15.41
13.15
11.00
8.63
5.72
2.15
-1.84
-5.75
-8.98
-11.23
-12.60
-13.80
-15.89
-19.86
-26.23
-34.63
-43.81
-51.82
-56.60
-56.54
-51.09
-41.04
-28.44
-16.21
-7.22
-3.45
-5.20
-10.95
-17.75
-22.15
-21.21
-13.26
1.76
22.64
47.33
73.55
99.13
122.16
140.96
154.08
160.41
159.32
150.96
136.36
117.50
97.00
77.61
61.74
50.93
45.65
45.26
48.35
52.96
57.18
59.42
58.73
54.77
47.61
37.72
25.77
12.77
0.03
-10.83
-18.25
-21.22
-19.61
-14.56
-8.05
-2.53
-0.17
-2.45
-9.91
-22.24
-38.41
-56.82
-75.47
-92.00
-103.99
-109.31
-106.77
-96.51
-80.15
-60.33
-39.82
-20.68
-3.67
11.46
25.40
38.40
49.82
58.30
62.17
60.24
52.18
38.74
21.41
2.01
-17.70
-36.49
-53.73
-69.39
-83.70
-96.84
-108.66
-118.73
-126.49
-131.61
-134.23
-134.88
-134.40
-133.63
-133.43
-134.44
-137.09
-141.37
-146.66
-151.77
-155.05
-155.01
-150.62
-141.72
-128.94
-113.51
-96.82
-80.05
-64.11
-49.49
-36.50
-25.26
-15.75
-7.78
-1.06
4.80
10.18
15.25
20.10
24.61
28.82
32.82
36.86
41.14
45.68
50.25
54.42
57.86
60.30
61.71
62.14
61.57
59.95
57.11
52.96
47.56
41.18
34.19
26.98
19.83
12.91
6.34
0.12
-5.80
-11.73
-18.13
-25.68
-34.92
-45.93
-58.22
-70.68
-81.92
-90.62
-95.94
-97.50
-95.36
-89.85
-81.44
-70.78
-58.68
-46.06
-33.68
-21.96
-10.90
-0.20
10.42
20.92
30.86
39.50
46.04
50.02
51.40
50.79
49.26
48.13
48.66
51.68
57.34
65.05
73.58
81.33
86.75
88.69
86.62
80.79
72.03
61.72
51.33
42.19
35.13
30.33
27.39
25.41
23.45
20.75
16.97
12.23
6.95
1.62
-3.43
-8.21
-13.12
-18.78
-25.88
-34.84
-45.54
-57.22
-68.44
-77.42
-82.39
-82.22
-76.64
-66.48
-53.28
-38.84
-24.56
-11.12
1.50
13.66
25.56
36.97
47.20
55.53
61.52
65.33
67.59
69.06
70.36
71.65
72.88
73.85
74.52
74.99
75.35
75.64
75.61
74.98
73.44
70.90
67.45
63.38
58.94
54.35
49.73
45.11
40.54
36.05
31.69
27.40
23.05
18.48
13.53
8.22
2.66
-2.88
-8.19
-13.14
-17.77
-22.33
-27.20
-32.85
-39.63
-47.73
-56.88
-66.29
-74.69
-80.57
-82.59
-79.90
-72.53
-61.22
-47.30
-32.16
-17.05
-2.77
10.26
21.81
31.75
39.81
45.70
49.14
50.18
49.22
47.10
44.87
43.43
43.29
44.26
45.65
46.50
46.03
44.08
41.16
38.26
36.38
35.94
36.46
36.63
34.84
30.01
22.24
13.00
4.65
-0.62
-1.79
0.38
3.58
4.96
2.39
-4.60
-14.66
-25.06
-32.73
-34.95
-29.89
-17.15
1.83
23.25
41.19
49.04
42.12
20.46
-9.98
-38.74
-54.93
-51.94
-30.41
2.33
35.83
61.28
74.75
77.43
73.14
65.17
54.46
39.76
19.45
-6.73
-37.14
-68.61
-97.74
-121.67
-138.68
-148.16
-150.65
-147.47
-140.21
-130.14
-117.98
-104.04
-88.84
-73.56
-59.52
-47.03
-34.20
-17.15
7.93
42.07
81.63
119.17
146.61
159.19
157.42
146.41
132.66
121.04
113.49
109.90
110.05
114.60
124.38
138.63
153.92
164.73
165.77
154.50
132.06
102.42
70.39
39.70
12.20
-11.57
-31.46
-47.18
-58.47
-65.94
-71.58
-78.45
-89.61
-106.89
-129.99
-156.46
-182.39
-203.11
-214.00
-211.08
-191.87
-156.18
-106.64
-48.45
11.43
65.64
107.79
133.71
142.22
135.25
117.41
94.77
73.28
57.18
48.12
45.27
46.48
49.87
54.57
60.65
68.24
76.66
84.39
89.74
91.89
91.07
88.25
84.30
79.34
72.88
64.30
53.56
41.65
30.45
22.12
18.45
20.22
26.93
36.84
47.20
54.87
57.01
51.98
40.00
23.43
6.24
-7.11
-13.08
-10.44
-0.78
11.87
22.51
27.07
24.03
14.97
3.69
-5.55
-10.04
-9.74
-7.01
-5.25
-7.43
-15.11
-28.55
-47.28
-70.48
-96.83
-124.04
-148.73
-167.08
-176.28
-175.73
-167.25
-154.24
-140.08
-126.96
-115.40
-104.92
-94.90
-85.20
-76.14
-68.04
-60.93
-54.44
-48.19
-42.06
-36.24
-31.07
-26.66
-22.72
-18.68
-14.03
-8.63
-2.83
2.66
7.01
9.62
10.28
9.18
6.83
3.83
0.73
-2.17
-4.81
-7.34
-10.11
-13.35
-17.18
-21.56
-26.28
-31.18
-36.26
-41.70
-47.84
-54.94
-62.96
-71.34
-79.03
-84.64
-86.82
-84.63
-77.86
-67.06
-53.39
-38.27
-22.98
-8.43
4.86
16.55
26.29
33.71
38.55
40.94
41.51
41.28
41.26
42.11
43.89
46.19
48.40
50.09
51.20
51.97
52.73
53.61
54.47
54.91
54.47
52.75
49.69
45.47
40.60
35.62
31.04
27.10
23.75
20.69
17.44
13.58
8.84
3.24
-2.96
-9.30
-15.35
-20.79
-25.60
-30.08
-34.74
-40.24
-47.04
-55.19
-64.13
-72.64
-79.16
-82.18
-80.78
-74.91
-65.41
-53.60
-40.86
-28.21
-16.18
-5.02
5.12
13.88
20.75
25.28
27.35
27.32
25.99
24.35
23.20
22.89
23.27
23.80
23.86
22.97
20.96
18.06
14.94
12.65
12.58
16.01
23.62
35.07
48.80
62.50
73.79
81.00
83.35
80.90
74.06
63.33
49.37
33.24
16.67
1.82
-9.35
-15.80
-17.63
-15.95
-12.32
-8.37
-5.64
-5.50
-9.17
-17.25
-29.31
-43.89
-58.86
-72.29
-83.06
-91.16
-97.21
-101.77
-104.85
-105.83
-103.98
-98.85
-90.43
-79.00
-64.85
-48.17
-29.38
-9.32
10.66
28.88
43.90
54.86
61.79
65.35
66.64
66.82
66.88
67.53
69.08
71.45
74.10
76.17
76.55
74.23
68.53
59.32
47.12
32.88
17.75
2.70
-11.58
-24.83
-37.07
-48.57
-59.88
-71.86
-85.41
-100.87
-117.40
-132.68
-143.50
-146.97
-141.91
-129.64
-113.35
-96.79
-82.45
-70.80
-60.57
-50.09
-38.57
-26.65
-15.98
-8.13
-3.72
-2.08
-1.84
-1.61
-0.66
0.96
2.76
4.23
5.32
6.33
7.77
9.99
12.98
16.31
19.41
21.89
23.75
25.49
27.81
31.26
35.88
41.04
45.62
48.45
48.86
46.95
43.61
40.18
37.88
37.43
38.83
41.47
44.36
46.53
47.25
46.27
43.84
40.67
37.73
36.04
36.30
38.70
42.92
48.14
53.41
57.88
60.96
62.39
62.15
60.37
57.26
53.15
48.40
43.46
38.74
34.54
31.01
28.16
25.89
24.06
22.59
21.38
20.34
19.32
18.10
16.48
14.29
11.45
7.94
3.80
-0.94
-6.27
-12.13
-18.48
-25.21
-32.27
-39.58
-46.98
-54.15
-60.42
-64.83
-66.34
-64.14
-57.99
-48.42
-36.59
-23.98
-11.97
-1.60
6.63
12.71
16.88
19.52
20.97
21.53
21.47
21.04
20.52
20.15
20.13
20.50
21.14
21.79
22.12
21.86
20.79
18.82
15.98
12.38
8.25
3.87
-0.42
-4.31
-7.60
-10.27
-12.59
-15.05
-18.24
-22.68
-28.50
-35.27
-41.96
-47.16
-49.50
-48.05
-42.61
-33.76
-22.62
-10.50
1.39
12.09
20.99
27.65
31.95
33.86
33.67
31.82
28.93
25.64
22.46
19.77
17.75
16.49
15.95
16.09
16.73
17.57
18.19
18.15
17.08
14.78
11.36
7.10
2.43
-2.32
-6.99
-11.61
-16.45
-21.76
-27.77
-34.46
-41.49
-48.13
-53.40
-56.21
-55.70
-51.47
-43.73
-33.27
-21.23
-8.87
2.71
12.72
20.68
26.45
30.07
31.71
31.67
30.33
28.15
25.61
23.15
21.11
19.71
19.00
18.89
19.13
19.38
19.32
18.57
16.95
14.37
10.91
6.77
2.19
-2.57
-7.39
-12.23
-17.22
-22.54
-28.42
-34.88
-41.64
-48.05
-53.14
-55.87
-55.39
-51.34
-43.91
-33.80
-22.05
-9.79
1.93
12.30
20.76
27.07
31.17
33.25
33.56
32.43
30.29
27.56
24.73
22.22
20.35
19.20
18.67
18.48
18.27
17.73
16.57
14.67
11.96
8.49
4.36
-0.22
-5.01
-9.86
-14.62
-19.39
-24.38
-29.90
-36.18
-43.25
-50.69
-57.61
-62.81
-64.98
-63.22
-57.29
-47.81
-36.17
-24.15
-13.38
-4.89
1.01
4.71
6.91
8.21
8.90
8.92
8.05
6.23
3.80
1.38
-0.19
-0.32
1.15
3.80
6.80
9.26
10.46
10.13
8.27
5.20
1.46
-1.98
-3.56
-1.39
6.18
19.57
37.39
56.42
72.59
82.35
83.93
77.72
65.65
50.27
33.69
17.44
2.62
-9.61
-18.02
-21.67
-20.45
-15.45
-8.67
-2.34
1.98
3.91
4.27
4.55
6.13
9.70
14.94
20.95
26.58
31.11
34.46
37.18
40.09
43.75
48.27
53.18
57.76
61.31
63.49
64.34
64.07
62.89
60.77
57.48
52.61
45.89
37.20
26.68
14.72
2.16
-9.65
-18.99
-24.18
-24.36
-20.17
-13.99
-9.45
-10.36
-19.58
-37.97
-64.14
-94.51
-124.00
-146.69
-156.92
-150.58
-126.39
-86.92
-38.38
10.58
51.28
77.48
86.99
81.88
67.19
49.01
32.44
20.57
14.29
12.82
14.54
17.65
20.56
22.08
21.50
18.66
13.96
8.28
2.79
-1.32
-3.28
-2.90
-0.69
2.38
5.21
6.99
7.46
6.94
6.11
5.62
5.80
6.45
7.07
6.99
5.81
3.51
0.45
-2.79
-5.72
-8.00
-9.66
-10.92
-12.22
-13.93
-16.27
-19.29
-22.73
-26.28
-29.60
-32.56
-35.23
-38.00
-41.37
-45.79
-51.49
-58.23
-65.34
-71.80
-76.50
-78.44
-77.00
-72.05
-63.94
-53.46
-41.58
-29.36
-17.68
-7.19
1.82
9.33
15.56
20.86
25.58
30.13
34.82
39.92
45.59
51.71
57.93
63.58
67.95
70.31
70.22
67.54
62.45
55.36
46.83
37.54
28.17
19.41
11.88
6.10
2.36
0.69
0.87
2.34
4.45
6.38
7.47
7.24
5.51
2.35
-1.99
-7.18
-12.94
-18.96
-24.99
-30.74
-35.96
-40.46
-44.29
-47.68
-51.04
-54.72
-58.75
-62.73
-65.70
-66.55
-64.26
-58.39
-49.31
-37.95
-25.65
-13.63
-2.78
6.47
14.00
19.76
23.72
25.80
26.10
24.93
22.93
20.88
19.54
19.38
20.51
22.74
25.65
28.85
31.94
34.59
36.36
36.72
35.13
31.25
25.19
17.57
9.47
2.10
-3.54
-6.85
-7.87
-7.00
-4.98
-2.60
-0.62
0.35
-0.09
-2.13
-5.71
-10.59
-16.40
-22.78
-29.33
-35.81
-42.02
-47.89
-53.41
-58.46
-62.78
-65.73
-66.49
-64.22
-58.44
-49.28
-37.54
-24.50
-11.54
0.17
9.87
17.18
22.11
24.89
25.96
26.00
25.82
26.25
27.88
30.86
34.80
38.90
42.25
44.18
44.57
43.82
42.67
41.77
41.50
41.88
42.69
43.71
44.78
45.82
46.68
47.09
46.71
45.30
42.77
39.24
34.96
30.11
24.88
19.33
13.58
7.68
1.63
-4.69
-11.54
-19.12
-27.42
-36.15
-44.74
-52.59
-59.29
-64.77
-69.11
-72.47
-74.80
-75.81
-75.00
-71.99
-66.62
-59.21
-50.46
-41.38
-32.99
-26.12
-21.21
-18.20
-16.55
-15.52
-14.40
-12.81
-10.72
-8.43
-6.24
-4.56
-3.97
-5.42
-10.06
-18.52
-29.98
-41.67
-49.58
-49.89
-40.72
-22.90
0.65
26.50
52.25
77.06
101.15
124.52
146.36
165.16
179.62
189.42
195.22
197.94
197.91
194.51
186.55
173.08
154.05
130.53
104.40
77.84
52.96
31.37
14.14
1.75
-5.71
-8.38
-6.65
-1.21
6.61
14.85
21.04
23.05
19.82
11.79
0.84
-10.52
-20.06
-26.62
-30.20
-31.54
-31.61
-31.18
-30.72
-30.27
-29.53
-27.74
-24.04
-17.81
-9.35
-0.09
7.77
12.15
12.24
8.91
4.45
1.36
1.13
3.51
6.74
8.68
7.90
4.47
-0.14
-3.82
-4.84
-2.55
2.37
8.19
12.81
14.30
11.47
4.09
-6.90
-19.52
-31.18
-39.32
-42.23
-39.45
-31.89
-21.26
-9.47
2.01
12.20
20.38
25.88
27.92
25.91
19.66
9.68
-2.95
-16.41
-27.99
-34.15
-31.31
-17.38
6.43
34.67
58.58
69.05
60.15
31.85
-9.85
-54.87
-92.62
-115.10
-118.86
-105.59
-81.34
-54.80
-34.92
-28.25
-36.86
-57.71
-83.90
-107.20
-120.69
-120.45
-106.04
-80.15
-48.11
-17.34
3.60
7.01
-11.32
-49.94
-101.49
-154.80
-198.54
-224.80
-231.09
-220.18
-198.40
-173.28
-151.61
-137.72
-132.71
-134.30
-137.63
-136.86
-127.35
-107.20
-77.85
-43.41
-9.01
20.78
42.94
56.32
61.37
59.54
52.74
42.87
31.41
19.30
7.03
-5.03
-16.28
-25.78
-32.51
-35.88
-35.96
-33.53
-29.64
-25.14
-20.49
-15.86
-11.50
-7.91
-5.89
-6.06
-8.59
-12.95
-18.17
-23.24
-27.57
-31.18
-34.51
-38.23
-42.78
-48.33
-54.67
-61.25
-67.30
-71.84
-73.96
-72.93
-68.48
-60.86
-50.75
-39.07
-26.64
-14.14
-2.07
9.04
18.69
26.30
31.43
33.91
33.86
31.73
28.12
23.80
19.49
15.93
13.66
12.96
13.71
15.40
17.38
18.94
19.60
19.13
17.53
14.90
11.37
7.12
2.33
-2.68
-7.69
-12.52
-17.18
-21.77
-26.43
-31.20
-35.92
-40.26
-43.68
-45.57
-45.27
-42.30
-36.44
-27.88
-17.27
-5.56
6.14
16.89
25.99
33.10
38.13
41.18
42.47
42.29
41.13
39.54
38.21
37.72
38.49
40.51
43.43
46.64
49.38
51.06
51.33
50.09
47.46
43.58
38.55
32.44
25.34
17.42
9.07
0.82
-6.66
-12.78
-17.31
-20.50
-23.07
-25.89
-29.56
-33.90
-37.92
-40.07
-38.90
-33.63
-24.49
-12.61
0.53
13.51
25.39
35.69
44.21
50.86
55.58
58.36
59.46
59.40
58.94
58.84
59.62
61.34
63.63
65.83
67.31
67.69
66.99
65.49
63.56
61.39
58.86
55.66
51.41
45.97
39.48
32.36
25.14
18.34
12.38
7.54
3.94
1.38
-0.62
-2.86
-6.13
-10.86
-16.78
-22.90
-27.66
-29.54
-27.57
-21.63
-12.44
-1.24
10.65
22.14
32.51
41.37
48.54
53.92
57.52
59.45
59.98
59.55
58.63
57.72
57.12
56.91
57.01
57.17
57.21
56.95
56.34
55.31
53.80
51.69
48.92
45.54
41.73
37.78
33.92
30.30
26.86
23.46
19.96
16.27
12.43
8.52
4.54
0.38
-4.17
-9.36
-15.39
-22.32
-29.98
-37.89
-45.27
-51.02
-53.99
-53.20
-48.20
-39.24
-27.26
-13.66
0.06
12.64
23.33
31.86
38.33
42.97
45.96
47.42
47.39
46.06
43.82
41.27
39.07
37.74
37.45
37.99
38.93
39.70
39.92
39.43
38.27
36.60
34.56
32.24
29.69
26.93
24.04
21.18
18.52
16.24
14.40
12.93
11.60
10.05
7.98
5.15
1.59
-2.48
-6.71
-10.76
-14.41
-17.57
-20.38
-23.01
-25.78
-29.02
-33.01
-37.86
-43.35
-48.86
-53.45
-56.10
-55.98
-52.78
-46.71
-38.52
-29.24
-19.89
-11.27
-3.68
3.04
9.36
15.73
22.26
28.63
34.15
38.17
40.39
41.11
41.03
40.97
41.41
42.39
43.54
44.37
44.60
44.20
43.41
42.48
41.51
40.40
38.91
36.79
33.93
30.44
26.62
22.88
19.55
16.80
14.58
12.64
10.65
8.23
5.22
1.64
-2.27
-6.18
-9.79
-12.97
-15.89
-18.83
-22.22
-26.31
-31.22
-36.78
-42.60
-48.09
-52.53
-55.19
-55.37
-52.66
-47.02
-38.91
-29.16
-18.86
-9.02
-0.35
6.83
12.56
17.07
20.56
23.11
24.72
25.36
25.14
24.40
23.60
23.22
23.54
24.59
26.11
27.72
29.05
29.88
30.14
29.85
29.05
27.77
26.03
23.94
21.65
19.39
17.31
15.47
13.82
12.23
10.54
8.67
6.59
4.35
2.00
-0.44
-2.99
-5.71
-8.62
-11.68
-14.80
-17.83
-20.67
-23.31
-25.90
-28.66
-31.85
-35.67
-40.13
-45.02
-49.78
-53.67
-55.78
-55.30
-51.79
-45.37
-36.73
-26.97
-17.23
-8.41
-0.98
5.04
9.81
13.52
16.24
17.87
18.38
17.88
16.73
15.38
14.36
13.99
14.31
15.19
16.31
17.36
18.08
18.37
18.16
17.49
16.41
14.98
13.37
11.75
10.31
9.15
8.27
7.54
6.79
5.93
4.88
3.69
2.30
0.71
-1.17
-3.33
-5.71
-8.22
-10.72
-13.27
-16.01
-19.19
-22.92
-27.19
-31.85
-36.72
-41.67
-46.58
-51.30
-55.38
-58.14
-58.75
-56.58
-51.49
-43.93
-34.87
-25.46
-16.75
-9.35
-3.44
1.15
4.77
7.67
10.02
11.82
13.10
13.95
14.59
15.35
16.45
18.02
19.96
22.07
24.12
25.94
27.46
28.66
29.49
29.87
29.70
28.90
27.52
25.64
23.41
20.97
18.37
15.65
12.82
9.93
6.99
4.10
1.29
-1.46
-4.22
-7.05
-9.93
-12.82
-15.59
-18.21
-20.71
-23.19
-25.81
-28.67
-31.87
-35.45
-39.44
-43.68
-47.75
-50.94
-52.31
-51.05
-46.76
-39.71
-30.81
-21.28
-12.27
-4.55
1.61
6.32
9.84
12.43
14.16
15.09
15.26
14.84
14.13
13.46
13.17
13.39
14.10
15.08
16.04
16.75
17.16
17.36
17.54
17.79
18.04
18.05
17.46
16.00
13.63
10.57
7.32
4.44
2.35
1.17
0.63
0.17
-0.79
-2.64
-5.33
-8.37
-11.07
-12.82
-13.42
-13.17
-12.72
-12.79
-13.84
-15.84
-18.31
-20.50
-21.55
-20.77
-17.80
-12.74
-6.28
0.41
6.04
9.81
12.08
14.64
20.36
32.17
51.82
78.89
110.72
143.12
171.65
192.77
204.55
206.75
200.58
188.09
171.53
152.52
131.37
107.01
77.79
42.99
3.90
-35.91
-72.04
-101.35
-123.24
-139.40
-152.02
-162.02
-168.31
-168.94
-162.73
-150.60
-135.32
-119.95
-106.37
-94.72
-84.08
-73.80
-64.45
-57.49
-54.34
-55.27
-59.02
-63.28
-65.53
-64.02
-58.32
-49.37
-39.12
-29.98
-23.98
-22.19
-24.71
-30.81
-39.19
-48.53
-57.45
-64.69
-69.11
-69.90
-66.72
-59.84
-50.10
-38.70
-26.96
-16.03
-6.78
0.31
5.10
7.79
8.78
8.56
7.67
6.56
5.61
5.13
5.32
6.25
7.87
9.96
12.19
14.25
15.82
16.69
16.82
16.27
15.26
14.03
12.87
11.89
11.08
10.26
9.19
7.73
5.91
3.96
2.11
0.56
-0.70
-1.86
-3.19
-4.89
-7.04
-9.60
-12.42
-15.36
-18.28
-21.14
-23.89
-26.64
-29.48
-32.60
-36.11
-39.94
-43.79
-47.08
-49.05
-49.00
-46.46
-41.37
-34.09
-25.35
-16.02
-6.92
1.37
8.52
14.51
19.47
23.51
26.74
29.18
30.89
32.02
32.82
33.51
34.21
34.79
35.00
34.58
33.40
31.65
29.59
27.48
25.37
23.08
20.35
17.03
13.27
9.45
6.03
3.29
1.25
-0.36
-1.91
-3.68
-5.81
-8.25
-10.92
-13.74
-16.72
-19.89
-23.34
-27.17
-31.41
-36.09
-41.09
-46.10
-50.62
-53.94
-55.39
-54.39
-50.78
-44.72
-36.77
-27.62
-18.04
-8.68
0.01
7.76
14.45
20.06
24.58
28.03
30.40
31.78
32.32
32.33
32.19
32.30
32.94
34.25
36.11
38.31
40.60
42.75
44.65
46.18
47.26
47.71
47.40
46.27
44.37
41.93
39.18
36.30
33.33
30.15
26.57
22.48
17.92
13.06
8.18
3.52
-0.77
-4.70
-8.44
-12.23
-16.35
-20.97
-26.13
-31.53
-36.63
-40.56
-42.45
-41.59
-37.79
-31.41
-23.30
-14.58
-6.20
1.13
7.09
11.62
14.81
16.78
17.71
17.84
17.45
16.92
16.50
16.40
16.67
17.24
18.03
18.95
19.96
20.94
21.80
22.34
22.36
21.77
20.56
18.90
16.98
14.95
12.82
10.53
7.98
5.19
2.30
-0.51
-3.07
-5.33
-7.37
-9.37
-11.51
-13.97
-16.94
-20.46
-24.46
-28.64
-32.46
-35.19
-36.09
-34.64
-30.75
-24.80
-17.53
-9.92
-2.83
3.13
7.71
10.94
12.99
14.02
14.11
13.36
11.93
10.18
8.55
7.45
7.11
7.48
8.29
9.21
9.95
10.34
10.30
9.80
8.72
6.96
4.45
1.29
-2.26
-5.75
-8.75
-10.93
-12.21
-12.77
-12.93
-13.09
-13.52
-14.40
-15.72
-17.37
-19.06
-20.39
-20.89
-20.14
-17.92
-14.25
-9.54
-4.34
0.69
5.07
8.47
10.77
11.97
12.17
11.62
10.65
9.69
9.19
9.44
10.53
12.32
14.52
16.71
18.51
19.62
19.92
19.38
18.12
16.29
13.98
11.31
8.34
5.19
2.05
-0.84
-3.30
-5.32
-7.07
-8.92
-11.19
-14.20
-18.08
-22.77
-28.05
-33.47
-38.34
-41.88
-43.34
-42.22
-38.55
-32.82
-25.85
-18.48
-11.33
-4.64
1.57
7.34
12.66
17.30
20.99
23.58
25.10
25.83
26.17
26.48
26.97
27.62
28.22
28.49
28.19
27.20
25.55
23.41
20.98
18.41
15.68
12.73
9.38
5.50
1.05
-3.89
-9.05
-13.95
-17.90
-20.20
-20.42
-18.82
-16.34
-14.55
-15.07
-19.03
-26.68
-37.34
-49.81
-62.71
-74.87
-85.30
-93.16
-97.72
-98.63
-96.25
-91.73
-86.91
-83.57
-82.82
-84.63
-87.82
-90.59
-91.20
-88.77
-83.46
-76.41
-69.17
-63.06
-58.59
-55.33
-52.11
-47.62
-41.10
-32.87
-24.25
-16.94
-12.13
-9.73
-8.24
-5.26
1.60
13.72
30.96
51.71
73.38
93.06
108.23
117.40
120.52
119.35
117.19
118.07
125.25
139.75
159.53
179.99
195.63
202.05
197.52
183.17
162.12
137.93
113.43
90.39
69.80
52.56
39.70
32.23
30.47
33.69
40.07
47.32
53.39
57.06
58.26
57.61
56.04
54.15
52.01
49.27
45.47
40.44
34.44
28.17
22.43
17.92
14.92
13.24
12.36
11.60
10.43
8.58
6.21
3.69
1.49
-0.14
-1.23
-2.05
-2.99
-4.33
-6.09
-8.06
-9.94
-11.47
-12.58
-13.36
-14.03
-14.77
-15.70
-16.88
-18.38
-20.27
-22.65
-25.50
-28.59
-31.41
-33.37
-33.92
-32.77
-29.99
-25.93
-21.06
-15.81
-10.46
-5.21
-0.27
4.08
7.51
9.75
10.76
10.73
10.07
9.28
8.75
8.69
9.09
9.81
10.68
11.61
12.59
13.66
14.82
15.96
16.90
17.47
17.57
17.24
16.68
16.12
15.79
15.83
16.22
16.83
17.39
17.61
17.18
15.98
14.08
11.78
9.53
7.70
6.38
5.31
3.94
1.66
-1.83
-6.33
-11.01
-14.65
-15.95
-14.06
-8.82
-0.91
8.34
17.42
25.01
30.40
33.67
35.55
37.26
40.12
45.23
53.13
63.72
76.14
89.06
100.92
110.32
116.35
118.83
118.32
116.03
113.62
112.89
115.43
122.34
134.00
149.95
168.92
188.98
207.65
222.26
230.42
230.62
222.76
208.24
189.39
168.52
147.08
125.15
101.77
75.61
45.66
11.45
-27.16
-70.10
-116.88
-165.78
-213.20
-253.72
-281.39
-291.87
-284.42
-262.66
-233.45
-204.61
-182.26
-169.17
-164.67
-165.84
-169.31
-172.49
-174.03
-173.47
-170.62
-165.20
-156.85
-145.41
-131.22
-115.12
-98.01
-80.72
-63.94
-48.26
-34.31
-23.00
-15.54
-13.01
-15.79
-22.97
-32.40
-41.51
-47.90
-50.02
-47.54
-41.35
-33.16
-24.89
-18.15
-14.04
-13.60
-17.09
-23.69
-31.68
-39.10
-44.52
-47.44
-48.34
-48.45
-50.72
-57.23
-67.91
-80.68
-92.90
-102.67
-109.28
-112.85
-114.03
-116.69
-123.41
-133.60
-143.80
-150.32
-151.35
-147.30
-139.99
-131.97
-130.90
-142.34
-166.51
-197.81
-228.39
-251.34
-262.30
-260.19
-247.87
-238.20
-243.44
-268.85
-310.41
-359.04
-405.34
-442.45
-466.89
-436.54
-331.73
-166.66
17.27
181.87
310.08
402.09
464.70
505.24
529.01
533.42
517.32
484.69
445.14
406.82
374.21
348.06
327.32
309.82
288.73
259.53
222.28
181.06
139.72
99.36
58.10
18.71
-16.73
-48.22
-74.39
-92.46
-99.41
-94.76
-81.20
-63.27
-44.95
-29.12
-18.19
-12.81
-12.15
-14.34
-17.73
-21.20
-23.99
-25.45
-25.66
-25.51
-25.85
-27.06
-28.56
-29.25
-28.25
-25.43
-21.93
-20.19
-22.71
-31.00
-44.95
-63.01
-82.88
-102.39
-119.83
-133.74
-142.72
-145.25
-140.06
-126.90
-106.92
-82.30
-55.46
-28.19
-1.30
25.10
51.01
76.24
100.43
123.43
145.87
168.80
193.23
219.12
245.08
268.47
286.21
295.66
295.38
285.41
267.05
242.58
214.69
186.07
158.95
134.77
113.95
95.80
78.93
61.73
43.32
23.92
4.87
-11.94
-24.86
-33.11
-37.05
-37.72
-36.46
-34.39
-32.15
-30.12
-28.48
-27.51
-27.35
-28.00
-29.18
-30.43
-31.23
-31.23
-30.38
-28.85
-27.10
-25.55
-24.50
-23.89
-23.38
-22.49
-20.84
-18.50
-16.06
-14.56
-15.08
-18.34
-24.25
-31.82
-39.42
-45.39
-48.89
-50.22
-50.84
-52.45
-55.81
-59.93
-62.26
-59.93
-51.29
-36.87
-19.20
-1.84
11.89
19.67
20.48
14.82
4.96
-4.74
-8.38
-0.03
23.57
60.70
103.81
141.26
161.33
156.67
127.30
80.55
28.05
-18.79
-52.85
-72.86
-82.44
-86.89
-90.07
-92.70
-92.97
-88.66
-79.39
-67.53
-57.35
-53.05
-56.74
-67.81
-83.51
-100.59
-116.65
-130.87
-143.69
-155.84
-167.50
-177.78
-185.12
-187.97
-185.69
-178.85
-169.11
-158.41
-148.26
-139.20
-130.78
-122.20
-112.94
-103.30
-94.40
-87.47
-83.21
-81.21
-80.18
-78.65
-75.78
-71.80
-67.78
-64.87
-63.51
-63.17
-62.60
-60.60
-56.61
-50.78
-43.49
-34.79
-23.97
-9.90
8.25
30.39
55.17
80.28
103.05
121.07
132.69
137.38
135.99
130.70
124.82
122.01
125.26
135.88
152.98
173.74
194.38
211.36
222.41
227.01
226.12
221.48
214.68
206.58
197.13
185.77
172.34
157.56
143.03
130.56
121.30
115.34
112.13
111.21
112.98
118.46
128.54
143.08
160.79
179.77
198.34
215.33
229.69
239.85
243.51
238.35
223.35
199.91
171.91
144.39
121.59
105.29
94.51
86.32
77.41
65.44
49.84
31.57
12.46
-5.86
-22.89
-39.71
-58.67
-82.35
-112.27
-147.89
-186.52
-223.93
-255.57
-277.70
-288.07
-286.05
-272.44
-249.21
-219.41
-187.04
-156.64
-132.60
-118.05
-113.88
-118.20
-126.58
-133.34
-133.37
-124.23
-107.11
-86.51
-68.47
-57.89
-56.68
-63.24
-73.81
-84.47
-93.08
-99.64
-105.54
-112.00
-118.92
-124.87
-127.79
-126.37
-120.88
-113.15
-105.48
-99.11
-93.35
-85.52
-72.18
-50.58
-19.86
18.69
62.19
107.00
149.46
185.99
213.33
228.67
230.38
218.69
195.76
165.04
130.02
93.24
56.08
19.40
-15.73
-47.51
-73.65
-91.91
-100.50
-98.57
-86.33
-65.62
-40.10
-15.13
3.36
10.62
5.06
-10.60
-29.80
-44.13
-46.65
-34.71
-11.24
16.44
39.59
51.65
50.48
38.55
21.04
3.04
-12.32
-24.32
-33.61
-40.78
-45.66
-47.54
-46.21
-42.57
-38.53
-36.01
-36.02
-38.03
-40.10
-39.62
-34.34
-23.21
-7.05
11.44
28.34
39.68
42.73
36.92
23.69
5.70
-14.45
-34.99
-55.14
-74.54
-92.47
-107.57
-118.05
-122.63
-121.25
-115.39
-107.28
-98.87
-90.91
-82.78
-73.10
-60.63
-45.08
-27.18
-8.54
9.06
24.19
36.15
45.14
51.99
57.90
63.80
70.13
76.57
82.21
86.00
86.87
84.12
77.44
67.16
54.38
40.93
29.05
20.61
16.45
16.00
17.81
20.32
22.78
25.38
28.82
33.38
38.44
42.53
44.06
42.26
37.57
31.52
25.91
21.94
19.80
18.80
17.99
16.81
15.47
14.61
14.85
16.22
18.06
19.53
20.01
19.68
19.20
19.32
20.30
21.80
23.20
24.03
24.36
24.53
24.89
25.37
25.42
24.26
21.19
15.86
8.25
-1.23
-11.90
-22.55
-31.60
-37.38
-38.65
-35.06
-27.28
-16.92
-5.67
5.00
14.24
21.90
28.11
33.13
37.16
40.43
43.12
45.49
47.68
49.92
52.46
55.69
60.12
66.18
74.07
83.51
93.73
103.54
111.56
116.64
117.99
115.39
109.00
99.32
86.84
72.15
55.83
38.39
20.31
1.73
-17.25
-36.76
-56.93
-77.66
-98.49
-118.60
-136.90
-152.36
-164.29
-172.43
-176.92
-178.07
-176.24
-171.79
-165.12
-156.81
-147.51
-137.99
-128.80
-120.33
-112.69
-105.83
-99.76
-94.59
-90.49
-87.44
-85.05
-82.38
-78.24
-71.43
-60.99
-46.42
-27.69
-5.40
19.07
43.39
64.48
79.10
84.94
81.61
71.01
56.86
43.37
33.64
28.50
26.54
25.02
21.24
13.77
2.66
-10.81
-24.99
-38.27
-49.35
-56.98
-59.98
-57.47
-49.41
-37.24
-23.60
-11.58
-3.27
1.15
3.50
6.64
12.76
22.30
33.59
43.69
49.68
50.09
45.61
38.97
34.20
35.16
44.12
60.69
81.88
103.04
119.44
127.77
126.83
117.52
101.90
82.49
61.64
41.48
23.77
9.81
0.21
-5.43
-8.23
-9.80
-11.54
-14.34
-18.58
-24.16
-30.85
-38.26
-45.94
-53.25
-59.45
-63.71
-65.19
-63.22
-57.42
-47.94
-35.31
-20.50
-4.68
10.87
24.92
36.35
44.32
48.49
49.12
47.15
43.97
41.04
39.49
39.70
41.37
43.63
45.53
46.47
46.54
46.45
47.44
50.59
56.20
63.20
69.01
70.24
63.78
48.28
24.80
-3.09
-30.47
-52.66
-66.76
-72.42
-71.57
-67.37
-62.60
-58.59
-54.82
-49.60
-41.30
-29.52
-15.57
-1.72
10.15
19.77
28.88
40.19
55.75
75.59
97.40
117.54
132.71
141.19
143.18
139.98
132.85
122.14
107.43
88.45
66.01
42.45
21.21
5.58
-2.49
-3.14
1.57
8.48
14.43
17.11
15.47
9.70
1.13
-8.16
-15.82
-19.99
-20.15
-17.55
-15.00
-15.59
-21.13
-30.85
-41.36
-47.98
-46.83
-36.88
-20.60
-3.08
10.07
14.77
9.67
-3.98
-23.36
-45.16
-66.42
-84.68
-98.09
-105.67
-107.67
-105.75
-102.54
-100.82
-102.52
-108.31
-117.66
-129.40
-142.08
-154.07
-163.52
-168.45
-167.23
-159.03
-144.10
-123.55
-98.90
-71.66
-43.19
-14.77
12.26
36.50
56.59
71.50
80.87
85.63
88.31
92.74
102.83
120.79
145.40
171.73
192.62
201.69
196.20
178.16
153.20
127.71
106.06
89.54
77.13
67.48
60.50
57.68
61.02
71.52
88.17
108.12
127.78
144.21
156.18
164.05
169.11
172.56
174.87
175.96
175.92
175.81
177.79
184.13
195.69
210.61
224.15
230.08
222.99
200.27
162.98
114.92
61.01
5.73
-47.45
-95.86
-137.16
-169.43
-191.75
-204.84
-211.16
-213.99
-216.18
-219.11
-222.56
-225.29
-225.89
-223.54
-218.13
-210.23
-200.82
-191.11
-182.18
-174.53
-167.69
-160.15
-149.90
-135.27
-115.76
-92.41
-67.44
-43.41
-22.48
-5.92
6.02
13.90
18.89
22.59
26.62
32.21
39.72
48.40
56.56
62.32
64.53
63.48
61.09
60.25
63.67
72.54
85.81
100.27
111.67
116.25
112.16
99.92
81.78
60.56
38.47
16.72
-4.05
-23.01
-38.94
-50.61
-57.77
-61.55
-64.14
-67.86
-74.05
-82.86
-93.68
-105.79
-118.68
-131.57
-142.87
-149.87
-149.55
-139.89
-121.20
-96.43
-70.34
-47.95
-32.92
-26.59
-27.90
-34.16
-42.06
-48.73
-52.55
-53.14
-51.09
-47.32
-42.73
-37.96
-33.56
-29.95
-27.37
-25.57
-23.75
-20.87
-16.23
-10.10
-3.78
0.92
2.63
1.25
-1.91
-4.47
-3.72
2.73
16.16
36.20
60.28
83.89
101.60
108.77
103.39
86.98
64.06
40.35
20.52
6.69
-1.56
-6.00
-8.17
-8.46
-6.40
-1.79
4.33
9.67
11.69
9.08
2.62
-4.98
-10.42
-11.58
-8.78
-4.62
-2.51
-4.67
-10.93
-18.91
-25.50
-28.55
-27.90
-25.06
-22.09
-20.58
-21.12
-23.60
-27.63
-32.91
-39.10
-45.58
-51.45
-56.00
-59.45
-63.24
-69.54
-79.61
-92.46
-104.20
-108.83
-100.39
-75.42
-34.93
15.32
66.25
108.33
134.44
141.85
132.33
110.74
83.05
54.58
29.23
9.41
-3.63
-9.52
-8.74
-2.75
6.08
14.84
20.85
22.56
19.79
13.75
6.38
-0.50
-5.77
-9.45
-12.40
-15.86
-20.50
-25.70
-29.31
-28.22
-19.73
-2.75
21.38
49.39
77.13
101.15
119.49
131.82
138.72
140.93
138.97
133.21
124.39
113.85
103.48
95.03
89.61
87.28
87.15
87.97
88.25
86.56
81.32
70.64
52.83
27.20
-4.94
-39.81
-71.72
-94.90
-105.35
-102.17
-87.52
-65.30
-39.46
-12.83
12.82
36.08
55.01
67.27
70.82
64.90
50.77
31.31
10.15
-9.53
-25.68
-37.65
-45.83
-51.40
-55.98
-61.33
-69.03
-79.86
-93.47
-108.15
-121.22
-129.65
-131.00
-124.02
-108.76
-86.62
-59.80
-31.12
-3.45
20.63
39.27
51.77
58.56
61.07
61.06
60.16
59.49
59.55
60.26
61.10
61.16
59.44
55.21
48.30
39.34
29.56
20.17
11.78
3.91
-4.74
-15.59
-29.11
-44.28
-58.67
-69.52
-75.07
-75.50
-72.80
-69.62
-67.91
-67.95
-68.36
-67.00
-62.09
-52.98
-40.14
-24.86
-8.69
6.67
19.45
27.98
31.16
29.09
23.15
15.67
8.93
4.34
1.98
0.79
-0.73
-3.85
-8.99
-15.50
-21.78
-25.74
-25.48
-19.96
-9.33
5.17
21.63
38.24
53.77
67.79
80.38
91.76
101.84
110.02
115.23
116.13
111.56
100.78
83.79
61.42
35.27
7.50
-19.42
-43.04
-61.46
-73.73
-80.28
-82.85
-83.86
-85.32
-87.55
-88.64
-84.82
-71.99
-47.64
-12.32
30.01
72.94
109.43
133.70
142.56
135.82
115.72
86.08
51.31
15.81
-16.49
-42.44
-59.98
-68.61
-69.54
-65.47
-59.70
-55.13
-53.31
-54.05
-55.71
-56.10
-53.44
-47.05
-37.62
-26.84
-16.93
-10.04
-7.77
-10.94
-19.50
-32.39
-47.61
-62.45
-74.08
-80.36
-80.61
-75.77
-68.06
-60.01
-53.53
-49.27
-46.76
-44.99
-43.28
-41.68
-40.89
-41.71
-44.35
-48.17
-51.90
-54.24
-54.39
-52.27
-48.25
-42.78
-36.01
-27.75
-17.80
-6.39
5.64
16.90
26.04
32.31
36.02
38.41
41.07
45.13
50.91
58.03
65.99
74.66
84.38
95.68
108.62
122.48
135.84
147.10
154.85
158.09
155.95
147.46
131.62
108.18
78.46
45.78
14.87
-9.64
-24.91
-30.91
-30.18
-26.66
-24.10
-24.81
-29.28
-36.61
-45.34
-53.94
-60.86
-64.34
-62.40
-53.26
-36.39
-13.34
12.02
34.61
49.58
54.08
47.97
33.70
15.27
-3.00
-17.48
-25.90
-27.56
-23.39
-15.53
-6.71
0.56
4.89
6.17
5.44
4.30
4.26
6.18
10.11
15.18
19.70
21.53
18.59
9.78
-4.48
-22.09
-39.92
-54.96
-65.40
-71.12
-73.39
-74.15
-75.07
-76.74
-78.21
-77.04
-69.77
-52.91
-24.26
16.07
65.19
118.02
168.67
212.07
245.32
267.97
281.42
287.74
288.64
285.12
277.83
267.63
255.90
244.27
233.87
224.70
215.38
203.83
188.33
168.46
145.50
121.94
100.46
82.85
69.36
58.83
49.33
39.01
26.78
12.55
-3.01
-18.90
-34.38
-49.28
-63.88
-78.72
-94.00
-109.27
-123.31
-134.36
-140.71
-141.34
-136.33
-127.07
-116.00
-105.96
-99.44
-97.90
-101.59
-109.62
-120.59
-133.02
-145.66
-157.54
-167.66
-174.97
-178.43
-177.52
-172.55
-164.69
-155.47
-146.08
-136.78
-126.87
-115.19
-100.94
-84.14
-65.78
-47.33
-30.21
-15.62
-4.39
2.81
5.61
4.16
-0.80
-7.79
-14.85
-19.84
-20.93
-17.03
-8.13
4.55
18.75
31.73
41.18
45.95
46.46
44.30
41.43
39.23
38.11
37.71
37.43
37.16
37.39
38.91
42.26
47.28
53.12
58.58
62.69
65.24
66.84
68.55
71.31
75.48
80.70
86.08
90.66
93.92
95.88
97.02
97.92
99.03
100.45
101.90
102.76
102.12
98.95
92.37
81.93
67.78
50.69
31.80
12.28
-6.91
-25.21
-42.35
-58.23
-72.81
-86.12
-98.10
-108.74
-117.93
-125.48
-131.15
-134.84
-136.76
-137.38
-137.28
-136.74
-135.69
-133.69
-130.35
-125.62
-119.86
-113.46
-106.44
-98.14
-87.48
-73.55
-56.26
-36.68
-16.67
1.76
17.16
29.00
37.50
43.22
46.60
47.82
46.91
44.05
39.82
35.20
31.36
29.15
28.79
29.70
30.81
31.07
30.06
28.11
26.04
24.48
23.40
22.00
19.28
14.74
8.82
2.72
-2.23
-5.33
-6.85
-7.80
-9.31
-12.12
-16.40
-22.15
-29.68
-39.78
-53.49
-71.38
-93.13
-117.37
-142.06
-165.03
-184.28
-198.09
-204.92
-203.61
-193.80
-176.55
-154.44
-131.03
-109.68
-92.41
-79.37
-69.31
-60.57
-52.08
-43.61
-35.56
-28.20
-21.41
-14.65
-7.42
0.46
9.06
18.63
29.89
43.84
61.06
81.18
102.65
123.13
140.30
152.51
158.93
159.27
153.29
140.44
120.10
92.07
57.31
18.15
-22.00
-59.52
-91.56
-116.79
-135.54
-149.14
-158.95
-165.33
-167.21
-162.39
-148.67
-125.18
-93.13
-55.86
-17.80
16.75
44.71
64.57
76.08
79.78
76.64
67.97
55.57
41.65
28.52
18.05
11.21
7.95
7.50
8.86
11.17
13.95
17.02
20.39
24.11
28.25
32.75
37.32
41.50
44.59
45.89
44.90
41.47
35.83
28.51
20.08
10.95
1.40
-8.47
-18.47
-28.10
-36.28
-41.47
-42.04
-37.06
-26.92
-13.43
0.62
12.50
20.53
24.56
25.61
25.16
24.14
22.61
20.03
15.98
10.66
4.94
-0.06
-3.69
-6.06
-7.91
-10.23
-13.78
-18.85
-25.32
-32.66
-40.13
-46.70
-51.27
-52.85
-51.01
-46.13
-39.15
-31.30
-23.42
-15.88
-8.72
-2.11
3.33
6.77
7.67
6.24
3.50
0.72
-1.22
-2.25
-2.92
-3.80
-5.01
-6.01
-6.03
-4.57
-1.77
1.64
4.73
6.84
7.76
7.70
7.11
6.59
6.56
7.19
8.26
9.05
8.61
6.07
0.94
-6.66
-16.08
-26.31
-36.21
-44.69
-50.75
-53.56
-52.69
-48.28
-41.02
-31.84
-21.40
-9.63
4.25
21.26
41.89
65.52
90.22
113.20
131.63
143.29
146.95
142.48
130.75
113.66
94.22
76.18
63.31
58.35
61.89
72.20
85.77
98.64
107.78
111.95
111.53
107.78
101.84
94.30
85.18
74.47
62.39
49.49
36.46
23.93
12.32
1.83
-7.49
-15.68
-22.95
-29.71
-36.53
-44.11
-52.94
-63.10
-74.07
-84.72
-93.52
-98.80
-99.25
-94.19
-83.83
-69.40
-52.92
-36.77
-23.16
-13.60
-8.51
-7.31
-8.73
-11.29
-13.79
-15.41
-15.75
-14.71
-12.71
-10.90
-11.17
-15.61
-25.46
-39.98
-56.16
-69.40
-75.23
-70.93
-56.52
-34.53
-8.80
16.97
40.20
59.52
74.24
83.88
87.93
86.17
79.11
68.33
56.15
45.05
36.84
32.12
30.35
30.36
31.08
31.86
32.50
32.65
31.38
27.16
18.45
4.56
-13.77
-34.35
-54.23
-70.89
-83.11
-91.07
-95.75
-98.11
-98.46
-96.52
-92.10
-85.76
-78.84
-72.99
-69.14
-67.05
-65.30
-62.08
-56.34
-48.25
-39.25
-31.27
-25.76
-23.10
-22.47
-22.39
-21.54
-19.40
-16.39
-13.72
-12.78
-14.73
-20.33
-29.99
-43.82
-61.47
-81.67
-101.86
-118.37
-127.42
-126.51
-115.77
-98.25
-79.13
-63.95
-56.76
-58.85
-68.48
-81.49
-92.57
-96.99
-92.05
-77.90
-57.27
-34.39
-13.42
2.87
13.66
19.79
22.86
24.51
26.02
28.29
32.18
38.20
46.26
55.18
62.54
65.40
61.72
51.64
38.12
26.15
21.03
26.26
42.20
65.98
92.51
116.08
131.87
136.90
130.51
114.16
90.86
64.29
37.71
13.40
-7.39
-24.10
-36.44
-44.46
-48.90
-51.47
-54.40
-59.26
-65.52
-70.05
-68.00
-54.87
-28.74
8.65
52.37
95.99
133.67
161.37
177.22
181.13
174.42
159.39
139.07
116.97
96.62
81.04
72.21
70.82
76.14
86.16
97.81
107.26
110.30
103.13
83.55
52.21
13.54
-24.45
-51.80
-59.63
-43.57
-6.22
42.75
89.23
119.33
124.22
102.81
61.48
11.11
-37.12
-74.98
-98.75
-108.62
-107.16
-97.76
-83.65
-67.71
-52.46
-40.03
-31.88
-28.46
-29.14
-32.32
-35.79
-37.39
-35.68
-30.26
-21.94
-12.26
-2.96
4.81
10.65
14.77
17.67
19.71
20.88
20.88
19.29
15.74
10.04
2.30
-6.77
-15.68
-22.31
-24.37
-20.28
-10.04
4.32
19.30
30.93
36.19
34.06
25.80
14.32
3.24
-4.12
-5.43
0.39
13.06
30.82
50.15
65.95
72.63
65.88
44.65
12.33
-23.69
-54.35
-71.95
-73.04
-59.51
-37.43
-14.25
4.31
16.05
22.11
25.08
26.79
27.19
24.87
19.04
11.34
6.36
10.50
29.13
63.64
109.93
159.03
199.75
222.06
220.07
193.41
146.78
88.26
26.82
-29.75
-76.15
-109.88
-130.61
-139.50
-138.37
-129.34
-114.67
-96.53
-76.81
-56.81
-37.03
-17.09
4.21
27.95
53.97
79.73
100.29
109.66
103.10
79.64
43.16
1.30
-37.24
-65.76
-81.47
-85.48
-81.19
-72.46
-62.56
-53.73
-47.21
-43.10
-40.30
-37.13
-32.56
-27.41
-24.41
-26.73
-35.77
-49.62
-63.43
-71.54
-70.21
-59.29
-41.81
-22.03
-3.17
13.74
29.44
45.18
61.49
77.55
91.59
101.70
106.54
105.86
100.59
92.27
82.57
72.77
63.40
54.47
45.79
37.29
29.18
21.77
15.22
9.44
4.18
-0.78
-5.50
-9.77
-13.19
-15.45
-16.46
-16.58
-16.59
-17.64
-20.88
-27.19
-36.78
-49.10
-62.82
-76.16
-87.29
-94.91
-98.57
-98.83
-96.88
-94.09
-91.28
-88.34
-84.27
-77.76
-67.98
-55.17
-40.82
-27.24
-16.77
-11.08
-10.62
-14.77
-22.02
-30.41
-37.85
-42.40
-42.65
-38.24
-30.21
-21.06
-14.02
-11.99
-16.37
-26.29
-38.75
-49.32
-53.51
-48.09
-31.99
-6.70
24.07
55.13
81.05
97.44
102.32
96.96
85.74
74.82
69.76
73.09
83.23
95.31
103.80
105.39
100.70
93.65
88.95
89.24
93.50
97.52
95.88
84.39
61.45
28.27
-11.61
-52.95
-89.45
-114.70
-123.72
-114.94
-91.55
-61.29
-33.92
-17.64
-15.89
-26.43
-43.09
-59.27
-71.09
-78.61
-84.67
-92.17
-101.73
-110.78
-114.63
-108.71
-90.44
-59.80
-18.49
31.48
88.70
151.92
218.56
283.58
339.39
377.67
392.20
381.40
349.02
302.40
249.34
195.35
142.63
91.13
40.73
-7.07
-49.03
-81.67
-103.36
-115.49
-122.06
-127.61
-134.90
-143.50
-150.11
-150.37
-141.29
-122.82
-97.90
-71.26
-47.48
-29.68
-19.18
-16.08
-19.93
-29.54
-42.42
-54.40
-60.44
-56.56
-41.88
-19.59
4.16
22.83
32.26
32.18
25.80
17.91
12.65
11.93
15.20
20.20
24.23
25.50
23.78
20.58
18.44
19.84
26.02
36.41
49.10
61.81
73.10
82.74
91.25
99.03
105.49
109.27
108.83
103.46
93.57
80.48
65.63
49.85
33.22
15.33
-4.03
-24.51
-45.03
-64.26
-81.00
-94.56
-104.96
-112.79
-119.02
-124.79
-131.08
-138.45
-146.88
-155.68
-163.73
-169.89
-173.42
-174.36
-173.43
-171.77
-170.36
-169.60
-169.20
-168.25
-165.58
-160.01
-150.79
-137.80
-121.68
-103.89
-86.43
-71.52
-60.90
-55.17
-53.44
-53.46
-52.48
-48.38
-40.51
-29.72
-17.60
-5.58
5.61
15.76
24.57
31.37
35.35
36.28
35.02
33.39
33.37
36.17
41.83
49.65
58.85
69.04
80.07
91.36
101.55
108.74
111.42
109.33
103.60
96.12
88.56
81.78
75.90
70.95
67.46
66.34
68.27
73.04
79.44
86.10
92.71
100.64
112.19
128.71
148.88
168.15
180.29
180.07
165.72
139.43
105.95
70.06
34.66
0.69
-31.63
-61.19
-85.73
-102.89
-112.04
-115.26
-116.53
-119.67
-126.09
-134.01
-139.38
-138.14
-128.21
-110.44
-88.03
-64.95
-44.50
-28.51
-17.40
-10.72
-7.63
-7.18
-8.42
-10.40
-12.17
-13.00
-12.40
-10.27
-6.84
-2.67
1.52
4.94
7.01
7.52
6.64
4.85
2.70
0.62
-1.14
-2.50
-3.40
-3.80
-3.65
-3.00
-2.02
-0.97
-0.18
0.09
-0.40
-1.80
-4.24
-7.70
-12.04
-16.85
-21.63
-25.90
-29.37
-32.11
-34.51
-37.08
-40.21
-44.03
-48.32
-52.69
-56.61
-59.63
-61.39
-61.66
-60.27
-57.14
-52.29
-45.83
-37.96
-28.91
-18.99
-8.52
2.05
12.24
21.45
29.15
35.04
39.10
41.70
43.38
44.71
46.03
47.39
48.58
49.33
49.47
48.98
48.01
46.75
45.34
43.82
42.10
40.05
37.55
34.52
30.97
27.03
22.93
18.88
15.01
11.26
7.41
3.17
-1.64
-7.00
-12.54
-17.68
-21.73
-24.07
-24.28
-22.27
-18.16
-12.35
-5.37
2.21
9.85
17.08
23.56
29.10
33.61
37.05
39.44
40.80
41.16
40.63
39.39
37.68
35.75
33.79
31.89
30.08
28.36
26.68
25.06
23.47
21.87
20.18
18.30
16.16
13.79
11.24
8.55
5.76
2.85
-0.18
-3.37
-6.73
-10.33
-14.24
-18.56
-23.23
-28.03
-32.47
-35.99
-38.07
-38.41
-36.92
-33.63
-28.68
-22.18
-14.35
-5.60
3.45
12.04
19.47
25.29
29.37
31.89
33.20
33.65
33.56
33.15
32.65
32.20
31.90
31.78
31.74
31.63
31.25
30.43
29.12
27.33
25.10
22.45
19.35
15.78
11.79
7.54
3.26
-0.78
-4.44
-7.76
-10.92
-14.20
-17.91
-22.27
-27.34
-32.95
-38.63
-43.61
-47.00
-48.01
-46.27
-41.95
-35.70
-28.38
-20.80
-13.44
-6.52
-0.04
5.98
11.46
16.19
19.98
22.74
24.49
25.35
25.54
25.29
24.82
24.31
23.88
23.55
23.35
23.20
23.07
22.87
22.42
21.50
19.88
17.45
14.30
10.76
7.20
3.99
1.25
-1.13
-3.46
-6.11
-9.40
-13.49
-18.37
-23.80
-29.35
-34.41
-38.28
-40.33
-40.18
-37.74
-33.30
-27.30
-20.34
-12.97
-5.65
1.28
7.63
13.26
18.13
22.10
25.04
26.83
27.51
27.32
26.68
26.02
25.63
25.54
25.59
25.60
25.46
25.20
24.87
24.40
23.59
22.23
20.18
17.49
14.38
11.10
7.78
4.46
1.04
-2.55
-6.35
-10.39
-14.70
-19.36
-24.37
-29.55
-34.41
-38.22
-40.19
-39.73
-36.72
-31.51
-24.87
-17.63
-10.47
-3.80
2.22
7.54
12.12
15.82
18.54
20.20
20.88
20.80
20.20
19.31
18.28
17.19
16.10
15.11
14.27
13.58
12.96
12.20
11.05
9.35
7.12
4.55
1.95
-0.44
-2.55
-4.49
-6.49
-8.81
-11.54
-14.67
-18.09
-21.72
-25.57
-29.72
-34.24
-39.06
-44.02
-48.72
-52.57
-54.66
-53.79
-48.55
-37.71
-20.74
1.70
27.66
54.17
78.19
97.43
111.03
119.64
124.94
128.79
132.56
136.73
140.98
144.49
146.12
144.51
138.12
125.57
106.20
80.71
51.44
21.82
-4.60
-25.21
-39.00
-46.37
-48.61
-47.26
-43.87
-39.99
-37.19
-36.93
-40.06
-46.46
-54.90
-63.56
-70.65
-74.84
-75.39
-71.79
-63.45
-49.61
-29.69
-3.86
26.39
58.27
88.14
112.42
128.53
135.45
133.76
125.12
111.73
95.67
78.73
62.38
48.03
37.12
31.11
31.30
38.39
52.10
70.94
92.26
112.73
128.97
138.24
138.93
130.58
113.72
89.54
59.61
25.80
-9.89
-45.54
-79.45
-110.45
-137.83
-161.09
-179.61
-192.56
-199.22
-199.38
-193.90
-184.70
-174.27
-164.75
-157.13
-150.91
-144.57
-136.50
-125.94
-113.38
-100.25
-88.20
-78.30
-70.68
-64.79
-59.79
-55.16
-50.85
-47.17
-44.40
-42.49
-40.99
-39.20
-36.54
-32.78
-28.11
-23.00
-17.96
-13.28
-8.96
-4.82
-0.66
3.51
7.39
10.45
12.16
12.15
10.39
7.11
2.63
-2.73
-8.77
-15.23
-21.72
-27.53
-31.74
-33.46
-32.16
-27.99
-21.85
-15.21
-9.73
-6.71
-6.74
-9.44
-13.58
-17.42
-19.23
-17.81
-12.96
-5.63
2.24
8.14
9.81
6.00
-2.87
-14.68
-26.10
-33.64
-34.65
-27.92
-13.85
5.92
28.87
52.03
72.44
87.58
95.87
96.94
91.74
82.06
70.12
57.85
46.72
37.59
30.72
25.88
22.38
19.28
15.77
11.70
7.72
5.09
4.95
7.68
12.46
17.50
20.82
20.91
17.45
11.21
3.66
-3.71
-9.94
-14.85
-18.91
-22.81
-27.12
-32.01
-37.30
-42.48
-47.02
-50.46
-52.56
-53.43
-53.46
-53.29
-53.60
-54.87
-57.20
-60.28
-63.60
-66.72
-69.55
-72.44
-76.00
-80.68
-86.24
-91.63
-95.20
-95.43
-91.57
-84.19
-74.93
-65.90
-58.94
-55.05
-54.29
-55.96
-59.01
-62.30
-64.81
-65.78
-64.88
-62.38
-58.94
-55.11
-50.63
-44.06
-33.12
-15.74
8.62
38.14
68.75
95.41
113.76
121.55
119.10
108.89
94.53
79.79
67.91
61.08
60.32
65.35
74.66
85.90
96.34
103.55
105.80
102.34
93.42
80.15
64.25
47.70
32.20
18.65
6.73
-4.80
-17.40
-31.67
-46.65
-60.00
-68.87
-71.33
-67.35
-59.05
-49.81
-42.76
-39.43
-39.26
-40.20
-40.14
-38.14
-34.86
-31.92
-30.67
-31.21
-32.26
-31.96
-28.93
-22.91
-14.70
-5.38
4.41
14.75
26.12
38.68
51.90
64.46
74.81
81.78
85.00
84.95
82.57
78.77
73.92
67.81
59.89
49.83
38.05
25.85
15.08
7.33
3.32
2.60
3.84
5.54
6.56
6.42
5.09
2.71
-0.68
-5.12
-10.48
-16.38
-22.26
-27.58
-32.03
-35.58
-38.23
-39.79
-39.85
-37.85
-33.48
-26.85
-18.54
-9.41
-0.36
7.85
14.67
19.70
22.72
23.62
22.58
19.96
16.32
12.23
8.17
4.49
1.36
-1.21
-3.37
-5.34
-7.44
-9.93
-12.93
-16.36
-20.05
-23.80
-27.52
-31.17
-34.74
-38.03
-40.67
-42.27
-42.71
-42.40
-42.16
-42.86
-44.75
-47.15
-48.50
-47.03
-41.56
-32.13
-19.97
-6.96
5.02
14.75
21.80
26.35
28.89
29.95
30.06
29.72
29.44
29.61
30.37
31.57
32.79
33.52
33.31
31.95
29.52
26.44
23.26
20.43
18.11
16.02
13.61
10.29
5.74
0.09
-6.09
-12.03
-16.88
-19.95
-20.84
-19.44
-15.94
-10.82
-4.78
1.40
6.99
11.50
14.69
16.53
17.15
16.71
15.42
13.54
11.47
9.65
8.53
8.37
9.21
10.81
12.78
14.61
15.84
16.21
15.61
14.21
12.40
10.57
9.06
7.87
6.65
4.74
1.51
-3.40
-9.75
-16.67
-22.82
-26.80
-27.51
-24.63
-18.56
-10.36
-1.24
7.78
16.19
23.94
31.17
37.93
43.95
48.70
51.51
51.85
49.30
43.80
35.80
26.63
18.66
15.08
19.09
32.66
55.49
84.73
115.66
143.13
162.89
172.51
171.25
159.52
138.34
109.25
74.60
37.74
2.78
-26.23
-46.35
-56.51
-57.64
-52.17
-42.98
-32.57
-22.28
-12.24
-1.82
9.72
22.50
35.75
47.94
57.46
63.23
65.14
63.94
60.82
56.83
52.59
48.33
44.18
40.40
37.47
35.94
36.16
37.99
40.79
43.43
44.53
42.85
37.64
28.93
17.54
4.75
-8.11
-20.11
-30.93
-40.70
-49.70
-58.04
-65.43
-71.30
-75.02
-76.19
-74.82
-71.32
-66.31
-60.37
-53.92
-47.18
-40.32
-33.64
-27.57
-22.66
-19.20
-17.25
-16.48
-16.48
-16.99
-17.91
-19.41
-21.60
-24.42
-27.56
-30.56
-32.94
-34.31
-34.47
-33.31
-30.83
-27.08
-22.31
-16.95
-11.60
-6.90
-3.30
-1.01
0.12
0.41
0.22
-0.31
-1.22
-2.69
-4.80
-7.24
-9.35
-10.29
-9.53
-7.10
-3.71
-0.50
1.58
2.11
1.45
0.40
-0.18
0.10
1.07
2.13
2.61
2.09
0.48
-2.06
-5.30
-9.02
-12.98
-16.89
-20.39
-23.31
-25.72
-27.98
-30.59
-33.88
-37.81
-41.97
-45.75
-48.70
-50.75
-52.15
-53.37
-54.76
-56.35
-57.88
-58.87
-58.81
-57.26
-53.96
-48.78
-41.81
-33.35
-23.89
-14.18
-4.94
3.19
9.91
15.25
19.47
22.92
25.89
28.53
30.89
33.02
34.86
36.26
36.88
36.21
33.81
29.54
23.85
17.66
12.11
8.09
5.84
4.86
4.17
2.82
0.26
-3.41
-7.70
-12.01
-16.01
-19.73
-23.36
-27.02
-30.39
-32.72
-32.97
-30.18
-23.84
-14.10
-1.83
11.76
25.35
37.90
48.74
57.57
64.29
68.79
70.95
70.60
67.76
62.64
55.72
47.66
39.23
31.25
24.32
18.76
14.46
11.04
8.09
5.44
3.28
1.99
1.74
2.20
2.53
1.55
-1.61
-7.29
-15.10
-24.18
-33.57
-42.61
-51.04
-58.92
-66.37
-73.33
-79.39
-83.89
-85.99
-85.07
-80.76
-73.20
-62.99
-51.08
-38.65
-26.83
-16.53
-8.14
-1.51
4.03
9.32
15.03
21.20
27.30
32.43
35.80
37.10
36.57
34.81
32.30
29.25
25.58
21.11
15.74
9.41
1.93
-7.04
-17.58
-28.97
-39.31
-45.99
-46.74
-40.85
-29.84
-17.14
-6.78
-1.98
-4.09
-12.41
-24.71
-38.09
-49.58
-56.69
-57.75
-52.15
-40.71
-25.46
-9.39
4.47
13.87
18.10
18.04
15.94
14.71
16.99
24.36
36.83
52.87
69.79
84.44
94.17
97.38
93.85
84.46
70.75
54.28
36.23
17.40
-1.68
-20.32
-37.64
-52.66
-64.77
-73.93
-80.63
-85.53
-88.86
-90.30
-89.10
-84.68
-77.22
-67.86
-58.39
-50.52
-45.23
-42.33
-40.84
-39.51
-37.67
-35.47
-33.83
-33.78
-35.83
-39.65
-44.01
-47.39
-48.58
-47.25
-44.14
-40.76
-38.79
-39.38
-42.85
-48.60
-55.57
-62.85
-70.10
-77.62
-86.08
-96.08
-107.75
-120.69
-133.84
-145.52
-153.44
-154.90
-147.24
-128.62
-98.96
-60.50
-17.78
23.36
57.33
80.43
91.75
93.13
88.16
80.75
73.93
69.26
66.93
66.33
66.61
67.15
67.55
67.41
66.24
63.50
58.69
51.62
42.37
31.34
19.11
6.39
-6.13
-17.88
-28.57
-38.33
-47.59
-56.89
-66.44
-75.93
-84.49
-90.99
-94.46
-94.54
-91.68
-87.08
-82.33
-78.90
-77.68
-78.65
-80.83
-82.61
-82.41
-79.23
-72.99
-64.17
-53.22
-40.14
-24.53
-6.25
13.93
34.17
52.30
66.95
78.31
88.16
98.81
111.95
127.83
145.31
162.54
177.56
188.53
193.64
191.35
181.13
164.74
146.78
133.95
132.89
147.35
176.43
214.68
254.23
287.64
310.33
321.07
320.94
311.58
293.88
267.94
233.92
193.34
149.32
106.17
67.98
37.33
14.75
-1.14
-12.69
-22.35
-31.92
-42.45
-54.38
-67.76
-82.45
-98.02
-113.81
-128.87
-142.07
-152.20
-158.17
-159.20
-155.05
-146.22
-133.86
-119.55
-104.86
-90.89
-78.09
-66.41
-55.57
-45.43
-36.22
-28.34
-22.18
-17.82
-15.04
-13.41
-12.60
-12.57
-13.50
-15.71
-19.11
-23.02
-26.19
-27.10
-24.60
-18.35
-9.20
1.11
10.28
16.08
16.67
10.79
-2.06
-21.45
-45.65
-71.54
-94.84
-111.03
-116.63
-110.33
-93.55
-69.91
-44.00
-19.94
-0.35
13.86
23.08
28.20
30.06
29.19
26.01
21.02
14.95
8.65
2.93
-1.50
-4.13
-4.41
-1.88
3.76
12.44
23.45
35.64
47.68
58.43
67.19
73.51
76.88
76.52
71.51
61.28
46.32
28.32
10.06
-5.53
-16.19
-21.07
-20.71
-16.55
-10.13
-2.34
6.69
17.42
30.11
44.30
58.39
69.97
76.50
76.06
68.05
53.21
33.42
11.26
-10.30
-28.12
-39.18
-41.30
-33.88
-18.54
0.88
19.45
32.47
36.91
32.01
18.90
-0.17
-22.81
-46.65
-69.20
-87.36
-97.66
-97.09
-84.46
-61.41
-32.43
-3.60
19.39
33.13
37.29
34.29
27.82
21.35
16.99
15.36
16.01
18.25
21.66
26.18
31.87
38.45
45.04
50.11
51.99
49.43
42.23
31.49
19.19
7.49
-2.13
-9.28
-14.55
-18.88
-22.87
-26.43
-28.90
-29.60
-28.35
-25.68
-22.69
-20.41
-19.36
-19.23
-19.02
-17.50
-13.76
-7.56
0.63
9.80
18.80
26.65
32.76
36.87
39.03
39.43
38.33
36.10
33.18
30.13
27.57
25.91
25.26
25.19
24.83
23.12
19.13
12.40
3.12
-7.96
-19.71
-30.92
-40.53
-47.86
-52.75
-55.52
-56.92
-57.85
-58.99
-60.60
-62.29
-63.17
-62.10
-58.09
-50.63
-39.89
-26.69
-12.33
1.79
14.43
24.85
32.92
38.97
43.59
47.30
50.28
52.41
53.36
52.91
51.10
48.23
44.75
41.05
37.34
33.56
29.50
24.83
19.20
12.37
4.44
-3.92
-11.44
-16.47
-17.70
-14.88
-9.32
-3.64
-0.83
-3.02
-10.48
-21.48
-32.97
-41.80
-45.71
-43.95
-37.10
-26.54
-13.85
-0.49
12.47
24.45
35.46
46.06
56.97
68.53
80.12
90.02
95.71
94.78
85.87
69.21
46.64
21.01
-4.71
-28.00
-47.11
-60.99
-69.08
-71.22
-67.64
-59.01
-46.40
-31.21
-15.13
0.09
12.73
21.31
24.90
23.34
17.42
8.71
-0.80
-9.15
-14.95
-17.52
-16.90
-13.68
-8.73
-2.97
2.79
7.90
11.95
14.65
15.85
15.36
13.08
9.11
3.98
-1.30
-5.43
-7.20
-6.04
-2.38
2.39
6.26
7.11
3.31
-5.71
-19.12
-34.50
-48.26
-56.43
-55.92
-45.75
-27.73
-6.25
12.98
24.60
25.23
14.34
-5.79
-30.94
-56.23
-77.27
-90.94
-95.82
-92.18
-81.76
-67.15
-51.13
-36.03
-23.21
-12.93
-4.67
2.51
9.32
15.91
21.79
26.15
28.22
27.69
24.96
20.94
16.79
13.54
11.75
11.33
11.64
11.64
10.23
6.57
0.22
-8.53
-18.84
-29.50
-39.20
-46.90
-52.08
-54.64
-54.80
-52.81
-48.68
-42.17
-32.99
-20.95
-6.18
10.87
29.63
49.46
69.67
89.39
107.61
123.40
136.33
146.74
155.56
163.87
172.23
180.40
187.60
192.96
195.87
195.97
192.69
185.12
172.10
153.05
128.72
101.47
74.72
51.79
34.84
24.33
19.11
17.06
15.68
12.69
6.39
-3.96
-18.02
-34.55
-51.89
-68.58
-83.70
-96.75
-107.32
-114.72
-118.01
-116.36
-109.50
-98.02
-83.26
-66.99
-51.01
-36.94
-26.23
-19.97
-18.82
-22.69
-30.68
-41.24
-52.62
-63.35
-72.40
-79.32
-84.00
-86.51
-86.95
-85.40
-81.86
-76.31
-68.72
-59.10
-47.60
-34.49
-20.25
-5.61
8.52
21.10
31.09
37.69
40.64
40.19
37.16
32.67
27.82
23.48
20.15
18.07
17.23
17.52
18.74
20.66
23.10
25.93
28.98
32.02
34.60
36.08
35.86
33.58
29.33
23.66
17.28
10.78
4.28
-2.51
-10.08
-18.83
-28.79
-39.47
-50.06
-59.65
-67.66
-74.01
-79.36
-84.94
-92.21
-102.30
-115.32
-130.06
-143.82
-152.93
-153.59
-142.90
-119.82
-85.67
-43.86
0.90
43.94
81.77
112.72
136.80
154.97
168.22
176.95
180.94
179.74
173.25
162.08
147.33
130.28
111.99
93.25
74.78
57.42
42.16
29.68
19.85
11.26
1.48
-12.15
-31.38
-56.30
-85.59
-117.23
-149.29
-179.83
-206.39
-225.02
-230.67
-219.38
-191.01
-150.91
-108.61
-73.97
-52.77
-44.92
-46.27
-52.41
-61.90
-76.13
-96.52
-121.31
-144.69
-159.38
-160.73
-149.53
-131.58
-114.30
-102.63
-97.03
-94.37
-90.76
-83.99
-74.36
-63.69
-53.81
-45.50
-38.30
-31.26
-23.87
-16.51
-10.52
-7.76
-10.24
-19.56
-36.61
-60.85
-89.67
-118.03
-139.20
-146.81
-137.44
-112.55
-78.40
-43.77
-16.62
-1.31
2.30
-2.38
-10.88
-19.56
-26.26
-29.97
-30.09
-26.18
-18.14
-6.72
6.52
19.53
30.38
37.85
41.49
41.38
37.89
31.47
22.64
12.25
1.62
-7.51
-13.31
-14.37
-10.37
-2.19
8.33
19.01
28.13
34.93
39.50
42.52
44.68
46.50
48.43
51.11
55.51
62.63
72.98
86.03
100.07
112.62
121.18
124.06
120.86
112.27
99.73
84.95
69.52
54.85
42.10
32.03
24.81
19.88
16.10
12.23
7.59
2.34
-2.40
-5.28
-5.26
-2.35
2.47
7.72
12.17
15.47
18.45
23.02
31.81
47.54
72.01
104.89
142.79
179.06
204.90
211.84
194.85
154.76
98.53
37.20
-17.92
-58.96
-83.45
-93.83
-94.99
-91.66
-86.96
-82.61
-79.89
-80.59
-86.63
-98.97
-116.38
-135.42
-151.64
-161.39
-162.98
-156.64
-143.28
-123.34
-96.51
-62.93
-24.54
14.11
46.73
67.47
73.25
64.96
46.97
25.17
4.80
-10.94
-21.12
-26.21
-27.19
-25.04
-20.67
-15.21
-10.09
-6.77
-6.28
-8.88
-13.88
-19.74
-24.47
-26.12
-23.34
-15.90
-4.73
8.38
21.57
33.84
45.48
57.91
72.72
90.60
110.76
131.06
148.94
162.43
170.94
175.11
176.27
175.65
173.84
170.83
166.33
160.17
152.59
144.06
135.10
125.94
116.43
106.14
94.64
81.77
67.80
53.38
39.37
26.54
15.34
5.81
-2.27
-9.28
-15.46
-20.85
-25.25
-28.40
-30.08
-30.29
-29.17
-26.89
-23.50
-18.79
-12.42
-4.14
6.04
17.63
29.76
41.41
51.63
59.79
65.62
69.20
70.79
70.79
69.62
67.65
65.18
62.42
59.55
56.67
53.83
50.95
47.85
44.26
39.99
35.06
29.79
24.76
20.64
17.87
16.51
16.27
16.61
17.00
17.12
16.89
16.45
16.02
15.82
15.99
16.61
17.65
18.94
20.18
20.95
20.81
19.41
16.62
12.66
8.17
4.01
1.01
-0.34
-0.11
1.01
1.92
1.42
-1.43
-7.04
-15.31
-25.64
-37.19
-48.98
-59.99
-69.34
-76.36
-80.88
-83.25
-84.40
-85.58
-87.98
-92.36
-98.79
-106.76
-115.49
-124.36
-133.20
-142.15
-151.49
-161.19
-170.74
-179.29
-186.00
-190.36
-192.11
-190.93
-186.01
-175.76
-158.25
-131.78
-95.61
-50.27
2.64
60.63
120.64
178.96
231.27
272.90
299.65
308.79
299.83
274.58
236.51
189.83
138.56
86.34
36.35
-8.73
-46.92
-77.37
-100.59
-118.14
-131.83
-142.96
-152.15
-159.57
-165.31
-169.43
-171.65
-170.99
-166.17
-156.36
-141.87
-124.25
-105.19
-84.90
-61.11
-29.78
12.61
66.26
126.42
184.34
230.43
258.38
267.65
263.36
253.35
244.32
239.03
235.79
230.38
219.04
200.74
177.41
152.42
128.29
105.23
81.35
54.25
23.05
-10.67
-43.24
-70.56
-90.01
-101.34
-106.51
-108.52
-110.05
-112.47
-115.89
-119.61
-122.83
-124.86
-125.10
-122.90
-117.56
-108.78
-97.01
-83.66
-70.57
-59.45
-51.04
-44.91
-39.77
-34.07
-26.70
-17.42
-6.79
4.05
13.83
21.49
26.38
28.30
27.38
24.01
18.69
12.13
5.17
-1.16
-5.89
-8.32
-8.29
-6.30
-3.37
-0.73
0.60
0.06
-2.21
-5.54
-8.89
-11.18
-11.57
-9.65
-5.58
0.11
6.59
13.04
18.76
23.25
26.23
27.62
27.46
25.97
23.58
20.75
18.03
15.89
14.54
14.04
14.27
15.04
16.13
17.30
18.36
19.11
19.46
19.39
18.92
17.93
16.13
13.12
8.59
2.43
-5.06
-13.32
-21.67
-29.56
-36.64
-42.69
-47.48
-50.66
-51.82
-50.63
-47.03
-41.36
-34.24
-26.47
-18.77
-11.72
-5.72
-0.93
2.66
5.15
6.77
7.73
8.23
8.42
8.46
8.46
8.58
8.86
9.29
9.64
9.66
9.00
7.43
4.86
1.31
-3.08
-8.00
-12.93
-17.13
-19.74
-20.05
-17.96
-14.08
-9.71
-6.43
-5.43
-7.08
-10.87
-15.56
-19.75
-22.29
-22.56
-20.49
-16.35
-10.67
-4.04
2.85
9.25
14.49
17.99
19.51
19.18
17.44
14.96
12.44
10.40
9.12
8.56
8.45
8.50
8.45
8.16
7.62
6.83
5.78
4.39
2.48
-0.13
-3.55
-7.73
-12.45
-17.35
-22.02
-26.10
-29.45
-32.13
-34.45
-36.89
-39.93
-43.88
-48.57
-53.32
-56.95
-58.15
-55.85
-49.72
-40.27
-28.75
-16.75
-5.67
3.64
11.02
16.76
21.28
24.82
27.33
28.63
28.58
27.34
25.36
23.22
21.46
20.40
20.20
20.96
22.77
25.53
28.66
30.97
30.79
26.56
17.62
4.75
-9.90
-23.55
-33.84
-39.69
-41.51
-40.66
-38.63
-36.38
-34.27
-32.32
-30.68
-29.75
-29.91
-31.07
-32.41
-32.57
-30.17
-24.50
-15.81
-5.28
5.49
15.08
22.65
28.09
31.80
34.34
36.15
37.42
38.13
38.28
38.00
37.63
37.57
38.12
39.28
40.71
41.83
42.07
41.01
38.49
34.64
29.71
24.02
17.92
11.67
5.63
0.16
-4.41
-7.91
-10.38
-12.13
-13.66
-15.51
-18.15
-21.83
-26.54
-32.01
-37.75
-43.06
-47.10
-49.05
-48.29
-44.69
-38.63
-30.99
-22.88
-15.28
-8.81
-3.59
0.60
4.07
6.93
9.02
10.05
9.86
8.64
6.99
5.75
5.60
6.81
9.13
11.98
14.67
16.68
17.65
17.37
15.74
12.82
8.98
4.90
1.38
-0.98
-2.09
-2.45
-2.88
-4.06
-6.20
-8.91
-11.55
-13.59
-14.91
-15.75
-16.45
-17.11
-17.39
-16.63
-14.16
-9.51
-2.63
6.23
16.59
27.83
39.21
49.79
58.47
64.14
66.03
63.97
58.51
50.81
42.25
34.09
27.13
21.63
17.45
14.23
11.64
9.48
7.77
6.69
6.39
6.90
7.99
9.10
9.56
8.73
6.25
2.17
-3.11
-8.99
-14.83
-20.16
-24.70
-28.40
-31.43
-34.13
-36.81
-39.64
-42.42
-44.62
-45.44
-44.19
-40.47
-34.38
-26.54
-17.78
-9.07
-1.20
5.22
9.93
13.00
14.79
15.90
16.89
18.13
19.61
21.05
21.99
22.04
21.01
18.93
16.02
12.54
8.79
4.99
1.36
-2.03
-5.14
-8.02
-10.73
-13.29
-15.62
-17.58
-19.05
-20.01
-20.65
-21.39
-22.76
-25.21
-28.90
-33.61
-38.65
-43.09
-45.93
-46.41
-44.18
-39.30
-32.27
-23.82
-14.71
-5.66
2.75
10.12
16.24
21.08
24.76
27.62
30.05
32.41
34.88
37.35
39.41
40.52
40.18
38.19
34.72
30.38
26.04
22.55
20.49
19.89
20.25
20.68
20.13
17.81
13.39
7.05
-0.62
-8.88
-17.11
-24.92
-32.17
-38.88
-45.02
-50.45
-54.74
-57.18
-56.98
-53.40
-46.12
-35.33
-21.81
-6.73
8.60
23.00
35.51
45.50
52.59
56.54
57.35
55.23
50.72
44.64
38.02
31.89
27.14
24.24
23.28
23.92
25.56
27.55
29.30
30.41
30.67
29.97
28.33
25.82
22.56
18.72
14.46
9.95
5.38
1.03
-2.76
-5.64
-7.34
-7.81
-7.21
-5.78
-3.57
-0.29
4.75
12.48
23.68
38.50
56.27
75.40
93.67
108.78
118.90
123.17
121.75
115.53
105.75
93.62
80.05
65.64
50.61
34.85
18.05
-0.08
-19.39
-38.95
-56.96
-71.09
-79.22
-80.19
-74.38
-63.69
-50.99
-39.24
-30.74
-26.68
-27.10
-31.26
-38.08
-46.66
-56.41
-67.01
-78.22
-89.52
-100.11
-108.98
-115.25
-118.43
-118.60
-116.22
-111.93
-106.29
-99.53
-91.64
-82.43
-71.81
-59.86
-46.96
-33.55
-20.06
-6.83
5.94
17.97
28.86
38.00
44.77
48.81
50.22
49.67
48.24
47.09
47.06
48.41
50.69
52.93
53.88
52.37
47.65
39.53
28.56
15.85
2.87
-8.96
-18.74
-26.40
-32.63
-38.52
-44.89
-51.72
-58.03
-62.33
-63.27
-60.48
-54.80
-48.21
-43.25
-42.21
-46.57
-56.49
-70.79
-87.11
-102.50
-114.03
-119.59
-118.23
-110.23
-96.73
-79.31
-59.67
-39.43
-20.26
-3.69
9.09
17.64
22.49
24.91
26.49
28.45
31.21
34.26
36.55
37.08
35.31
31.45
26.19
20.44
14.84
9.59
4.46
-1.10
-7.60
-15.28
-23.89
-32.58
-39.99
-44.52
-44.79
-40.02
-30.40
-16.96
-1.35
14.69
29.72
42.83
53.54
61.67
67.15
69.98
70.31
68.50
65.23
61.33
57.66
54.94
53.48
53.24
53.69
54.05
53.35
50.70
45.50
37.60
27.32
15.51
3.36
-7.79
-16.76
-22.78
-25.82
-26.55
-26.34
-26.78
-29.25
-34.35
-41.60
-49.48
-55.83
-58.51
-56.05
-48.14
-35.64
-20.32
-4.28
10.63
23.12
32.67
39.40
43.77
46.34
47.56
47.62
46.48
44.04
40.29
35.50
30.21
25.23
21.34
19.07
18.53
19.38
20.94
22.40
23.08
22.50
20.52
17.18
12.65
7.21
1.13
-5.29
-11.83
-18.36
-24.95
-31.66
-38.43
-44.88
-50.15
-53.19
-52.97
-48.99
-41.49
-31.39
-20.04
-8.71
1.60
10.41
17.55
23.06
27.04
29.69
31.32
32.44
33.64
35.27
37.44
39.68
41.20
41.19
39.04
34.75
28.76
21.91
15.08
9.05
4.32
1.14
-0.39
-0.35
1.04
3.25
5.43
6.53
5.46
1.45
-5.73
-15.64
-27.27
-39.14
-49.64
-57.22
-60.71
-59.49
-53.65
-43.98
-31.76
-18.48
-5.40
6.61
17.04
25.53
31.57
34.38
33.12
27.32
17.22
4.02
-10.35
-23.67
-33.95
-39.93
-41.16
-37.90
-30.92
-21.26
-10.12
1.25
11.61
19.88
25.24
27.26
25.90
21.57
14.97
7.08
-0.97
-8.05
-13.04
-15.21
-14.22
-10.37
-4.55
1.94
7.80
12.05
14.29
14.73
13.91
12.50
11.04
9.74
8.84
8.36
8.35
8.64
8.75
7.79
4.75
-1.06
-9.69
-20.42
-32.12
-43.75
-54.79
-65.32
-75.74
-86.40
-97.30
-108.17
-118.57
-128.22
-136.96
-144.50
-150.17
-152.93
-151.63
-145.59
-135.13
-121.57
-106.92
-93.09
-81.13
-70.88
-60.95
-49.56
-35.28
-17.75
2.17
22.73
41.98
58.58
72.06
82.86
91.79
99.52
106.23
111.55
114.98
116.35
116.21
115.70
116.10
118.15
121.59
125.30
127.84
128.26
126.56
123.66
120.78
118.73
117.51
116.36
114.25
110.53
105.32
99.36
93.57
88.49
84.06
79.68
74.70
68.92
62.89
57.80
54.97
55.25
58.63
64.25
70.81
77.12
82.51
86.77
89.96
91.95
92.40
90.95
87.52
82.56
76.95
71.66
67.22
63.63
60.39
56.84
52.55
47.38
41.47
35.03
28.26
21.36
14.61
8.39
3.04
-1.31
-4.95
-8.49
-12.66
-17.92
-24.29
-31.20
-37.70
-42.78
-45.66
-46.12
-44.46
-41.48
-38.13
-35.30
-33.51
-32.95
-33.53
-35.05
-37.37
-40.37
-43.85
-47.46
-50.63
-52.80
-53.59
-53.08
-51.70
-50.21
-49.21
-49.01
-49.45
-50.12
-50.59
-50.67
-50.46
-50.25
-50.39
-51.12
-52.55
-54.64
-57.29
-60.26
-63.22
-65.68
-66.95
-66.37
-63.46
-57.96
-49.80
-38.90
-25.10
-8.19
11.76
34.04
57.15
78.95
97.24
110.50
118.44
122.06
123.05
122.90
122.10
119.89
114.73
105.28
91.27
73.91
55.61
39.18
27.00
20.38
19.38
22.87
28.73
34.13
36.05
32.17
21.67
5.76
-12.77
-30.72
-46.03
-58.86
-71.33
-86.36
-105.86
-129.55
-154.72
-177.17
-192.70
-198.50
-193.89
-180.51
-161.80
-142.08
-125.51
-114.94
-111.29
-113.43
-118.71
-124.04
-126.80
-125.47
-119.71
-110.13
-97.81
-84.18
-70.80
-59.15
-50.48
-45.43
-43.99
-45.50
-49.07
-53.87
-59.39
-65.41
-71.69
-77.77
-82.79
-85.67
-85.33
-81.07
-72.79
-60.98
-46.66
-30.98
-15.08
0.16
14.16
26.66
37.58
47.01
55.06
61.96
68.05
73.67
79.18
84.71
90.10
94.96
98.72
100.96
101.49
100.43
98.00
94.32
89.36
82.92
74.90
65.35
54.64
43.22
31.47
19.55
7.44
-4.85
-17.02
-28.30
-37.62
-43.82
-46.20
-44.71
-40.04
-33.46
-26.36
-20.02
-15.34
-12.84
-12.64
-14.51
-17.98
-22.24
-26.39
-29.51
-31.05
-30.87
-29.38
-27.40
-25.77
-25.20
-25.91
-27.76
-30.34
-33.28
-36.39
-39.73
-43.54
-48.04
-53.29
-59.14
-65.33
-71.72
-78.32
-85.28
-92.64
-100.07
-106.62
-110.87
-111.26
-106.63
-96.70
-82.24
-64.93
-47.25
-32.16
-22.68
-21.10
-28.06
-41.79
-58.15
-71.75
-77.87
-74.25
-62.18
-45.79
-30.38
-20.23
-17.17
-20.40
-27.40
-35.38
-42.35
-47.41
-50.40
-51.26
-49.56
-44.48
-35.44
-22.47
-6.41
11.48
29.74
46.84
60.96
70.11
72.41
66.75
53.61
35.35
15.78
-0.89
-11.31
-13.75
-8.20
4.13
21.60
42.79
66.86
93.50
122.40
152.59
181.71
206.06
221.43
224.89
216.46
199.54
179.99
164.09
156.31
157.89
166.81
179.03
190.13
196.65
196.72
189.97
177.02
159.07
137.55
114.16
90.83
69.71
52.79
41.41
35.85
35.14
37.35
40.24
41.99
41.65
39.24
35.47
31.14
26.84
22.77
18.78
14.71
10.50
6.32
2.56
-0.32
-1.96
-2.19
-1.15
0.73
2.81
4.43
5.08
4.53
2.91
0.59
-1.94
-4.26
-6.11
-7.47
-8.44
-9.28
-10.22
-11.40
-12.81
-14.28
-15.50
-16.15
-16.06
-15.25
-13.96
-12.52
-11.20
-10.14
-9.30
-8.59
-7.96
-7.48
-7.27
-7.41
-7.85
-8.38
-8.73
-8.70
-8.26
-7.47
-6.50
-5.46
-4.43
-3.45
-2.63
-2.11
-2.06
-2.54
-3.49
-4.72
-5.99
-7.09
-7.94
-8.64
-9.36
-10.28
-11.49
-12.93
-14.34
-15.34
-15.49
-14.47
-12.21
-8.90
-5.06
-1.29
1.84
4.01
5.19
5.61
5.60
5.42
5.22
4.97
4.66
4.32
4.08
4.14
4.59
5.35
6.14
6.56
6.25
5.04
2.97
0.40
-2.19
-4.25
-5.35
-5.37
-4.63
-3.80
-3.71
-5.03
-7.86
-11.57
-14.95
-16.54
-15.36
-11.25
-5.12
1.46
6.89
10.29
11.88
12.86
14.81
18.72
24.47
30.66
35.21
36.13
32.26
23.64
11.55
-1.47
-11.66
-14.57
-6.31
14.58
45.49
79.37
106.49
117.72
108.11
78.79
36.34
-9.96
-51.67
-83.53
-103.90
-113.51
-113.80
-105.87
-90.72
-69.94
-46.39
-23.89
-6.20
4.30
7.48
5.43
1.46
-1.40
-1.56
0.67
3.56
5.06
3.85
-0.05
-5.52
-10.94
-15.09
-17.58
-18.86
-19.86
-21.45
-23.98
-27.26
-30.68
-33.53
-35.41
-36.28
-36.47
-36.48
-36.77
-37.59
-38.97
-40.81
-43.02
-45.61
-48.59
-51.86
-55.05
-57.49
-58.41
-57.14
-53.38
-47.33
-39.68
-31.39
-23.47
-16.74
-11.76
-8.70
-7.45
-7.61
-8.62
-9.89
-10.90
-11.32
-11.01
-10.00
-8.45
-6.60
-4.70
-3.03
-1.90
-1.57
-2.24
-3.92
-6.43
-9.44
-12.57
-15.55
-18.27
-20.88
-23.68
-27.03
-31.16
-36.08
-41.39
-46.33
-49.81
-50.69
-48.12
-41.85
-32.34
-20.75
-8.59
2.71
12.08
18.97
23.26
25.14
24.98
23.33
20.91
18.58
17.15
17.16
18.65
21.19
23.99
26.30
27.60
27.73
26.87
25.27
23.17
20.66
17.75
14.53
11.17
7.92
5.03
2.56
0.41
-1.81
-4.55
-8.21
-12.97
-18.60
-24.47
-29.54
-32.62
-32.65
-29.04
-21.84
-11.86
-0.49
10.71
20.34
27.47
31.75
33.31
32.64
30.40
27.35
24.22
21.70
20.21
19.90
20.55
21.66
22.72
23.33
23.32
22.73
21.65
20.15
18.19
15.72
12.78
9.54
6.30
3.32
0.72
-1.58
-3.80
-6.21
-9.00
-12.27
-15.97
-19.88
-23.63
-26.66
-28.29
-27.90
-25.12
-19.98
-13.00
-5.00
3.05
10.33
16.27
20.57
23.12
23.99
23.39
21.71
19.45
17.18
15.34
14.18
13.67
13.60
13.68
13.70
13.58
13.31
12.90
12.29
11.35
9.96
8.06
5.75
3.24
0.75
-1.51
-3.46
-5.14
-6.73
-8.51
-10.81
-13.89
-17.86
-22.42
-26.93
-30.38
-31.77
-30.35
-25.96
-19.11
-10.80
-2.16
5.86
12.67
18.12
22.17
24.88
26.18
26.10
24.86
22.93
20.96
19.54
18.98
19.22
19.84
20.35
20.36
19.72
18.52
16.94
15.14
13.17
10.96
8.45
5.57
2.40
-0.92
-4.16
-7.07
-9.50
-11.42
-12.99
-14.60
-16.71
-19.73
-23.77
-28.52
-33.20
-36.71
-37.97
-36.26
-31.46
-24.12
-15.26
-6.12
2.25
9.10
14.12
17.28
18.69
18.48
16.78
13.83
10.03
6.03
2.66
0.62
0.24
1.28
2.87
3.79
2.83
-0.77
-7.09
-15.50
-24.81
-33.62
-40.58
-44.55
-44.86
-41.42
-34.83
-26.32
-17.44
-9.65
-3.89
-0.43
1.04
0.97
-0.33
-2.76
-6.17
-10.02
-13.20
-14.32
-12.16
-6.25
2.88
13.92
25.33
35.90
45.01
52.58
58.75
63.44
66.15
66.08
62.46
54.93
43.93
30.65
16.81
4.11
-6.20
-13.65
-18.50
-21.45
-23.26
-24.48
-25.27
-25.61
-25.44
-24.86
-24.22
-24.06
-24.86
-26.96
-30.36
-34.72
-39.38
-43.49
-46.18
-46.72
-44.76
-40.34
-34.00
-26.59
-19.11
-12.43
-7.14
-3.36
-0.84
0.98
2.78
5.20
8.73
13.69
20.21
28.18
37.26
46.89
56.39
64.98
72.03
77.18
80.37
81.86
82.03
81.24
79.75
77.66
75.04
71.95
68.54
65.02
61.59
58.32
55.07
51.56
47.44
42.47
36.65
30.19
23.51
17.00
10.96
5.45
0.37
-4.47
-9.19
-13.80
-18.20
-22.19
-25.59
-28.25
-30.05
-30.91
-30.80
-29.73
-27.82
-25.29
-22.46
-19.70
-17.32
-15.51
-14.24
-13.32
-12.48
-11.50
-10.31
-8.95
-7.55
-6.19
-4.87
-3.52
-2.09
-0.59
0.87
2.12
3.03
3.52
3.61
3.41
3.04
2.62
2.22
1.87
1.53
1.07
0.34
-0.83
-2.57
-4.91
-7.82
-11.17
-14.75
-18.25
-21.27
-23.38
-24.16
-23.35
-20.95
-17.27
-12.85
-8.37
-4.46
-1.51
0.37
1.32
1.61
1.53
1.22
0.80
0.33
-0.09
-0.37
-0.54
-0.77
-1.33
-2.42
-4.07
-5.98
-7.61
-8.44
-8.16
-6.87
-4.96
-3.03
-1.56
-0.80
-0.70
-1.03
-1.42
-1.62
-1.49
-1.07
-0.48
0.21
0.97
1.83
2.82
3.89
4.92
5.75
6.20
6.20
5.80
5.11
4.26
3.34
2.35
1.26
0.02
-1.39
-3.04
-4.97
-7.31
-10.13
-13.47
-17.20
-21.07
-24.67
-27.62
-29.57
-30.37
-29.98
-28.51
-26.15
-23.14
-19.81
-16.42
-13.21
-10.28
-7.57
-4.91
-2.03
1.27
5.10
9.42
14.01
18.60
22.85
26.46
29.24
31.12
32.17
32.58
32.66
32.82
33.49
34.95
37.27
40.22
43.20
45.43
46.14
44.74
41.05
35.31
28.12
20.32
12.79
6.25
1.20
-2.23
-4.27
-5.44
-6.44
-7.98
-10.54
-14.19
-18.51
-22.69
-25.83
-27.28
-26.78
-24.58
-21.24
-17.36
-13.37
-9.59
-6.28
-3.81
-2.69
-3.41
-6.17
-10.68
-16.21
-21.70
-26.16
-28.91
-29.81
-29.12
-27.32
-24.91
-22.20
-19.39
-16.67
-14.32
-12.68
-12.03
-12.42
-13.54
-14.87
-15.85
-16.21
-16.01
-15.60
-15.35
-15.31
-15.13
-14.11
-11.56
-7.12
-0.98
6.14
13.22
19.27
23.59
25.79
25.81
23.73
19.73
14.03
7.03
-0.72
-8.56
-15.79
-21.83
-26.30
-29.03
-30.08
-29.78
-28.79
-28.08
-28.89
-32.41
-39.43
-49.97
-63.00
-76.60
-88.43
-96.32
-98.96
-96.27
-89.34
-80.11
-70.67
-62.68
-56.95
-53.42
-51.59
-51.02
-51.98
-55.39
-62.83
-75.61
-93.69
-114.93
-134.68
-146.45
-143.23
-119.75
-74.80
-12.78
56.34
119.12
162.27
176.64
159.82
116.86
58.44
-2.11
-52.13
-82.20
-87.73
-69.41
-32.72
13.40
58.67
93.89
113.15
115.07
102.58
81.55
58.69
39.94
29.13
27.54
34.09
45.89
59.14
70.16
76.30
76.41
70.85
61.03
48.81
36.03
24.17
14.23
6.67
1.51
-1.56
-2.95
-2.99
-1.77
0.79
4.74
9.90
15.72
21.34
25.85
28.54
29.14
27.81
25.06
21.51
17.75
14.14
10.75
7.41
3.88
-0.01
-4.16
-8.10
-11.11
-12.50
-11.84
-9.23
-5.20
-0.57
3.91
7.74
10.80
13.13
14.85
15.90
16.15
15.36
13.37
10.03
5.18
-1.41
-9.95
-20.36
-31.88
-42.79
-50.60
-52.62
-47.06
-33.82
-14.83
6.48
26.20
41.10
49.32
50.39
44.90
34.03
19.34
2.80
-13.44
-27.31
-37.57
-44.22
-48.52
-52.19
-56.35
-60.66
-63.26
-61.52
-53.28
-37.98
-17.06
6.52
29.22
48.00
61.02
67.82
69.05
65.97
60.08
52.85
45.60
39.38
34.85
32.12
30.76
29.84
28.30
25.29
20.49
14.23
7.40
1.12
-3.64
-6.21
-6.42
-4.46
-0.81
3.95
9.21
14.35
18.81
22.13
23.92
23.94
22.12
18.64
13.93
8.63
3.52
-0.80
-4.06
-6.47
-8.54
-10.88
-13.94
-17.79
-22.14
-26.49
-30.26
-32.91
-33.99
-33.19
-30.33
-25.42
-18.76
-10.86
-2.39
5.89
13.24
18.97
22.52
23.45
21.65
17.34
11.12
3.85
-3.54
-10.31
-16.05
-20.76
-24.72
-28.30
-31.73
-34.98
-37.79
-39.74
-40.48
-39.81
-37.61
-33.76
-28.06
-20.28
-10.41
1.17
13.56
25.46
35.55
42.77
46.60
47.08
44.61
39.91
33.87
27.48
21.80
17.73
15.84
16.13
17.96
20.27
21.92
22.11
20.62
17.87
14.65
11.81
9.99
9.47
10.18
11.81
13.97
16.28
18.40
20.06
21.03
21.17
20.43
18.83
16.49
13.50
9.99
6.09
2.01
-1.97
-5.46
-8.05
-9.37
-9.22
-7.67
-5.00
-1.73
1.55
4.28
6.03
6.58
5.96
4.39
2.23
-0.19
-2.60
-4.88
-7.02
-9.04
-11.00
-12.87
-14.59
-16.05
-17.02
-17.23
-16.42
-14.45
-11.37
-7.47
-3.25
0.73
3.99
6.23
7.33
7.41
6.66
5.38
3.83
2.27
0.85
-0.32
-1.21
-1.86
-2.37
-2.90
-3.58
-4.53
-5.74
-7.04
-8.16
-8.86
-9.04
-8.83
-8.54
-8.54
-9.10
-10.30
-12.00
-13.86
-15.48
-16.47
-16.58
-15.67
-13.81
-11.24
-8.31
-5.36
-2.70
-0.50
1.18
2.34
2.98
3.10
2.76
2.11
1.38
0.85
0.69
0.90
1.35
1.75
1.89
1.64
1.03
0.21
-0.67
-1.49
-2.22
-2.91
-3.66
-4.60
-5.85
-7.52
-9.63
-11.99
-14.28
-16.02
-16.74
-16.17
-14.32
-11.54
-8.34
-5.19
-2.43
-0.17
1.63
3.04
4.09
4.77
5.06
5.03
4.82
4.62
4.61
4.89
5.47
6.24
7.01
7.55
7.72
7.43
6.78
5.97
5.25
4.80
4.67
4.75
4.81
4.55
3.73
2.27
0.24
-2.10
-4.40
-6.24
-7.28
-7.29
-6.20
-4.14
-1.42
1.49
4.07
5.85
6.54
6.08
4.71
2.79
0.67
-1.40
-3.33
-5.11
-6.72
-8.08
-9.08
-9.63
-9.75
-9.50
-8.84
-7.59
-5.40
-1.97
2.68
8.03
13.16
17.01
18.79
18.24
15.60
11.42
6.30
0.78
-4.60
-9.13
-12.13
-13.11
-12.15
-10.09
-8.33
-8.24
-10.64
-15.40
-21.58
-27.79
-32.78
-35.76
-36.55
-35.39
-32.76
-29.19
-25.15
-20.99
-16.98
-13.22
-9.76
-6.65
-3.92
-1.62
0.21
1.65
2.78
3.67
4.25
4.34
3.74
2.33
0.17
-2.47
-5.23
-7.77
-9.87
-11.41
-12.33
-12.57
-12.05
-10.67
-8.43
-5.46
-1.97
1.71
5.25
8.35
10.80
12.49
13.46
13.86
13.94
14.00
14.28
14.88
15.77
16.76
17.63
18.28
18.68
18.91
19.11
19.41
19.84
20.41
21.01
21.55
21.93
22.13
22.18
22.14
22.00
21.68
21.02
19.90
18.37
16.66
15.08
13.93
13.22
12.77
12.25
11.47
10.51
9.61
9.05
8.82
8.59
7.78
5.89
2.72
-1.54
-6.46
-11.55
-16.54
-21.45
-26.48
-31.83
-37.58
-43.62
-49.66
-55.34
-60.30
-64.34
-67.46
-69.95
-72.38
-75.41
-79.68
-85.50
-92.82
-101.16
-109.86
-118.11
-125.13
-130.11
-132.09
-130.02
-122.88
-109.99
-91.31
-67.59
-40.46
-12.32
13.79
34.61
47.20
49.82
42.71
28.41
11.22
-4.15
-14.15
-17.57
-15.61
-10.86
-5.73
-1.22
3.40
9.84
19.63
32.97
48.48
63.40
74.27
77.64
70.92
53.42
27.30
-2.18
-27.68
-42.12
-41.44
-26.39
-2.24
23.54
44.53
57.78
64.10
66.57
68.16
70.31
72.92
75.41
77.85
80.94
85.15
89.54
91.63
88.53
78.75
63.61
47.24
35.00
31.30
37.76
52.69
72.10
91.23
106.24
114.96
116.93
112.94
104.39
92.88
79.90
66.62
53.69
41.26
29.16
17.13
5.07
-6.88
-18.31
-28.66
-37.28
-43.65
-47.47
-48.82
-48.17
-46.27
-43.85
-41.40
-39.06
-36.67
-33.98
-30.88
-27.49
-24.14
-21.20
-19.01
-17.73
-17.45
-18.13
-19.66
-21.87
-24.55
-27.43
-30.29
-32.88
-35.00
-36.46
-37.17
-37.11
-36.33
-34.91
-32.85
-30.04
-26.34
-21.64
-16.02
-9.72
-3.13
3.44
9.70
15.44
20.32
23.90
25.72
25.50
23.35
19.79
15.56
11.31
7.40
3.96
0.96
-1.52
-3.31
-4.20
-4.06
-2.85
-0.62
2.57
6.57
10.93
14.77
16.89
16.19
12.20
5.45
-2.69
-10.57
-16.99
-21.63
-24.97
-27.77
-30.39
-32.60
-33.75
-33.41
-31.66
-29.25
-27.09
-25.73
-25.06
-24.35
-22.68
-19.40
-14.46
-8.35
-1.84
4.31
9.62
13.93
17.24
19.73
21.46
22.44
22.59
21.91
20.55
18.94
17.66
17.29
18.15
20.12
22.59
24.78
25.91
25.54
23.66
20.69
17.21
13.88
11.22
9.59
9.19
10.10
12.27
15.50
19.42
23.56
27.41
30.49
32.44
33.09
32.50
30.92
28.72
26.28
23.87
21.60
19.40
17.07
14.46
11.48
8.28
5.22
2.82
1.69
2.26
4.66
8.57
13.20
17.50
20.41
21.17
19.41
15.13
8.60
0.21
-9.65
-20.54
-31.89
-42.97
-52.87
-60.66
-65.58
-67.26
-65.83
-62.02
-56.95
-51.87
-47.77
-45.08
-43.64
-42.82
-41.94
-40.61
-38.96
-37.61
-37.33
-38.68
-41.63
-45.50
-49.07
-50.83
-49.46
-44.06
-34.51
-21.55
-6.73
7.88
20.22
28.88
33.68
35.83
37.55
41.11
47.66
56.57
65.45
71.05
70.71
63.43
50.35
34.24
18.34
5.27
-3.64
-8.30
-9.35
-7.61
-3.80
1.40
7.30
13.05
17.91
21.48
23.87
25.60
27.33
29.40
31.78
33.93
35.21
35.09
33.34
30.06
25.56
20.32
14.81
9.54
4.88
1.17
-1.47
-3.03
-3.63
-3.45
-2.69
-1.65
-0.71
-0.33
-0.92
-2.63
-5.12
-7.54
-8.68
-7.45
-3.43
2.76
9.35
13.93
14.24
9.17
-0.68
-13.05
-24.73
-32.84
-35.80
-33.86
-28.79
-22.87
-17.89
-14.51
-12.36
-10.65
-9.14
-8.50
-10.20
-15.81
-26.29
-41.44
-59.84
-78.81
-94.48
-102.09
-96.75
-75.14
-37.28
12.24
64.75
109.76
138.25
145.39
131.69
101.92
62.93
21.31
-17.66
-50.14
-73.29
-85.22
-85.55
-76.01
-60.52
-44.20
-31.73
-25.78
-26.20
-30.41
-34.67
-35.71
-31.97
-24.02
-14.14
-5.24
0.28
1.38
-1.39
-6.25
-11.08
-14.11
-14.64
-12.97
-10.03
-6.81
-3.94
-1.56
0.48
2.24
3.56
4.05
3.36
1.51
-1.02
-3.40
-4.77
-4.65
-3.12
-0.78
1.53
3.11
3.63
3.25
2.34
1.33
0.37
-0.61
-1.81
-3.30
-4.89
-6.15
-6.55
-5.78
-3.83
-1.02
2.18
5.36
8.29
10.88
13.12
14.97
16.33
17.14
17.45
17.45
17.49
17.92
19.00
20.75
22.99
25.36
27.45
28.89
29.42
28.98
27.59
25.42
22.65
19.53
16.22
12.94
9.81
6.88
4.15
1.56
-0.96
-3.41
-5.77
-8.03
-10.23
-12.49
-14.98
-17.82
-20.96
-24.20
-27.13
-29.31
-30.36
-30.08
-28.48
-25.74
-22.16
-18.03
-13.68
-9.39
-5.45
-2.14
0.29
1.69
2.07
1.66
0.77
-0.19
-0.92
-1.23
-1.08
-0.56
0.19
0.97
1.59
1.90
1.81
1.40
0.88
0.55
0.61
1.11
1.95
2.92
3.91
4.87
5.93
7.14
8.44
9.54
10.00
9.40
7.51
4.47
0.80
-2.81
-5.62
-7.12
-7.10
-5.70
-3.29
-0.31
2.83
5.85
8.56
10.87
12.71
14.06
14.94
15.41
15.57
15.51
15.32
15.07
14.83
14.66
14.58
14.58
14.60
14.56
14.42
14.18
13.92
13.76
13.81
14.13
14.68
15.32
15.90
16.28
16.39
16.24
15.84
15.24
14.40
13.29
11.77
9.76
7.29
4.53
1.83
-0.40
-1.75
-1.99
-1.04
1.04
4.01
7.62
11.53
15.33
18.62
21.02
22.32
22.54
21.86
20.60
19.01
17.25
15.40
13.48
11.53
9.57
7.63
5.66
3.60
1.38
-1.01
-3.43
-5.67
-7.44
-8.48
-8.67
-8.02
-6.69
-4.86
-2.71
-0.33
2.31
5.25
8.53
12.05
15.66
19.21
22.56
25.69
28.66
31.60
34.79
38.75
44.20
51.94
62.59
76.26
92.22
108.97
124.46
136.65
144.04
146.15
143.75
138.60
132.91
128.49
126.04
124.91
123.32
119.15
110.68
97.26
79.31
58.05
35.09
12.02
-9.78
-29.31
-46.05
-60.10
-72.13
-83.13
-93.89
-104.66
-114.87
-123.33
-128.58
-129.40
-125.13
-115.84
-102.38
-86.21
-69.22
-53.37
-40.36
-31.30
-26.50
-25.56
-27.46
-30.88
-34.48
-37.14
-38.09
-37.06
-34.20
-30.03
-25.33
-20.92
-17.55
-15.72
-15.58
-17.01
-19.59
-22.80
-26.11
-29.12
-31.55
-33.28
-34.27
-34.60
-34.54
-34.52
-35.07
-36.73
-39.70
-43.66
-47.71
-50.54
-50.88
-47.97
-41.90
-33.68
-24.95
-17.46
-12.64
-11.32
-13.71
-19.55
-28.27
-39.12
-51.16
-63.27
-74.26
-83.02
-88.81
-91.35
-90.95
-88.30
-84.36
-80.11
-76.40
-73.71
-72.18
-71.53
-71.28
-70.91
-70.10
-68.83
-67.41
-66.35
-66.17
-67.19
-69.38
-72.24
-74.75
-75.62
-73.55
-67.65
-57.80
-44.76
-30.08
-15.63
-3.17
6.20
12.09
14.88
15.30
14.24
12.49
10.62
9.14
8.33
8.26
8.59
8.66
7.69
5.12
0.99
-4.00
-8.74
-12.29
-14.29
-15.20
-16.07
-18.00
-21.67
-27.13
-33.97
-41.67
-50.00
-58.98
-68.72
-78.91
-88.62
-96.37
-100.55
-100.13
-95.09
-86.62
-76.72
-67.65
-61.28
-58.59
-59.54
-63.16
-67.84
-71.71
-73.16
-71.20
-65.79
-57.99
-49.73
-43.59
-42.28
-48.11
-62.29
-84.28
-111.40
-139.04
-161.71
-174.47
-174.42
-161.51
-138.25
-108.52
-76.09
-43.45
-11.48
20.06
51.49
82.31
111.09
135.83
154.89
167.64
174.61
177.03
176.22
173.20
168.90
164.77
163.28
167.57
180.39
202.38
230.88
259.98
281.98
289.83
279.48
251.20
209.39
161.25
114.71
76.58
51.24
40.17
42.03
53.35
69.38
85.22
96.72
101.29
98.20
88.44
74.20
58.11
42.64
29.56
19.70
12.95
8.50
5.23
2.19
-1.06
-4.25
-6.61
-7.16
-5.23
-0.71
5.89
13.52
20.93
26.99
30.90
32.41
31.77
29.67
26.98
24.56
22.97
22.38
22.62
23.25
23.78
23.83
23.21
21.91
20.04
17.70
15.00
12.04
8.96
5.97
3.27
0.98
-0.90
-2.54
-4.18
-6.10
-8.45
-11.21
-14.24
-17.23
-19.74
-21.33
-21.62
-20.44
-17.91
-14.41
-10.44
-6.47
-2.79
0.48
3.27
5.52
7.05
7.73
7.59
6.88
6.00
5.44
5.51
6.28
7.55
8.96
10.13
10.77
10.69
9.86
8.37
6.37
4.09
1.77
-0.41
-2.42
-4.38
-6.49
-9.01
-12.06
-15.59
-19.32
-22.76
-25.37
-26.65
-26.28
-24.19
-20.56
-15.81
-10.47
-5.12
-0.24
3.82
6.85
8.84
9.90
10.21
10.03
9.61
9.15
8.79
8.59
8.58
8.71
8.88
8.95
8.81
8.38
7.66
6.74
5.69
4.54
3.25
1.76
0.06
-1.81
-3.78
-5.88
-8.28
-11.23
-14.89
-19.09
-23.24
-26.40
-27.62
-26.30
-22.38
-16.42
-9.33
-2.06
4.67
10.47
15.22
18.92
21.60
23.36
24.37
24.84
25.03
25.10
25.02
24.66
23.89
22.80
21.70
20.97
20.91
21.41
22.00
21.91
20.45
17.22
12.38
6.53
0.51
-4.81
-8.87
-11.49
-12.94
-13.80
-14.73
-16.34
-18.91
-22.35
-26.19
-29.69
-32.07
-32.75
-31.54
-28.67
-24.73
-20.43
-16.41
-13.06
-10.49
-8.64
-7.37
-6.67
-6.62
-7.37
-9.01
-11.45
-14.34
-17.22
-19.67
-21.48
-22.82
-24.15
-26.10
-29.19
-33.60
-39.07
-44.93
-50.31
-54.34
-56.46
-56.53
-54.85
-52.02
-48.65
-45.02
-40.89
-35.32
-26.79
-13.55
5.87
31.96
63.66
98.19
131.45
159.03
177.37
184.66
181.11
168.52
149.40
126.08
100.34
73.36
46.05
19.40
-5.43
-27.27
-45.23
-59.02
-68.94
-75.77
-80.45
-83.77
-86.22
-87.99
-89.31
-90.58
-92.35
-95.17
-99.13
-103.70
-107.82
-110.31
-110.29
-107.62
-102.86
-97.09
-91.47
-86.92
-83.82
-81.97
-80.58
-78.45
-74.25
-66.88
-55.81
-41.27
-24.23
-6.11
11.57
27.50
40.71
50.63
57.05
60.07
60.12
57.91
54.41
50.77
48.10
47.28
48.73
52.29
57.22
62.33
66.31
68.15
67.38
64.15
59.10
53.00
46.51
40.03
33.71
27.58
21.58
15.62
9.47
2.77
-4.85
-13.50
-22.81
-31.77
-38.78
-42.14
-40.54
-33.58
-22.04
-7.68
7.27
20.73
31.25
38.16
41.42
41.39
38.65
33.90
28.08
22.23
17.43
14.47
13.70
14.88
17.30
19.97
21.94
22.49
21.27
18.30
13.92
8.64
2.96
-2.81
-8.60
-14.49
-20.65
-27.21
-34.23
-41.74
-49.68
-57.80
-65.55
-71.93
-75.73
-75.76
-71.42
-62.90
-51.28
-38.18
-25.21
-13.69
-4.39
2.31
6.31
7.74
6.91
4.41
1.10
-2.05
-4.19
-4.78
-3.75
-1.51
1.24
3.67
5.08
5.02
3.37
0.35
-3.67
-8.24
-12.99
-17.62
-21.99
-26.08
-30.03
-34.01
-38.07
-41.92
-44.82
-45.65
-43.21
-36.79
-26.47
-13.30
0.99
14.41
25.31
32.65
36.07
35.71
32.07
25.83
17.87
9.22
0.98
-5.84
-10.55
-12.87
-13.01
-11.55
-9.34
-7.23
-5.95
-5.94
-7.38
-10.15
-14.06
-19.00
-24.91
-31.85
-39.77
-48.44
-57.35
-65.72
-72.45
-76.19
-75.37
-68.45
-54.24
-32.32
-3.34
30.91
67.79
104.45
138.41
167.96
192.29
211.31
225.21
234.38
239.41
241.17
240.79
239.28
236.83
232.28
223.51
208.99
189.62
169.49
154.57
149.84
156.14
168.91
179.66
179.37
161.96
125.91
73.76
10.51
-57.62
-123.46
-178.61
-214.22
-223.27
-203.58
-159.73
-102.36
-44.83
1.47
30.36
41.98
41.30
35.23
29.94
29.28
34.48
44.80
58.26
72.56
85.71
96.55
104.87
111.55
118.10
126.03
135.94
146.84
155.89
159.01
152.02
132.35
100.36
59.78
16.62
-22.89
-54.73
-78.53
-97.39
-116.04
-138.35
-165.24
-194.23
-220.50
-238.92
-246.10
-241.52
-227.57
-208.79
-190.77
-178.67
-175.64
-181.51
-192.07
-199.81
-196.04
-173.95
-131.57
-73.15
-8.34
50.85
93.90
114.96
114.19
96.68
70.01
41.43
16.12
-3.26
-15.89
-21.67
-20.69
-13.26
-0.38
15.80
32.33
46.26
55.68
60.23
61.00
59.74
57.93
56.20
54.37
52.01
49.05
46.13
44.41
45.05
48.63
54.83
62.56
70.34
76.78
80.93
82.43
81.54
78.86
75.22
71.45
68.14
65.55
63.63
62.03
60.21
57.60
53.69
48.18
41.01
32.45
23.00
13.34
4.10
-4.26
-11.58
-18.18
-24.82
-32.66
-42.84
-55.99
-71.56
-87.62
-101.07
-108.66
-108.16
-99.24
-83.73
-64.89
-46.24
-30.44
-18.77
-11.30
-7.49
-6.76
-8.74
-13.00
-18.79
-24.79
-29.34
-30.97
-28.92
-23.48
-15.91
-7.97
-1.32
2.90
4.37
3.42
0.76
-2.85
-6.90
-11.21
-15.80
-20.82
-26.32
-32.28
-38.67
-45.46
-52.62
-60.00
-67.10
-73.09
-76.86
-77.36
-74.00
-66.85
-56.76
-45.07
-33.29
-22.70
-14.11
-7.82
-3.62
-1.07
0.36
1.11
1.48
1.66
1.80
2.08
2.62
3.46
4.51
5.46
5.91
5.44
3.79
0.92
-2.92
-7.31
-11.76
-15.85
-19.37
-22.35
-25.04
-27.84
-31.18
-35.42
-40.72
-46.87
-53.22
-58.63
-61.72
-61.18
-56.20
-46.81
-33.95
-19.17
-4.28
9.17
20.15
28.20
33.30
35.74
35.90
34.30
31.56
28.34
25.28
22.77
20.91
19.42
17.85
15.82
13.14
9.96
6.59
3.40
0.51
-2.21
-5.12
-8.57
-12.71
-17.39
-22.20
-26.63
-30.31
-33.09
-35.15
-36.84
-38.67
-41.15
-44.63
-49.14
-54.25
-58.93
-61.81
-61.49
-57.04
-48.43
-36.55
-23.02
-9.56
2.41
12.15
19.46
24.51
27.54
28.72
28.23
26.41
23.86
21.34
19.57
18.90
19.27
20.13
20.72
20.39
18.88
16.31
13.12
9.82
6.72
3.86
1.11
-1.75
-4.84
-8.15
-11.49
-14.67
-17.46
-19.75
-21.53
-22.93
-24.20
-25.73
-27.95
-31.27
-35.86
-41.41
-47.12
-51.64
-53.39
-51.02
-43.83
-32.12
-17.18
-0.96
14.46
27.45
37.09
43.20
46.13
46.49
44.89
41.93
38.25
34.53
31.38
29.33
28.53
28.72
29.31
29.55
28.81
26.79
23.61
19.73
15.72
12.02
8.81
5.96
3.15
0.04
-3.52
-7.45
-11.52
-15.38
-18.74
-21.49
-23.70
-25.63
-27.65
-30.15
-33.47
-37.71
-42.64
-47.51
-51.20
-52.31
-49.61
-42.47
-31.16
-16.88
-1.39
13.46
26.18
35.92
42.42
45.83
46.45
44.77
41.40
37.19
33.13
30.16
28.86
29.34
31.15
33.47
35.39
36.23
35.65
33.75
30.87
27.44
23.80
20.10
16.31
12.34
8.12
3.67
-0.80
-5.03
-8.80
-12.02
-14.75
-17.22
-19.71
-22.49
-25.87
-30.05
-35.16
-41.06
-47.23
-52.68
-56.11
-56.30
-52.52
-44.85
-34.25
-22.23
-10.39
-0.02
8.14
13.86
17.18
18.37
17.81
16.00
13.56
11.17
9.38
8.47
8.42
8.90
9.48
9.72
9.30
8.07
6.04
3.30
0.02
-3.65
-7.55
-11.51
-15.40
-18.98
-22.01
-24.23
-25.51
-25.91
-25.75
-25.59
-26.09
-27.82
-31.06
-35.55
-40.44
-44.44
-46.06
-44.15
-38.18
-28.52
-16.31
-3.15
9.39
20.11
28.35
33.90
36.85
37.40
35.87
32.74
28.69
24.56
21.12
18.88
17.93
17.94
18.34
18.62
18.47
17.85
16.91
15.77
14.44
12.74
10.45
7.46
3.88
0.02
-3.69
-6.92
-9.48
-11.46
-13.13
-14.93
-17.36
-20.80
-25.31
-30.52
-35.54
-39.13
-40.04
-37.43
-31.26
-22.25
-11.73
-1.16
8.20
15.60
20.69
23.50
24.21
23.16
20.81
17.79
14.84
12.60
11.47
11.49
12.32
13.39
14.08
13.94
12.73
10.43
7.20
3.31
-0.89
-5.04
-8.76
-11.75
-13.80
-14.84
-14.92
-14.21
-12.92
-11.25
-9.41
-7.56
-5.77
-3.87
-1.37
2.52
8.68
17.77
29.94
44.60
60.63
76.71
91.66
104.69
115.29
123.02
127.38
127.94
124.68
118.47
111.14
105.14
102.78
105.22
111.95
120.67
127.93
130.02
124.03
108.56
84.06
52.58
17.20
-18.84
-52.89
-83.39
-109.96
-132.93
-152.79
-169.57
-182.81
-191.80
-196.14
-196.16
-192.89
-187.62
-181.35
-174.56
-167.23
-159.19
-149.92
-138.21
-121.68
-97.15
-62.03
-16.47
35.07
84.05
120.38
136.15
128.92
102.72
66.25
29.30
-0.66
-20.26
-29.93
-32.17
-29.96
-26.08
-23.24
-24.23
-31.50
-45.97
-66.02
-87.24
-103.79
-110.53
-105.20
-89.31
-67.50
-45.56
-28.35
-18.31
-15.32
-17.45
-22.08
-26.85
-30.06
-30.80
-28.71
-23.92
-16.82
-7.91
2.36
13.62
25.51
37.54
48.95
58.84
66.41
71.24
73.48
73.72
72.77
71.23
69.33
66.97
63.92
60.17
56.00
51.87
48.19
45.02
41.97
38.45
33.81
27.74
20.28
11.78
2.66
-6.64
-15.70
-23.94
-30.63
-34.95
-36.21
-34.19
-29.26
-22.41
-14.94
-8.19
-3.20
-0.52
-0.22
-1.97
-5.21
-9.24
-13.31
-16.74
-18.89
-19.36
-18.02
-15.16
-11.45
-7.84
-5.24
-4.17
-4.61
-5.93
-7.17
-7.33
-5.81
-2.54
2.01
7.04
11.67
15.21
17.21
17.38
15.57
11.59
5.46
-2.34
-10.69
-17.90
-22.07
-21.90
-17.37
-10.03
-2.84
0.67
-2.66
-14.76
-35.85
-64.42
-97.38
-130.52
-158.93
-177.90
-183.74
-174.76
-151.60
-116.84
-73.78
-24.80
29.60
90.63
159.49
235.03
311.98
381.18
432.05
456.42
451.64
421.67
375.11
321.52
267.78
216.11
164.57
109.16
46.43
-24.66
-102.03
-180.50
-252.61
-309.94
-345.37
-355.62
-343.14
-316.09
-285.92
-263.45
-255.08
-261.02
-276.10
-292.71
-304.14
-306.91
-301.38
-290.57
-278.39
-267.99
-260.84
-256.69
-254.30
-252.18
-249.26
-244.86
-238.58
-229.81
-217.58
-200.98
-179.72
-154.71
-128.05
-102.60
-81.15
-65.65
-56.63
-53.03
-52.41
-51.58
-47.63
-38.68
-24.28
-5.29
16.82
40.43
64.16
86.70
106.55
121.96
131.45
134.38
131.47
124.69
116.43
108.60
101.81
95.38
87.93
78.31
66.39
53.21
40.53
30.08
22.88
18.99
17.70
18.09
19.46
21.47
24.06
27.23
30.76
34.32
37.52
40.23
42.63
45.36
49.21
55.04
63.60
75.32
90.25
107.88
127.15
146.60
164.58
179.58
190.48
196.61
197.73
193.98
185.79
173.95
159.63
144.24
129.26
115.88
104.81
96.13
89.48
84.28
79.94
76.06
72.35
68.72
65.13
61.62
58.29
55.27
52.70
50.71
49.38
48.58
47.90
46.62
43.86
38.86
31.52
22.63
13.98
7.99
6.96
12.33
24.15
41.03
60.60
80.27
97.91
112.21
122.61
129.01
131.56
130.61
126.90
121.63
116.40
112.76
111.61
112.80
115.03
116.24
114.35
108.05
97.33
83.61
69.34
57.17
49.18
46.37
48.58
54.55
62.10
68.23
69.31
61.87
43.55
14.25
-23.40
-64.50
-103.31
-134.90
-156.37
-167.08
-168.03
-161.02
-147.97
-130.89
-112.01
-93.78
-78.62
-68.24
-63.23
-63.00
-66.03
-70.38
-74.22
-76.22
-75.58
-72.09
-65.94
-57.57
-47.57
-36.61
-25.31
-14.33
-4.30
4.12
10.31
13.84
14.71
13.40
10.94
8.66
7.86
9.40
13.47
19.48
26.30
32.50
36.76
38.30
37.19
34.52
32.24
32.73
38.07
49.34
66.23
87.05
109.34
130.64
149.17
164.08
175.29
183.00
187.16
187.32
182.88
173.60
160.07
143.83
127.06
111.85
99.50
89.99
82.16
74.12
64.14
51.27
35.72
18.80
2.58
-10.55
-18.67
-21.01
-18.72
-15.18
-15.65
-25.95
-50.43
-89.86
-140.34
-193.86
-240.63
-272.24
-284.29
-277.37
-256.08
-226.69
-194.70
-163.45
-134.15
-106.83
-81.52
-58.74
-39.18
-23.07
-9.64
2.64
15.34
29.28
44.12
58.60
71.09
80.49
86.63
90.21
92.18
93.14
92.79
90.06
83.52
72.21
56.12
36.38
14.91
-6.25
-25.56
-42.35
-56.87
-70.03
-82.92
-96.39
-110.73
-125.49
-139.50
-151.03
-158.22
-159.49
-154.17
-142.70
-126.60
-108.08
-89.35
-72.09
-57.11
-44.52
-34.02
-25.33
-18.37
-13.20
-9.71
-7.42
-5.47
-2.76
1.62
8.11
16.55
26.32
36.62
46.73
56.08
64.27
70.98
76.00
79.28
81.07
82.01
82.96
84.77
87.95
92.35
97.17
101.14
102.82
101.20
95.98
87.96
78.87
71.11
67.12
68.64
76.25
89.07
105.06
121.54
135.81
145.79
150.16
148.39
140.57
127.25
109.41
88.45
66.21
44.66
25.60
10.15
-1.38
-9.47
-15.04
-19.14
-22.57
-25.73
-28.54
-30.50
-30.87
-28.94
-24.34
-17.34
-8.85
-0.29
6.87
11.49
13.03
11.46
7.14
0.63
-7.35
-15.57
-22.27
-25.24
-22.34
-12.18
5.12
27.91
53.54
79.28
103.10
123.81
140.86
154.05
163.41
169.45
173.25
176.19
179.17
181.99
183.10
180.33
171.99
157.87
139.44
119.17
99.42
81.64
66.20
52.78
40.83
29.90
19.42
8.74
-2.87
-16.00
-30.71
-46.41
-62.05
-76.50
-89.06
-99.64
-108.62
-116.57
-123.81
-130.17
-135.09
-137.85
-137.94
-135.28
-130.27
-123.68
-116.51
-109.75
-104.19
-100.24
-97.83
-96.45
-95.29
-93.53
-90.55
-86.19
-80.83
-75.19
-70.11
-66.33
-64.28
-63.99
-65.29
-67.88
-71.48
-75.85
-80.80
-86.06
-91.29
-96.11
-100.19
-103.32
-105.47
-106.79
-107.55
-108.13
-108.94
-110.42
-112.87
-116.28
-120.19
-123.66
-125.41
-124.19
-119.17
-110.18
-97.85
-83.32
-68.00
-53.17
-39.83
-28.60
-19.79
-13.45
-9.34
-6.93
-5.54
-4.39
-2.90
-0.72
2.13
5.40
8.71
11.67
13.95
15.31
15.63
14.92
13.39
11.39
9.34
7.58
6.29
5.44
4.92
4.68
4.80
5.44
6.64
8.25
9.90
11.25
12.30
13.66
16.59
22.61
33.01
48.24
67.64
89.47
111.37
130.92
146.25
156.22
160.47
159.22
153.16
143.44
131.56
119.19
107.61
97.11
86.75
74.55
58.47
37.73
13.60
-10.58
-30.56
-42.85
-46.16
-41.84
-33.11
-23.62
-16.03
-11.32
-9.05
-8.20
-8.04
-8.50
-9.99
-12.93
-17.28
-22.62
-28.40
-34.27
-40.21
-46.23
-52.05
-56.79
-59.14
-57.93
-52.66
-44.06
-33.86
-24.30
-17.31
-13.88
-13.93
-16.52
-20.53
-25.09
-29.80
-34.59
-39.46
-44.15
-48.17
-51.01
-52.47
-52.82
-52.65
-52.60
-52.92
-53.40
-53.45
-52.60
-50.76
-48.44
-46.45
-45.60
-46.29
-48.39
-51.32
-54.36
-56.83
-58.40
-59.03
-59.03
-58.92
-59.32
-60.84
-64.04
-69.26
-76.52
-85.39
-94.85
-103.41
-109.31
-110.93
-107.25
-98.25
-84.94
-69.08
-52.66
-37.34
-24.13
-13.32
-4.68
2.09
7.16
10.41
11.65
10.82
8.33
5.00
1.95
0.19
0.30
2.27
5.49
9.04
12.00
13.79
14.28
13.81
13.02
12.60
13.07
14.65
17.27
20.62
24.30
27.79
30.63
32.37
32.64
31.30
28.40
24.23
19.15
13.50
7.39
0.69
-6.95
-15.94
-26.55
-38.49
-50.74
-61.58
-68.88
-70.70
-65.96
-54.87
-38.94
-20.43
-1.71
15.37
29.80
41.30
49.98
56.07
59.70
60.97
60.13
57.61
54.02
49.95
45.86
41.95
38.30
35.02
32.31
30.57
30.14
31.10
33.16
35.66
37.79
38.86
38.56
37.00
34.62
31.94
29.35
26.95
24.63
22.09
19.10
15.57
11.55
7.25
2.86
-1.54
-6.03
-10.82
-16.25
-22.71
-30.47
-39.55
-49.39
-58.86
-66.24
-69.74
-67.99
-60.56
-48.13
-32.28
-14.99
1.96
17.30
30.42
41.11
49.37
55.20
58.63
59.87
59.31
57.61
55.47
53.48
52.04
51.22
50.92
50.91
50.96
50.90
50.58
49.84
48.50
46.37
43.33
39.42
34.87
30.01
25.14
20.43
15.87
11.26
6.46
1.42
-3.73
-8.75
-13.46
-17.84
-22.12
-26.71
-32.05
-38.51
-46.25
-55.05
-64.18
-72.44
-78.26
-80.14
-77.04
-68.79
-56.16
-40.69
-24.23
-8.43
5.56
17.19
26.32
33.03
37.39
39.48
39.52
37.97
35.55
33.08
31.29
30.52
30.73
31.55
32.45
32.97
32.82
31.88
30.14
27.65
24.46
20.64
16.23
11.25
5.74
-0.26
-6.62
-13.15
-19.61
-25.83
-31.72
-37.39
-43.10
-49.17
-55.92
-63.60
-72.26
-81.62
-90.93
-98.93
-103.97
-104.44
-99.13
-87.73
-71.01
-50.78
-29.55
-9.94
6.09
17.85
26.01
32.30
38.65
46.41
55.87
66.46
77.24
87.54
97.14
106.09
114.27
121.24
126.32
129.01
129.22
127.26
123.52
118.19
111.11
102.13
91.30
79.08
66.25
53.49
41.19
29.36
17.88
6.78
-3.55
-12.53
-19.62
-24.76
-28.56
-32.22
-37.14
-44.32
-53.80
-64.30
-73.37
-77.93
-75.24
-63.98
-44.86
-20.73
4.29
26.05
41.69
50.39
53.23
52.41
50.27
48.38
47.15
45.96
43.37
37.69
27.43
11.87
-8.57
-32.30
-56.76
-79.12
-96.94
-108.76
-114.29
-114.22
-109.87
-102.80
-94.49
-86.02
-78.06
-70.78
-64.00
-57.41
-50.79
-44.14
-37.61
-31.46
-25.93
-21.32
-17.90
-15.94
-15.64
-17.00
-19.85
-23.83
-28.50
-33.25
-37.27
-39.47
-38.74
-34.25
-25.90
-14.50
-1.70
10.45
20.15
26.18
28.16
26.39
21.55
14.48
6.08
-2.71
-10.91
-17.58
-22.03
-23.92
-23.40
-20.97
-17.25
-12.83
-8.09
-3.27
1.39
5.48
8.49
9.96
9.69
7.96
5.30
2.33
-0.60
-3.44
-6.47
-10.09
-14.69
-20.61
-28.02
-36.87
-46.71
-56.64
-65.50
-72.38
-77.11
-80.44
-83.75
-88.18
-93.90
-99.66
-103.14
-101.93
-94.53
-81.03
-63.00
-42.78
-22.61
-3.97
12.50
26.75
38.89
48.91
56.71
62.27
65.89
68.15
69.88
71.83
74.42
77.66
81.23
84.66
87.52
89.49
90.43
90.24
88.82
86.03
81.78
76.11
69.24
61.48
53.13
44.26
34.77
24.39
12.98
0.65
-12.19
-24.90
-36.85
-47.52
-56.49
-63.31
-67.48
-68.39
-65.59
-58.94
-48.79
-35.93
-21.41
-6.36
8.28
21.66
33.12
42.03
47.81
50.06
48.67
43.97
36.74
28.24
19.98
13.43
9.66
9.07
11.29
15.33
19.93
24.02
26.94
28.58
29.18
29.13
28.65
27.73
26.15
23.66
20.06
15.34
9.68
3.33
-3.44
-10.37
-17.15
-23.48
-29.08
-33.91
-38.22
-42.54
-47.33
-52.64
-57.83
-61.69
-62.83
-60.28
-53.90
-44.35
-32.72
-20.10
-7.22
5.55
18.00
29.68
39.91
47.89
53.01
55.22
55.04
53.53
51.81
50.72
50.51
50.88
51.16
50.64
48.99
46.37
43.34
40.66
38.89
38.22
38.30
38.40
37.56
34.97
30.19
23.35
15.08
6.38
-1.73
-8.59
-14.11
-18.87
-23.85
-29.98
-37.63
-46.25
-54.32
-59.87
-61.07
-56.94
-47.62
-34.29
-18.73
-2.77
12.12
24.95
35.09
42.18
46.04
46.75
44.75
40.80
35.91
31.11
27.21
24.68
23.56
23.53
24.05
24.57
24.72
24.35
23.58
22.54
21.30
19.69
17.41
14.20
10.00
5.12
0.11
-4.39
-7.98
-10.64
-12.77
-14.96
-17.79
-21.68
-26.80
-33.08
-40.15
-47.27
-53.36
-57.09
-57.25
-53.13
-44.91
-33.52
-20.53
-7.59
3.99
13.38
20.30
24.76
27.00
27.39
26.46
24.79
23.03
21.61
20.66
20.06
19.53
18.83
17.85
16.69
15.50
14.40
13.34
12.06
10.19
7.31
3.21
-2.08
-8.21
-14.62
-20.68
-25.91
-30.11
-33.41
-36.26
-39.18
-42.74
-47.28
-52.83
-58.99
-64.87
-69.16
-70.47
-67.69
-60.38
-48.98
-34.72
-19.27
-4.32
8.85
19.42
27.08
31.84
33.98
33.97
32.43
30.13
27.81
26.07
25.22
25.25
25.84
26.58
27.06
26.98
26.30
25.05
23.36
21.31
18.88
15.97
12.47
8.38
3.85
-0.75
-5.03
-8.68
-11.65
-14.23
-16.97
-20.50
-25.23
-31.20
-37.93
-44.45
-49.48
-51.73
-50.22
-44.56
-35.08
-22.84
-9.40
3.58
14.71
23.13
28.55
31.17
31.40
29.79
26.92
23.40
19.85
16.90
15.01
14.34
14.74
15.81
17.06
18.05
18.50
18.31
17.42
15.86
13.60
10.66
7.11
3.07
-1.24
-5.61
-9.83
-13.78
-17.48
-21.07
-24.91
-29.30
-34.42
-40.09
-45.59
-49.78
-51.36
-49.36
-43.43
-34.06
-22.44
-10.12
1.43
11.11
18.32
22.91
25.02
25.05
23.44
20.79
17.73
14.95
12.98
12.15
12.50
13.78
15.58
17.40
18.84
19.61
19.54
18.56
16.66
13.91
10.51
6.78
3.05
-0.37
-3.35
-6.01
-8.59
-11.44
-14.89
-19.18
-24.35
-30.12
-35.81
-40.37
-42.59
-41.47
-36.59
-28.31
-17.73
-6.31
4.47
13.52
20.25
24.46
26.29
26.03
24.12
21.08
17.56
14.27
11.78
10.50
10.53
11.65
13.35
15.02
16.08
16.19
15.30
13.55
11.19
8.46
5.51
2.44
-0.62
-3.56
-6.28
-8.80
-11.32
-14.15
-17.64
-21.91
-26.71
-31.35
-34.80
-35.98
-34.16
-29.28
-21.91
-13.19
-4.36
3.52
9.75
13.90
15.84
15.64
13.71
10.95
8.60
7.93
9.68
13.68
18.88
23.71
26.71
27.05
24.67
20.11
14.13
7.48
0.78
-5.44
-10.69
-14.51
-16.68
-17.26
-16.70
-15.69
-15.02
-15.35
-17.13
-20.48
-25.18
-30.62
-35.76
-39.37
-40.25
-37.63
-31.49
-22.60
-12.30
-2.07
6.91
13.97
18.95
21.96
23.18
22.80
21.10
18.56
15.88
13.80
12.85
13.19
14.53
16.33
17.95
18.90
18.89
17.87
16.00
13.59
11.02
8.64
6.63
4.93
3.27
1.20
-1.70
-5.72
-10.97
-17.29
-24.16
-30.79
-36.10
-38.93
-38.30
-33.77
-25.59
-14.76
-2.81
8.64
18.19
25.08
29.09
30.53
29.93
27.91
25.06
21.94
19.15
17.24
16.62
17.36
19.13
21.28
23.05
23.83
23.33
21.64
19.09
16.07
12.92
9.83
6.92
4.18
1.57
-1.02
-3.75
-6.83
-10.48
-14.86
-19.93
-25.31
-30.27
-33.79
-34.83
-32.68
-27.27
-19.23
-9.71
-0.03
8.67
15.69
20.75
23.83
25.09
24.71
23.01
20.47
17.77
15.64
14.65
15.04
16.57
18.67
20.60
21.78
21.92
21.07
19.49
17.43
15.08
12.46
9.62
6.65
3.71
1.00
-1.42
-3.71
-6.25
-9.48
-13.80
-19.26
-25.43
-31.41
-35.98
-37.93
-36.45
-31.41
-23.44
-13.74
-3.74
5.28
12.48
17.54
20.49
21.64
21.32
19.91
17.86
15.63
13.75
12.63
12.49
13.24
14.51
15.79
16.59
16.62
15.83
14.37
12.48
10.36
8.08
5.68
3.13
0.50
-2.05
-4.40
-6.44
-8.27
-10.19
-12.61
-15.86
-20.02
-24.69
-29.05
-32.01
-32.63
-30.40
-25.45
-18.47
-10.46
-2.38
5.04
11.33
16.15
19.22
20.37
19.64
17.44
14.53
11.88
10.25
10.03
11.11
12.99
15.02
16.68
17.64
17.76
17.03
15.54
13.42
10.84
8.04
5.25
2.63
0.21
-2.08
-4.40
-7.01
-10.15
-13.97
-18.38
-22.94
-26.90
-29.26
-29.09
-25.89
-19.84
-11.73
-2.78
5.76
12.99
18.40
21.88
23.49
23.41
21.91
19.40
16.48
13.81
12.00
11.33
11.75
12.86
14.10
14.95
15.04
14.20
12.46
10.00
7.08
3.95
0.90
-1.88
-4.29
-6.31
-8.07
-9.87
-12.05
-14.97
-18.88
-23.75
-29.16
-34.28
-37.99
-39.16
-37.03
-31.52
-23.26
-13.47
-3.58
5.23
12.22
17.16
20.18
21.55
21.55
20.48
18.70
16.68
14.98
14.14
14.47
15.94
18.16
20.50
22.27
22.95
22.36
20.61
18.06
15.03
11.75
8.28
4.70
1.15
-2.11
-4.79
-6.76
-8.15
-9.37
-10.97
-13.47
-17.10
-21.74
-26.87
-31.68
-35.19
-36.51
-35.05
-30.66
-23.75
-15.15
-5.92
2.91
10.57
16.58
20.78
23.16
23.85
23.09
21.30
19.05
17.02
15.81
15.75
16.79
18.47
20.16
21.27
21.46
20.77
19.48
17.99
16.55
15.22
13.84
12.19
10.09
7.53
4.64
1.65
-1.20
-3.76
-5.97
-7.93
-9.83
-11.94
-14.55
-17.88
-21.98
-26.61
-31.15
-34.70
-36.23
-34.94
-30.55
-23.43
-14.54
-5.16
3.50
10.58
15.68
18.82
20.24
20.25
19.23
17.60
15.88
14.61
14.24
14.92
16.53
18.62
20.56
21.81
22.00
21.08
19.22
16.78
14.13
11.55
9.16
7.00
5.02
3.20
1.56
0.19
-0.84
-1.49
-1.82
-1.99
-2.23
-2.76
-3.77
-5.36
-7.59
-10.42
-13.73
-17.22
-20.39
-22.60
-23.24
-21.93
-18.64
-13.81
-8.10
-2.26
3.16
7.92
11.99
15.47
18.43
20.88
22.81
24.27
25.36
26.25
27.15
28.18
29.46
30.95
32.51
33.86
34.69
34.81
34.26
33.41
32.79
32.93
34.09
36.16
38.77
41.53
44.25
46.94
49.76
52.74
55.66
58.09
59.54
59.74
58.60
56.12
52.16
46.40
38.47
28.40
16.89
5.33
-4.49
-11.06
-13.62
-12.39
-8.38
-3.00
2.39
6.73
9.33
9.90
8.52
5.79
2.71
0.52
0.23
2.30
6.51
12.06
17.96
23.48
28.29
32.40
35.94
38.87
40.91
41.55
40.32
36.95
31.37
23.76
14.37
3.67
-7.61
-18.49
-27.98
-35.60
-41.74
-47.86
-55.89
-67.16
-81.48
-96.70
-109.50
-116.65
-116.48
-109.49
-97.90
-84.43
-71.15
-58.93
-47.63
-36.86
-26.63
-17.48
-10.28
-5.73
-4.11
-5.27
-8.87
-14.52
-21.88
-30.42
-39.29
-47.32
-53.13
-55.58
-54.22
-49.67
-43.51
-37.88
-34.72
-34.98
-38.27
-42.98
-47.07
-48.81
-47.45
-43.41
-37.99
-32.97
-30.05
-30.55
-35.01
-43.08
-53.29
-63.35
-70.61
-72.82
-68.85
-58.99
-44.83
-28.61
-12.59
1.48
12.50
20.00
23.97
24.80
23.24
20.29
17.07
14.50
13.08
12.79
13.19
13.66
13.66
12.89
11.37
9.36
7.22
5.29
3.78
2.72
2.01
1.51
1.08
0.61
0.06
-0.70
-1.78
-3.34
-5.45
-8.00
-10.66
-12.85
-13.82
-12.87
-9.54
-3.78
3.89
12.52
20.92
27.97
32.88
35.34
35.50
33.84
30.98
27.61
24.39
21.80
20.08
19.09
18.36
17.27
15.34
12.42
8.82
5.10
1.90
-0.39
-1.64
-1.99
-1.70
-1.05
-0.34
0.19
0.29
-0.20
-1.34
-2.96
-4.85
-6.79
-8.69
-10.64
-12.78
-15.16
-17.58
-19.49
-20.21
-19.18
-16.16
-11.42
-5.61
0.44
5.95
10.38
13.44
14.99
15.04
13.67
11.06
7.49
3.33
-1.02
-5.24
-9.08
-12.33
-14.84
-16.46
-17.07
-16.68
-15.44
-13.64
-11.54
-9.33
-7.12
-4.90
-2.82
-1.20
-0.58
-1.54
-4.55
-9.68
-16.66
-24.85
-33.43
-41.56
-48.39
-53.17
-55.22
-54.11
-49.79
-42.67
-33.63
-23.77
-14.13
-5.48
1.83
7.71
12.13
14.94
15.86
14.58
11.11
5.99
0.36
-4.29
-6.61
-5.78
-1.78
4.70
12.50
20.32
26.94
31.26
32.45
30.05
24.16
15.55
5.62
-4.02
-11.96
-17.39
-20.21
-20.80
-19.71
-17.29
-13.66
-8.85
-2.98
3.61
10.42
16.92
22.79
27.92
32.40
36.25
39.28
40.99
40.75
38.05
32.85
25.73
17.74
10.10
3.75
-0.99
-4.36
-6.98
-9.45
-12.02
-14.51
-16.49
-17.51
-17.40
-16.27
-14.47
-12.37
-10.29
-8.43
-7.01
-6.22
-6.24
-7.02
-8.12
-8.69
-7.73
-4.41
1.51
9.51
18.38
26.67
33.06
36.72
37.43
35.40
31.12
25.17
18.22
10.96
4.17
-1.37
-5.08
-6.64
-6.18
-4.19
-1.41
1.36
3.40
4.15
3.35
1.03
-2.55
-6.93
-11.55
-15.85
-19.36
-21.80
-23.17
-23.69
-23.85
-24.12
-24.85
-26.02
-27.19
-27.60
-26.47
-23.27
-17.91
-10.72
-2.39
6.30
14.60
21.89
27.69
31.65
33.61
33.60
31.91
29.07
25.74
22.66
20.39
19.18
18.95
19.32
19.78
19.91
19.50
18.54
17.14
15.38
13.14
10.21
6.37
1.59
-3.84
-9.36
-14.22
-17.82
-19.74
-19.90
-18.48
-15.78
-12.07
-7.50
-2.10
4.14
11.28
19.33
28.26
37.93
47.98
57.70
66.16
72.33
75.46
75.29
72.15
66.76
59.90
52.11
43.59
34.29
24.02
12.55
-0.27
-14.55
-30.23
-46.87
-63.60
-79.24
-92.50
-102.35
-108.17
-109.79
-107.30
-100.96
-91.18
-78.71
-64.66
-50.38
-37.17
-25.98
-17.22
-10.82
-6.46
-3.77
-2.53
-2.59
-3.78
-5.84
-8.34
-10.77
-12.61
-13.43
-12.95
-11.03
-7.67
-2.96
2.84
9.38
16.13
22.45
27.72
31.47
33.48
33.76
32.41
29.48
24.94
18.70
10.83
1.74
-7.82
-16.78
-24.02
-28.62
-30.03
-28.15
-23.28
-16.01
-7.07
2.81
12.96
22.79
31.83
39.68
45.99
50.55
53.28
54.28
53.85
52.38
50.22
47.59
44.53
40.98
36.89
32.33
27.56
22.89
18.55
14.49
10.31
5.30
-1.31
-10.09
-21.06
-33.57
-46.26
-57.30
-64.67
-66.65
-62.26
-51.60
-35.95
-17.57
0.81
16.72
28.51
35.65
38.55
38.15
35.46
31.21
25.90
19.92
13.74
7.84
2.60
-2.06
-6.65
-11.98
-18.58
-26.26
-33.86
-39.49
-41.27
-38.15
-30.49
-20.00
-9.07
0.10
6.22
9.07
9.13
6.97
3.04
-2.21
-7.96
-12.74
-14.67
-12.10
-4.39
7.70
22.11
36.22
47.68
55.07
58.10
57.38
54.01
49.22
44.10
39.48
35.84
33.24
31.20
28.86
25.23
19.61
11.87
2.60
-7.09
-15.92
-22.88
-27.43
-29.56
-29.82
-29.09
-28.58
-29.57
-33.14
-39.80
-49.12
-59.70
-69.56
-76.68
-79.69
-78.30
-73.26
-65.99
-58.03
-50.50
-43.83
-37.77
-31.60
-24.48
-15.83
-5.56
5.79
17.10
26.99
34.02
37.17
35.98
30.71
22.18
11.71
0.78
-9.11
-16.70
-21.17
-22.24
-20.16
-15.61
-9.38
-2.02
6.31
15.76
26.54
38.55
51.19
63.45
74.16
82.35
87.41
89.09
87.26
81.90
73.05
61.05
46.66
31.10
15.88
2.56
-7.49
-13.31
-14.58
-11.68
-5.72
1.62
8.47
13.21
14.85
13.26
8.89
2.61
-4.71
-12.26
-19.35
-25.30
-29.57
-31.85
-32.09
-30.48
-27.18
-22.10
-14.91
-5.27
6.74
20.36
34.15
46.36
55.48
60.60
61.61
59.00
53.56
46.11
37.38
27.98
18.41
9.16
0.67
-6.60
-12.20
-15.72
-16.97
-16.17
-14.06
-11.80
-10.66
-11.62
-15.08
-20.76
-27.84
-35.33
-42.23
-47.85
-51.79
-53.86
-54.03
-52.33
-48.89
-43.97
-38.04
-31.62
-25.20
-18.94
-12.52
-5.27
3.56
14.44
27.31
41.49
55.88
69.19
80.19
87.81
91.25
90.01
84.11
74.15
61.30
46.99
32.59
19.07
6.91
-3.84
-13.29
-21.50
-28.35
-33.66
-37.31
-39.43
-40.42
-40.88
-41.32
-41.93
-42.42
-42.08
-40.13
-36.13
-30.23
-23.18
-15.98
-9.44
-3.74
1.49
6.85
12.50
17.78
21.23
21.25
16.84
8.25
-2.85
-13.98
-22.70
-27.45
-27.98
-25.17
-20.45
-15.15
-10.19
-6.11
-3.44
-2.92
-5.40
-11.39
-20.49
-31.13
-40.81
-46.81
-47.11
-41.05
-29.42
-14.01
3.02
19.75
34.71
46.90
55.64
60.41
61.09
57.95
51.82
43.92
35.58
27.81
21.10
15.46
10.59
6.30
2.65
0.04
-1.00
-0.17
2.42
6.15
10.05
13.08
14.44
13.76
11.21
7.35
2.99
-0.94
-3.56
-4.14
-2.30
1.81
7.29
12.63
15.99
15.81
11.44
3.38
-6.78
-16.94
-25.12
-30.09
-31.51
-29.91
-26.35
-22.06
-18.22
-15.73
-14.94
-15.57
-16.67
-16.85
-14.69
-9.31
-0.72
9.94
20.78
29.64
34.84
35.53
31.88
24.76
15.41
5.07
-5.21
-14.53
-22.04
-26.96
-28.75
-27.37
-23.28
-17.45
-10.89
-4.32
2.07
8.56
15.51
22.93
30.26
36.37
39.96
40.01
36.10
28.62
18.56
7.38
-3.29
-11.81
-16.77
-17.32
-13.42
-6.06
2.97
11.46
17.48
19.90
18.52
13.90
6.86
-1.93
-12.08
-23.15
-34.35
-44.34
-51.47
-54.34
-52.38
-46.10
-36.85
-26.30
-15.87
-6.48
1.31
7.02
10.04
9.79
6.02
-0.73
-9.16
-17.51
-24.19
-28.25
-29.62
-28.88
-26.75
-23.59
-19.18
-12.81
-3.73
8.45
23.34
39.79
56.03
69.94
79.31
82.01
76.41
62.00
40.04
13.93
-11.23
-29.99
-38.40
-35.53
-23.74
-7.57
8.16
20.32
28.07
32.44
34.86
36.03
35.51
32.23
25.62
16.33
6.28
-2.26
-7.60
-9.43
-8.70
-7.00
-5.70
-5.48
-6.31
-7.80
-9.72
-12.14
-15.35
-19.50
-24.34
-29.16
-33.05
-35.13
-34.78
-31.69
-25.89
-17.61
-7.40
4.00
15.79
27.23
37.67
46.48
52.89
55.90
54.50
47.92
36.27
20.68
3.31
-13.21
-26.54
-35.25
-39.23
-39.37
-37.12
-33.79
-30.11
-26.20
-21.70
-16.14
-9.20
-0.83
8.83
19.43
30.56
41.60
51.71
59.74
64.31
63.99
57.77
45.46
28.03
7.57
-13.18
-31.61
-45.94
-55.62
-61.04
-62.91
-61.66
-57.23
-49.40
-38.27
-24.52
-9.27
6.40
21.85
36.84
51.07
63.83
73.86
79.87
81.14
78.08
72.19
65.56
60.10
57.07
56.89
59.45
64.38
71.18
79.19
87.45
94.73
99.75
101.49
99.58
94.40
86.84
77.90
68.05
57.02
43.78
27.07
6.14
-18.61
-45.28
-70.67
-91.26
-104.44
-109.75
-109.42
-107.76
-109.54
-118.08
-133.68
-153.37
-172.03
-184.29
-186.54
-177.89
-160.08
-136.40
-110.40
-84.99
-62.07
-42.82
-27.84
-17.39
-11.19
-8.32
-7.25
-6.10
-3.15
2.66
11.56
23.00
35.95
49.31
62.19
74.33
86.19
98.86
113.60
130.97
150.09
168.37
182.12
187.69
182.65
166.49
140.52
107.18
69.22
29.27
-10.33
-47.42
-80.05
-106.79
-126.97
-140.71
-148.51
-150.80
-147.78
-139.52
-126.56
-110.21
-92.63
-76.30
-63.38
-55.17
-52.03
-53.54
-58.95
-67.37
-77.70
-88.59
-98.40
-105.67
-109.70
-111.01
-111.16
-112.09
-115.07
-119.86
-124.64
-126.59
-123.12
-112.77
-95.83
-74.18
-50.66
-28.38
-9.93
2.92
9.44
9.94
5.61
-1.78
-10.24
-17.96
-23.60
-26.41
-26.13
-22.82
-16.83
-8.77
0.43
9.79
18.87
28.19
39.36
54.43
74.79
100.34
129.23
158.46
184.98
206.66
222.43
231.91
234.76
230.39
218.37
199.15
174.74
148.59
124.67
106.16
94.22
87.73
83.90
79.69
73.12
64.01
53.76
44.43
37.59
33.68
32.09
31.70
31.51
30.77
28.60
23.48
12.93
-5.99
-35.56
-75.90
-124.13
-174.30
-218.83
-250.60
-265.23
-262.35
-245.45
-220.50
-193.86
-170.59
-153.51
-143.24
-138.78
-138.21
-139.22
-139.29
-136.07
-127.70
-113.30
-93.30
-69.49
-44.52
-21.08
-1.13
14.64
26.76
36.44
45.08
53.67
62.72
72.33
82.47
93.06
104.05
115.20
125.93
135.49
143.08
148.19
150.73
150.88
148.56
143.04
133.07
117.69
97.28
74.15
52.13
34.92
24.35
19.26
16.05
10.53
-0.00
-15.51
-33.56
-50.70
-64.20
-72.93
-77.21
-77.93
-75.78
-70.85
-62.91
-51.92
-38.34
-23.43
-9.07
2.72
10.43
13.52
12.66
9.54
6.21
4.45
5.30
8.92
14.87
22.39
30.59
38.27
43.56
43.89
36.57
19.95
-5.30
-35.67
-65.62
-89.37
-102.99
-105.69
-99.77
-89.05
-77.02
-65.45
-54.37
-43.06
-31.29
-19.91
-10.46
-4.14
-0.93
0.43
1.75
4.35
8.32
12.72
16.46
19.45
23.17
30.25
43.16
62.76
87.44
113.42
135.64
148.89
148.85
133.02
101.62
58.41
10.55
-32.86
-63.55
-77.07
-74.55
-61.98
-47.45
-37.53
-34.88
-38.02
-43.21
-47.01
-47.86
-46.02
-42.31
-36.81
-28.50
-15.92
1.62
23.20
46.34
67.77
84.60
95.03
98.08
93.03
79.16
56.50
27.05
-4.65
-32.28
-50.16
-55.84
-51.52
-42.99
-36.57
-35.82
-39.79
-43.68
-41.51
-29.15
-6.12
24.48
57.52
87.74
111.30
126.36
132.90
132.10
125.91
116.81
107.72
101.70
101.24
107.40
119.24
134.17
148.84
160.63
168.22
171.33
169.64
161.89
145.73
118.84
80.64
33.59
-16.93
-64.41
-103.70
-132.88
-153.32
-167.81
-177.82
-181.74
-175.18
-153.72
-116.17
-66.58
-13.73
31.90
61.84
72.07
63.36
40.02
8.32
-24.58
-51.49
-66.36
-66.18
-52.25
-30.19
-7.70
8.93
17.75
21.67
26.47
37.19
55.07
76.86
96.23
106.49
102.90
83.79
50.59
7.14
-41.26
-88.93
-131.01
-164.21
-187.04
-199.50
-202.37
-196.80
-184.34
-167.32
-149.00
-132.80
-121.05
-113.74
-108.30
-100.93
-88.66
-71.21
-51.31
-33.38
-21.26
-16.60
-18.19
-22.92
-27.21
-28.27
-24.68
-16.41
-4.54
9.21
22.79
34.35
42.68
47.48
49.33
49.28
48.40
47.43
46.70
46.10
45.15
42.99
38.61
31.39
21.63
10.85
1.34
-4.94
-7.39
-7.39
-7.73
-11.31
-19.68
-32.31
-46.82
-59.98
-68.68
-70.46
-63.54
-46.79
-20.09
15.03
55.04
94.59
127.78
149.86
158.80
155.80
144.54
129.69
115.26
103.63
95.41
89.97
86.06
82.41
78.06
72.35
65.02
56.14
46.06
35.34
24.76
15.21
7.45
1.86
-1.83
-4.49
-7.35
-11.57
-17.69
-25.45
-33.87
-41.76
-48.17
-52.84
-56.23
-59.23
-62.75
-67.37
-73.10
-79.46
-85.66
-90.89
-94.46
-95.96
-95.16
-92.06
-86.76
-79.53
-70.83
-61.22
-51.34
-41.79
-33.11
-25.74
-19.96
-15.88
-13.27
-11.56
-9.94
-7.67
-4.33
-0.07
4.54
8.69
11.78
13.50
13.87
13.00
11.10
8.53
5.90
4.18
4.42
7.37
13.01
20.44
28.04
34.01
36.93
36.20
32.18
26.10
19.76
15.02
13.34
15.33
20.51
27.36
33.71
37.37
36.80
31.64
22.88
12.57
3.08
-3.69
-7.02
-7.46
-6.42
-5.44
-5.37
-6.19
-7.23
-7.88
-8.12
-8.71
-10.78
-15.20
-21.98
-30.32
-38.82
-46.25
-51.97
-56.13
-59.33
-62.29
-65.38
-68.41
-70.84
-71.96
-71.24
-68.54
-64.19
-58.89
-53.53
-48.81
-45.08
-42.17
-39.53
-36.51
-32.65
-28.00
-23.12
-18.71
-15.06
-11.66
-7.38
-1.11
7.10
15.66
21.64
22.31
16.40
4.82
-9.90
-25.30
-40.12
-54.22
-67.12
-76.76
-79.69
-73.07
-57.03
-35.94
-17.19
-8.22
-13.20
-31.56
-58.73
-88.58
-115.80
-137.15
-151.07
-157.07
-155.04
-145.36
-129.25
-108.96
-87.44
-67.65
-51.60
-39.45
-29.21
-16.98
1.53
28.76
63.54
100.43
131.26
148.12
146.75
128.48
99.85
69.88
46.42
33.45
30.29
32.94
36.48
37.17
33.20
24.29
10.80
-6.83
-27.58
-49.32
-68.68
-81.94
-86.44
-81.88
-70.52
-56.17
-42.62
-32.05
-24.44
-17.99
-10.22
0.96
16.34
35.25
55.77
75.23
91.01
101.09
104.37
100.70
90.88
76.64
60.62
46.08
35.92
31.56
32.08
34.63
35.94
34.19
29.93
25.52
23.27
23.53
24.18
21.52
12.26
-4.85
-28.46
-55.28
-81.24
-102.59
-116.36
-120.65
-114.84
-99.92
-78.58
-54.63
-31.80
-12.54
2.63
14.96
26.56
39.21
53.47
68.23
81.01
88.96
89.88
83.02
69.41
51.53
32.70
16.45
5.82
2.91
8.29
20.59
36.31
50.48
58.27
56.99
47.34
33.07
18.71
7.10
-2.18
-12.20
-26.41
-46.24
-69.86
-93.03
-111.08
-120.94
-121.71
-113.92
-97.90
-73.09
-38.50
5.70
56.89
109.82
158.06
196.09
221.07
233.34
235.45
230.34
219.83
204.05
181.89
152.20
114.85
71.55
26.37
-14.42
-43.25
-53.50
-42.40
-13.44
23.47
54.83
68.40
58.00
25.43
-21.04
-70.86
-115.37
-149.82
-172.60
-182.98
-179.63
-161.00
-127.27
-81.99
-32.12
14.21
50.61
74.59
87.79
94.30
98.26
102.01
105.66
107.81
106.97
102.72
96.10
89.17
84.09
82.11
82.90
84.45
83.63
77.42
64.25
44.87
22.23
0.30
-17.53
-29.71
-36.88
-41.09
-44.58
-48.58
-52.90
-56.21
-56.76
-53.15
-44.66
-31.32
-13.70
7.23
30.05
52.88
73.38
88.86
96.70
94.75
82.03
59.32
29.36
-3.64
-35.15
-61.57
-81.20
-94.36
-102.74
-108.31
-112.38
-115.39
-117.23
-117.81
-117.39
-116.40
-115.08
-113.06
-109.48
-103.44
-94.53
-83.16
-70.41
-57.51
-45.40
-34.42
-24.27
-14.44
-4.37
6.25
17.53
29.38
41.54
53.63
65.08
75.29
83.77
90.42
95.57
99.89
103.93
107.59
109.86
108.85
102.49
89.42
69.83
45.64
19.98
-3.76
-23.05
-36.81
-45.32
-49.95
-53.08
-57.97
-68.20
-86.40
-112.29
-141.40
-165.35
-174.50
-161.80
-126.05
-72.85
-12.42
44.56
90.88
124.64
148.32
166.00
180.59
192.53
200.22
201.66
195.93
183.98
168.32
152.03
137.70
126.64
118.86
113.43
109.11
104.76
99.51
92.47
82.67
68.99
50.56
27.35
0.54
-27.43
-53.54
-75.14
-90.89
-101.12
-107.48
-111.83
-115.15
-116.73
-114.28
-104.91
-86.49
-58.95
-24.77
11.45
44.25
68.94
82.80
85.66
79.53
67.72
53.76
40.54
29.84
22.42
18.17
16.49
16.53
17.36
18.13
18.12
16.90
14.30
10.53
6.05
1.44
-2.79
-6.40
-9.46
-12.26
-15.10
-18.07
-20.96
-23.28
-24.45
-24.03
-21.76
-17.73
-12.28
-5.93
0.64
6.75
11.89
15.83
18.75
21.05
23.19
25.30
27.16
28.32
28.35
27.12
24.90
22.20
19.48
16.98
14.62
12.17
9.27
5.61
0.95
-4.88
-11.90
-19.84
-28.16
-36.06
-42.64
-47.16
-49.19
-48.76
-46.38
-42.92
-39.50
-37.26
-37.17
-39.89
-45.66
-54.24
-64.86
-76.34
-87.17
-95.78
-100.88
-101.72
-98.30
-91.29
-81.76
-70.93
-59.86
-49.33
-39.82
-31.50
-24.22
-17.43
-10.22
-1.45
9.89
24.22
40.96
58.47
74.29
85.74
90.75
88.49
79.66
66.24
50.89
36.17
23.84
14.66
8.46
4.52
1.96
-0.07
-2.31
-5.50
-10.34
-17.40
-26.88
-38.41
-51.10
-63.68
-74.82
-83.37
-88.51
-89.71
-86.71
-79.51
-68.32
-53.64
-36.23
-16.99
3.14
23.25
42.37
59.47
73.52
83.73
89.75
91.88
90.96
88.02
83.90
78.94
72.98
65.62
56.61
46.10
34.76
23.52
13.26
4.46
-2.96
-9.52
-15.97
-22.82
-30.13
-37.43
-43.86
-48.68
-51.66
-53.23
-54.38
-56.09
-58.82
-62.05
-64.47
-64.42
-60.69
-53.06
-42.43
-30.42
-18.78
-8.73
-0.73
5.43
10.46
15.46
21.88
31.36
45.04
62.70
82.04
98.99
108.95
108.80
98.52
81.44
62.94
48.02
39.18
35.44
33.21
28.15
17.31
0.28
-21.00
-43.37
-64.00
-81.33
-95.31
-106.82
-116.77
-125.49
-132.77
-138.28
-142.29
-145.87
-150.48
-157.28
-166.22
-175.90
-184.03
-188.37
-187.71
-182.34
-173.78
-164.06
-154.77
-146.45
-138.48
-129.57
-118.53
-105.01
-89.82
-74.69
-61.52
-51.59
-45.00
-40.59
-36.44
-30.59
-21.80
-9.83
4.54
19.92
34.79
47.85
58.31
65.71
69.83
70.55
67.82
61.85
53.08
42.39
30.84
19.49
9.20
0.57
-6.03
-10.32
-12.17
-11.70
-9.48
-6.54
-4.05
-3.04
-3.94
-6.51
-9.96
-13.29
-15.72
-16.84
-16.67
-15.51
-13.79
-11.88
-10.07
-8.59
-7.61
-7.31
-7.90
-9.64
-12.82
-17.64
-24.24
-32.50
-41.97
-51.76
-60.59
-66.87
-68.98
-65.77
-56.80
-42.66
-24.78
-5.00
15.06
34.48
53.14
71.33
89.16
106.05
120.78
131.90
138.36
140.03
137.73
132.83
126.82
120.89
115.94
112.79
112.20
114.68
120.03
127.01
133.41
136.72
135.00
127.74
116.16
102.75
90.28
80.76
74.64
70.84
67.38
62.32
54.57
44.19
32.06
19.29
6.66
-5.68
-18.05
-30.91
-44.44
-58.31
-71.67
-83.47
-92.69
-98.61
-100.88
-99.48
-94.50
-86.13
-74.62
-60.47
-44.64
-28.61
-14.12
-2.83
4.30
7.22
6.80
4.45
1.53
-0.96
-2.64
-3.50
-3.76
-3.58
-3.00
-1.99
-0.57
1.21
3.17
5.21
7.20
9.09
10.88
12.63
14.50
16.68
19.29
22.30
25.39
28.07
29.78
30.10
28.84
25.90
21.22
14.69
6.43
-2.93
-11.99
-18.72
-21.02
-17.32
-7.23
8.32
27.23
46.73
63.93
76.27
81.97
80.46
72.71
61.25
49.83
42.34
41.63
48.64
62.07
78.84
94.87
106.18
109.91
105.10
92.97
76.66
60.43
48.36
43.12
45.10
52.46
61.94
70.08
74.36
73.67
68.11
58.36
45.20
29.31
11.39
-7.56
-26.30
-43.48
-57.92
-68.84
-76.06
-79.61
-79.64
-76.24
-69.61
-60.21
-48.98
-37.25
-26.44
-17.76
-11.83
-8.70
-7.92
-8.77
-10.48
-12.35
-13.88
-14.79
-15.03
-14.71
-14.09
-13.39
-12.72
-12.08
-11.34
-10.33
-9.00
-7.43
-5.87
-4.58
-3.72
-3.11
-2.31
-0.69
2.17
6.28
11.21
16.25
20.65
23.87
25.56
25.47
23.42
19.40
13.89
8.05
3.61
2.41
5.66
13.45
24.55
36.84
47.97
56.02
59.94
59.48
55.11
47.59
37.88
26.93
15.76
5.22
-3.98
-11.38
-16.82
-20.36
-22.11
-22.20
-20.77
-17.98
-14.11
-9.59
-4.89
-0.46
3.35
6.37
8.51
9.76
10.13
9.63
8.27
6.04
2.88
-1.30
-6.56
-12.81
-19.54
-25.81
-30.29
-31.63
-28.96
-22.21
-12.25
-0.69
10.67
20.36
27.55
32.19
34.75
35.91
36.34
36.61
37.17
38.39
40.41
43.07
45.87
48.16
49.42
49.51
48.73
47.63
46.60
45.77
44.88
43.60
41.67
39.09
35.89
31.94
26.78
19.77
10.44
-1.20
-14.46
-28.13
-40.80
-51.21
-58.65
-62.96
-64.59
-64.27
-62.81
-60.76
-58.32
-55.42
-51.91
-47.85
-43.67
-40.12
-37.88
-37.18
-37.48
-37.51
-35.71
-30.82
-22.37
-10.79
2.63
16.14
27.83
35.99
39.50
38.39
34.29
30.28
29.81
35.01
45.35
57.32
66.00
67.41
60.56
47.91
34.00
23.19
17.81
17.84
22.02
29.31
39.63
53.49
70.88
90.43
109.53
125.37
136.13
141.66
143.29
143.01
142.47
142.24
141.61
138.92
132.18
119.93
101.82
78.80
52.89
26.50
1.61
-20.72
-40.55
-58.69
-76.22
-94.01
-112.34
-130.68
-147.79
-161.94
-171.42
-175.14
-173.18
-166.99
-159.01
-151.94
-147.78
-147.34
-150.04
-154.37
-158.45
-160.62
-159.78
-155.45
-147.71
-136.96
-123.88
-109.29
-94.04
-78.97
-64.79
-51.93
-40.45
-30.08
-20.35
-10.89
-1.63
7.04
14.40
19.74
22.60
22.99
21.41
18.57
15.23
11.91
8.78
5.60
1.84
-3.11
-9.77
-18.27
-28.14
-38.25
-47.04
-52.86
-54.55
-51.82
-45.42
-36.84
-27.86
-19.99
-14.06
-10.13
-7.71
-6.03
-4.35
-2.11
1.02
5.07
9.75
14.43
18.26
20.39
20.28
17.91
13.93
9.43
5.67
3.70
4.12
6.97
11.87
18.17
25.15
32.17
38.81
44.92
50.58
56.06
61.63
67.46
73.35
78.67
82.19
82.27
77.21
65.91
48.48
26.54
2.96
-18.94
-36.43
-48.14
-54.28
-56.24
-55.80
-54.61
-53.95
-54.90
-58.50
-65.53
-76.17
-89.57
-103.90
-116.82
-126.25
-131.04
-131.21
-127.63
-121.51
-113.95
-105.75
-97.43
-89.41
-82.06
-75.67
-70.35
-66.06
-62.57
-59.61
-56.86
-54.00
-50.80
-47.12
-43.02
-38.87
-35.23
-32.83
-32.33
-34.10
-37.97
-43.17
-48.39
-52.01
-52.48
-48.74
-40.48
-28.20
-12.98
3.80
20.83
37.15
52.23
65.94
78.34
89.51
99.47
108.20
115.70
122.13
127.79
133.16
138.68
144.70
151.30
158.19
164.84
170.61
175.06
178.04
179.66
180.08
179.40
177.44
173.87
168.18
159.77
147.89
131.73
110.49
83.64
51.30
14.45
-24.96
-64.28
-100.69
-131.67
-155.61
-171.93
-181.18
-184.64
-183.99
-180.81
-176.35
-171.49
-166.95
-163.36
-161.29
-160.92
-161.77
-162.60
-161.73
-157.51
-148.92
-135.84
-119.12
-100.19
-80.64
-61.75
-44.24
-28.35
-13.96
-0.89
10.88
21.15
29.57
35.85
39.97
42.30
43.48
44.23
45.12
46.39
47.96
49.60
51.03
52.07
52.64
52.70
52.27
51.36
50.00
48.19
45.99
43.41
40.53
37.49
34.45
31.54
28.85
26.32
23.77
20.96
17.68
13.82
9.46
4.83
0.30
-3.78
-7.20
-10.00
-12.44
-14.94
-17.98
-21.94
-27.07
-33.34
-40.40
-47.46
-53.40
-56.97
-57.18
-53.66
-46.81
-37.69
-27.61
-17.73
-8.67
-0.45
7.33
15.16
23.27
31.52
39.41
46.25
51.49
54.82
56.38
56.57
55.94
54.98
54.06
53.33
52.87
52.72
52.88
53.24
53.57
53.52
52.73
50.96
48.20
44.74
41.05
37.60
34.63
32.11
29.75
27.19
24.24
20.93
17.55
14.46
11.90
9.86
8.08
6.18
3.84
0.88
-2.57
-6.25
-9.87
-13.28
-16.55
-19.98
-24.01
-29.07
-35.40
-42.91
-51.07
-58.87
-64.99
-68.11
-67.25
-62.12
-53.21
-41.64
-28.86
-16.24
-4.76
5.11
13.37
20.27
26.10
31.02
35.07
38.22
40.45
41.93
42.91
43.73
44.58
45.46
46.22
46.70
46.81
46.66
46.48
46.48
46.66
46.82
46.61
45.71
44.05
41.83
39.48
37.48
36.10
35.31
34.81
34.15
32.96
31.18
28.98
26.74
24.80
23.30
22.16
21.13
19.94
18.46
16.72
14.84
12.92
10.95
8.77
6.19
3.06
-0.70
-5.09
-10.16
-15.96
-22.42
-29.13
-35.26
-39.60
-40.91
-38.39
-32.02
-22.62
-11.57
-0.42
9.68
18.15
24.96
30.42
34.83
38.38
41.06
42.86
43.77
43.95
43.63
42.99
42.06
40.80
39.13
37.08
34.86
32.82
31.25
30.31
29.87
29.66
29.28
28.40
26.82
24.46
21.45
18.02
14.51
11.26
8.53
6.39
4.66
2.98
0.90
-1.82
-5.16
-8.83
-12.35
-15.38
-17.78
-19.76
-21.68
-23.89
-26.53
-29.48
-32.44
-35.11
-37.33
-39.17
-40.90
-42.89
-45.45
-48.76
-52.82
-57.35
-61.81
-65.37
-67.04
-65.95
-61.62
-54.19
-44.43
-33.53
-22.74
-13.01
-4.84
1.72
6.87
10.83
13.72
15.59
16.42
16.24
15.19
13.52
11.54
9.57
7.92
6.74
6.11
5.95
6.16
6.59
7.06
7.47
7.65
7.52
6.97
5.95
4.49
2.66
0.60
-1.56
-3.65
-5.53
-7.13
-8.45
-9.59
-10.70
-11.92
-13.30
-14.83
-16.43
-18.00
-19.54
-21.10
-22.76
-24.66
-26.83
-29.23
-31.73
-34.11
-36.20
-37.88
-39.19
-40.25
-41.34
-42.78
-44.93
-48.05
-52.23
-57.16
-62.11
-65.99
-67.61
-66.03
-60.97
-52.90
-42.98
-32.65
-23.20
-15.40
-9.49
-5.25
-2.32
-0.34
0.93
1.65
1.95
1.97
1.87
1.79
1.82
1.97
2.25
2.68
3.25
3.99
4.87
5.88
6.95
8.03
9.07
10.04
10.95
11.83
12.72
13.70
14.95
16.65
18.97
21.94
25.32
28.61
31.21
32.57
32.44
30.94
28.48
25.63
22.93
20.69
19.00
17.71
16.53
15.19
13.47
11.31
8.73
5.85
2.80
-0.37
-3.70
-7.31
-11.45
-16.38
-22.28
-29.17
-36.66
-43.99
-50.09
-53.86
-54.53
-51.93
-46.53
-39.27
-31.17
-23.01
-15.15
-7.61
-0.33
6.68
13.14
18.68
22.99
26.00
27.85
28.84
29.20
29.07
28.49
27.57
26.52
25.69
25.46
26.05
27.43
29.21
30.79
31.52
30.92
28.93
25.86
22.34
19.02
16.32
14.32
12.70
11.05
9.04
6.55
3.74
0.86
-1.89
-4.43
-6.87
-9.41
-12.27
-15.60
-19.41
-23.53
-27.73
-31.74
-35.43
-38.85
-42.32
-46.36
-51.51
-58.18
-66.34
-75.46
-84.44
-91.87
-96.42
-97.29
-94.45
-88.71
-81.36
-73.76
-66.94
-61.36
-57.02
-53.66
-51.04
-48.99
-47.52
-46.56
-45.95
-45.27
-44.01
-41.66
-37.82
-32.29
-24.94
-15.62
-4.04
10.08
26.99
46.69
68.73
92.10
115.28
136.21
152.63
162.45
164.28
158.10
145.54
129.72
114.60
103.98
100.53
105.10
116.72
133.17
151.87
170.66
188.07
202.99
213.96
218.77
214.57
198.83
170.51
130.96
83.83
33.89
-14.38
-58.16
-96.70
-130.72
-161.40
-189.30
-213.90
-233.60
-246.27
-249.89
-243.35
-227.09
-203.31
-175.64
-148.42
-125.44
-109.07
-99.73
-96.16
-96.26
-97.87
-99.31
-99.42
-97.39
-92.61
-84.75
-73.98
-61.03
-47.19
-33.77
-21.75
-11.53
-2.87
4.87
12.41
20.32
28.80
37.64
46.24
53.80
59.55
63.15
64.71
64.87
64.38
63.86
63.66
63.83
64.42
65.52
67.28
69.68
72.41
74.82
76.05
75.31
71.97
65.56
55.66
41.93
24.24
3.07
-20.24
-43.54
-64.23
-79.89
-88.84
-90.60
-85.86
-76.18
-63.52
-49.75
-36.49
-24.88
-15.73
-9.45
-6.04
-5.00
-5.34
-5.82
-5.19
-2.57
2.51
10.00
19.63
30.98
43.53
56.62
69.31
80.48
88.99
93.96
94.97
92.15
85.98
77.22
66.77
55.67
45.02
35.75
28.39
22.78
18.12
13.20
6.83
-1.72
-12.61
-25.46
-39.65
-54.39
-68.72
-81.48
-91.25
-96.67
-96.80
-91.51
-81.60
-68.58
-54.19
-39.89
-26.54
-14.45
-3.59
6.11
14.57
21.58
26.98
30.87
33.56
35.46
36.77
37.33
36.67
34.21
29.70
23.38
16.01
8.66
2.36
-2.12
-4.36
-4.28
-2.04
1.98
7.31
13.41
19.87
26.44
33.04
39.64
46.12
52.09
56.94
59.85
60.04
56.98
50.65
41.68
31.39
21.66
14.61
12.03
14.96
23.27
35.78
50.65
65.98
80.38
93.02
103.49
111.21
115.11
113.71
105.60
90.24
68.43
42.35
14.99
-10.68
-32.42
-49.00
-60.05
-65.68
-66.23
-62.28
-54.73
-44.95
-34.67
-25.62
-19.05
-15.54
-14.90
-16.41
-19.20
-22.59
-26.29
-30.36
-35.09
-40.69
-47.01
-53.34
-58.53
-61.19
-60.17
-54.90
-45.65
-33.49
-19.98
-6.76
4.84
14.07
20.82
25.41
28.30
29.87
30.23
29.38
27.36
24.54
21.57
19.22
18.08
18.22
19.20
20.16
20.25
18.84
15.76
11.24
5.75
-0.21
-6.20
-11.91
-17.13
-21.70
-25.51
-28.48
-30.42
-30.96
-29.52
-25.39
-17.99
-7.21
6.41
21.72
37.25
51.69
64.20
74.53
82.84
89.40
94.27
97.17
97.65
95.35
90.28
82.87
73.93
64.36
54.89
45.91
37.57
29.89
22.82
16.26
9.97
3.53
-3.62
-11.95
-21.57
-32.18
-43.16
-53.81
-63.76
-72.97
-81.73
-90.23
-98.33
-105.37
-110.30
-112.02
-109.79
-103.46
-93.52
-80.81
-66.31
-50.83
-35.07
-19.75
-5.71
6.07
14.63
19.34
20.16
17.74
13.28
8.36
4.59
3.28
5.28
10.81
19.60
31.03
44.30
58.54
72.57
84.89
93.65
97.04
93.82
83.93
68.71
50.65
32.77
17.82
7.70
3.25
4.39
10.33
19.77
31.11
42.50
52.16
58.59
60.92
59.08
53.69
45.87
36.85
27.59
18.59
9.89
1.18
-7.94
-17.69
-27.92
-38.02
-47.06
-54.04
-58.29
-59.87
-59.69
-59.29
-60.46
-64.63
-72.37
-83.26
-95.88
-108.19
-117.90
-122.87
-121.47
-112.85
-97.18
-75.71
-50.60
-24.56
-0.31
19.92
34.65
43.27
45.95
43.54
37.52
29.86
22.80
18.33
17.71
21.03
27.33
35.13
43.20
51.05
58.87
66.93
74.80
81.07
83.60
80.46
70.86
55.69
37.47
19.46
4.71
-4.76
-8.33
-6.54
-0.74
7.48
16.65
25.51
33.08
38.59
41.46
41.40
38.46
33.08
25.94
17.75
9.05
0.06
-9.17
-18.63
-28.09
-36.97
-44.41
-49.44
-51.35
-50.03
-46.25
-41.70
-38.54
-38.90
-44.05
-53.84
-66.70
-79.96
-90.68
-96.45
-96.02
-89.32
-77.34
-61.61
-43.78
-25.40
-7.74
8.08
21.19
30.92
37.02
39.71
39.72
38.10
35.87
33.71
31.84
30.09
28.15
26.01
23.99
22.72
22.93
25.18
29.71
36.32
44.31
52.41
58.95
62.17
60.83
54.73
44.92
33.39
22.46
13.98
8.75
6.51
6.24
6.72
7.02
6.65
5.60
4.13
2.66
1.59
1.13
1.21
1.43
1.15
-0.31
-3.39
-8.03
-13.62
-19.20
-23.88
-27.24
-29.62
-32.06
-35.85
-42.04
-50.95
-62.00
-73.86
-84.75
-92.94
-97.11
-96.64
-91.66
-82.93
-71.50
-58.37
-44.27
-29.70
-15.13
-1.32
10.64
19.54
24.63
26.02
24.84
22.78
21.50
21.92
24.06
27.24
30.54
33.13
34.52
34.71
34.34
34.82
38.02
45.61
57.95
73.42
88.52
99.03
101.80
96.15
84.27
70.17
57.97
50.31
47.70
48.87
51.80
54.67
56.35
56.27
54.17
49.88
43.16
33.86
22.18
8.76
-5.33
-18.90
-30.97
-41.16
-49.76
-57.54
-65.19
-72.90
-80.26
-86.59
-91.45
-94.99
-97.91
-100.93
-104.28
-107.46
-109.48
-109.48
-107.12
-102.62
-96.38
-88.47
-78.51
-65.95
-50.69
-33.55
-16.28
-1.00
10.54
17.65
20.79
21.36
21.07
21.40
23.22
26.76
31.79
37.81
44.35
50.96
57.23
62.79
67.31
70.59
72.43
72.64
70.88
66.72
59.65
49.50
36.65
22.24
8.14
-3.35
-9.96
-10.06
-3.15
9.70
25.94
42.00
54.26
60.02
58.18
49.34
35.29
18.27
0.38
-16.60
-31.25
-42.43
-49.36
-51.88
-50.53
-46.46
-41.06
-35.51
-30.50
-26.28
-22.84
-20.17
-18.41
-17.87
-18.98
-22.08
-27.25
-34.11
-41.66
-48.45
-52.94
-54.00
-51.42
-45.93
-38.90
-31.66
-25.08
-19.36
-14.41
-10.25
-7.38
-6.61
-8.69
-13.71
-20.87
-28.65
-35.36
-39.82
-41.64
-41.22
-39.30
-36.42
-32.78
-28.16
-22.35
-15.51
-8.36
-2.02
2.36
4.12
3.41
1.19
-0.94
-1.22
1.88
9.30
21.20
36.97
55.29
74.34
92.19
107.10
117.75
123.43
123.85
119.04
109.18
94.66
76.23
55.09
32.87
11.41
-7.75
-23.64
-36.11
-45.72
-53.46
-60.36
-67.18
-74.28
-81.60
-88.80
-95.37
-100.66
-103.92
-104.19
-100.37
-91.42
-76.80
-56.79
-32.79
-7.16
17.23
37.73
52.49
60.82
63.23
61.07
56.05
49.80
43.47
37.58
32.01
26.25
19.64
11.67
2.31
-7.92
-17.93
-26.44
-32.35
-35.22
-35.54
-34.54
-33.76
-34.53
-37.47
-42.49
-48.95
-55.99
-62.71
-68.15
-71.20
-70.59
-65.16
-54.31
-38.35
-18.69
2.57
23.00
40.45
53.35
60.93
63.19
60.79
55.00
47.50
40.02
34.04
30.52
29.76
31.39
34.59
38.26
41.32
42.97
42.99
41.71
39.84
37.87
35.62
32.06
25.64
15.08
0.19
-17.80
-36.43
-52.78
-64.30
-69.34
-67.36
-58.78
-44.79
-27.06
-7.67
11.19
27.49
39.84
47.69
51.43
52.19
51.44
50.50
50.06
50.01
49.52
47.55
43.37
37.01
29.24
21.16
13.61
6.61
-0.64
-9.41
-20.86
-35.59
-53.38
-73.16
-92.98
-110.07
-121.22
-123.52
-115.39
-97.42
-72.57
-45.36
-20.47
-1.36
10.60
15.90
16.25
13.61
9.72
5.93
3.37
3.01
5.41
10.51
17.53
25.14
31.85
36.50
38.50
37.93
35.40
31.71
27.57
23.32
18.84
13.76
7.76
1.02
-5.60
-10.68
-12.70
-10.75
-4.92
3.62
13.15
22.03
29.30
34.58
37.79
38.64
36.43
30.41
20.37
7.13
-7.45
-21.08
-31.75
-38.30
-40.47
-38.55
-32.98
-24.24
-12.98
-0.27
12.44
23.62
32.16
37.62
40.18
40.25
38.09
33.87
27.88
21.00
14.83
11.23
11.75
16.88
25.84
36.80
47.40
55.37
58.98
57.23
50.11
38.67
24.96
11.75
1.72
-3.46
-3.79
-1.03
1.92
2.18
-2.06
-10.99
-23.20
-36.43
-48.27
-56.77
-60.80
-60.00
-54.83
-46.53
-37.04
-28.61
-23.36
-22.58
-26.19
-32.67
-39.49
-43.88
-43.70
-38.13
-27.80
-14.55
-0.82
11.06
19.55
24.25
25.93
26.02
25.90
26.23
26.64
25.94
22.87
16.80
8.21
-1.49
-10.56
-17.64
-22.23
-24.73
-26.06
-27.22
-28.99
-31.82
-35.87
-41.00
-46.77
-52.42
-56.96
-59.44
-59.24
-56.30
-51.11
-44.50
-37.38
-30.52
-24.42
-19.37
-15.42
-12.46
-10.08
-7.70
-4.68
-0.54
4.87
11.43
19.05
28.00
38.97
52.71
69.50
88.65
108.40
126.33
140.11
148.24
150.31
146.98
139.48
129.25
117.68
106.06
95.60
87.32
81.91
79.49
79.58
81.17
82.99
83.70
82.17
77.64
69.91
59.37
46.89
33.60
20.58
8.59
-2.05
-11.28
-19.16
-25.68
-30.77
-34.44
-36.88
-38.44
-39.46
-40.09
-40.32
-40.17
-40.09
-41.09
-44.33
-50.25
-57.70
-63.75
-64.38
-56.04
-37.28
-9.69
22.54
53.94
79.56
96.28
103.29
101.64
93.47
81.18
67.10
53.37
41.83
33.75
29.28
27.29
25.55
21.63
13.86
2.08
-12.44
-27.79
-42.36
-55.52
-67.41
-78.35
-88.13
-95.78
-99.88
-99.11
-92.82
-81.20
-65.21
-46.39
-26.68
-8.10
7.46
18.74
25.31
27.62
26.75
23.98
20.60
17.57
15.67
15.19
15.94
17.14
17.61
16.19
