1513658264.00
64.000000
-0.00
-0.00
-0.00
-0.00
-0.00
-0.00
-0.00
-0.00
-0.00
-0.00
0.00
0.01
0.01
-0.00
-0.03
-0.05
-0.05
0.00
0.13
0.36
0.66
1.01
1.37
1.72
2.06
2.40
2.79
3.24
3.80
4.42
5.06
5.66
6.20
6.68
7.15
7.68
8.31
9.14
10.09
11.04
11.88
12.56
13.14
13.76
14.65
15.96
17.92
20.32
22.91
25.38
27.57
29.56
31.67
34.33
37.85
42.60
48.20
54.10
59.72
64.70
69.13
73.52
78.62
84.93
92.98
102.22
111.81
120.83
128.72
135.55
141.97
149.36
156.40
165.33
176.66
190.42
205.37
218.60
225.87
222.66
205.68
174.06
130.08
77.39
20.14
-38.55
-97.06
-154.92
-211.96
-267.64
-321.07
-371.00
-416.90
-458.48
-495.39
-526.64
-550.41
-564.37
-566.26
-554.91
-530.41
-494.66
-450.49
-400.94
-348.51
-294.79
-240.67
-186.69
-133.66
-82.75
-35.64
5.97
40.67
67.58
86.58
98.69
106.26
112.79
122.18
137.32
158.85
184.68
210.63
232.07
245.71
250.63
248.08
240.39
229.71
217.29
203.59
188.79
173.36
158.10
143.89
131.20
119.95
109.55
99.26
88.59
77.55
66.60
56.44
47.63
40.38
34.54
29.54
24.74
19.86
14.97
10.49
6.86
4.35
2.92
2.23
1.84
1.38
0.69
-0.26
-1.35
-2.51
-3.65
-4.71
-5.58
-6.15
-6.30
-6.01
-5.41
-4.68
-4.00
-3.44
-2.93
-2.40
-1.85
-1.40
-1.20
-1.26
-1.42
-1.43
-1.13
-0.57
-0.07
0.01
-0.55
-1.65
-2.90
-3.85
-4.19
-3.95
-3.42
-2.96
-2.81
-2.97
-3.25
-3.40
-3.32
-3.08
-2.86
-2.87
-3.17
-3.61
-3.92
-3.85
-3.32
-2.46
-1.50
-0.68
-0.09
0.30
0.57
0.76
0.84
0.75
0.48
0.11
-0.25
-0.41
-0.33
0.00
0.47
1.00
1.53
2.02
2.48
2.92
3.32
3.67
3.98
4.26
4.53
4.82
5.13
5.43
5.69
5.83
5.73
5.31
4.53
3.46
2.25
1.00
-0.19
-1.28
-2.30
-3.25
-4.13
-4.89
-5.49
-5.87
-6.00
-5.81
-5.33
-4.63
-3.89
-3.31
-3.11
-3.40
-4.22
-5.49
-7.07
-8.89
-10.90
-13.08
-15.24
-17.10
-18.36
-18.84
-18.58
-17.82
-16.96
-16.36
-16.23
-16.46
-16.74
-16.68
-15.85
-13.93
-10.73
-6.48
-1.81
2.38
5.44
6.93
6.88
5.84
4.73
4.44
5.32
6.98
8.52
9.31
8.79
6.74
3.53
0.02
-2.61
-3.57
-2.72
-0.55
2.65
5.77
7.16
5.47
0.28
-6.37
-10.18
-5.79
11.01
41.87
83.24
127.13
164.10
186.79
191.93
180.19
154.55
113.89
62.63
9.21
-37.46
-71.75
-92.26
-100.62
-100.16
-94.71
-87.51
-79.94
-72.81
-66.78
-62.16
-58.67
-55.69
-52.74
-49.77
-47.02
-44.23
-41.40
-38.79
-36.60
-34.76
-33.07
-31.52
-30.34
-29.81
-29.64
-29.49
-29.25
-28.92
-28.35
-27.43
-26.10
-24.56
-23.47
-23.76
-26.48
-31.85
-38.26
-41.75
-37.38
-21.54
5.87
40.66
75.77
103.83
120.29
123.38
114.59
97.07
74.27
49.15
24.41
2.94
-12.32
-19.40
-18.64
-12.81
-6.18
-2.34
-2.92
-7.04
-12.04
-14.94
-13.88
-8.91
-1.51
6.12
12.21
15.74
16.54
15.03
11.99
8.17
4.09
0.15
-3.39
-5.83
-6.45
-4.71
-0.74
4.38
8.47
8.72
3.26
-7.88
-21.57
-33.43
-39.53
-37.99
-29.33
-16.22
-2.44
8.64
14.46
14.36
7.96
-4.82
-23.16
-43.93
-62.24
-72.85
-71.84
-58.39
-31.66
5.04
45.47
79.25
98.21
100.60
90.70
79.23
69.92
64.63
63.66
66.47
69.90
72.05
71.36
66.51
56.49
40.20
17.96
-9.40
-40.13
-71.42
-98.97
-118.72
-128.47
-128.62
-122.15
-112.17
-101.31
-90.87
-80.87
-70.26
-58.30
-45.24
-32.23
-20.94
-12.17
-6.07
-2.27
-0.26
0.63
0.82
0.44
-0.51
-2.05
-3.82
-5.33
-6.22
-6.48
-6.27
-5.95
-5.95
-6.51
-7.64
-9.05
-10.28
-10.95
-10.77
-9.64
-7.53
-4.57
-0.94
3.07
7.09
10.80
13.97
16.56
18.68
20.55
22.33
24.03
25.47
26.32
26.26
25.08
22.85
19.89
16.69
13.84
11.79
10.78
10.76
11.43
12.28
12.82
12.67
11.64
9.80
7.40
4.82
2.54
1.02
0.61
1.48
3.53
6.43
9.74
13.00
15.89
18.25
20.02
21.15
21.65
21.56
21.07
20.45
20.07
20.17
20.83
21.80
22.59
22.59
21.25
18.30
13.80
8.10
1.79
-4.55
-10.44
-15.59
-19.82
-23.02
-25.14
-26.19
-26.23
-25.37
-23.72
-21.30
-18.12
-14.27
-9.97
-5.60
-1.57
1.84
4.56
6.72
8.47
9.86
10.76
10.95
10.36
9.11
7.59
6.22
5.31
4.87
4.65
4.28
3.48
2.18
0.52
-1.22
-2.81
-4.13
-5.10
-5.64
-5.63
-4.95
-3.54
-1.56
0.68
2.79
4.44
5.49
5.97
6.02
5.73
5.12
4.12
2.64
0.71
-1.49
-3.59
-5.23
-6.12
-6.24
-5.88
-5.53
-5.74
-6.85
-8.87
-11.45
-13.91
-15.41
-15.23
-12.99
-8.86
-3.57
1.77
6.00
8.32
8.63
7.69
7.01
8.40
13.39
22.55
35.00
48.38
59.46
65.22
63.87
55.51
41.90
25.69
9.51
-4.62
-15.37
-21.91
-23.82
-21.26
-15.29
-7.93
-1.71
1.13
-0.42
-5.91
-13.67
-21.59
-27.90
-31.63
-32.56
-30.98
-27.33
-22.04
-15.51
-8.14
-0.44
7.01
13.61
18.88
22.56
24.65
25.41
25.25
24.63
24.00
23.72
24.16
25.47
27.56
29.91
31.63
31.79
29.75
25.55
19.93
14.05
9.05
5.53
3.49
2.43
1.73
0.93
-0.12
-1.33
-2.58
-3.78
-4.88
-5.78
-6.33
-6.28
-5.43
-3.76
-1.50
0.86
2.76
3.72
3.57
2.44
0.70
-1.14
-2.70
-3.76
-4.27
-4.39
-4.29
-4.16
-4.15
-4.31
-4.64
-5.09
-5.60
-6.16
-6.83
-7.71
-8.91
-10.45
-12.24
-14.03
-15.49
-16.32
-16.31
-15.48
-14.02
-12.26
-10.50
-8.95
-7.61
-6.39
-5.18
-3.96
-2.88
-2.18
-2.09
-2.67
-3.78
-5.09
-6.21
-6.82
-6.81
-6.29
-5.54
-4.87
-4.55
-4.70
-5.29
-6.20
-7.28
-8.47
-9.73
-11.00
-12.18
-13.05
-13.34
-12.84
-11.49
-9.43
-6.95
-4.35
-1.86
0.43
2.51
4.35
5.85
6.83
7.14
6.74
5.75
4.43
3.09
2.00
1.26
0.83
0.54
0.25
-0.15
-0.63
-1.10
-1.52
-1.91
-2.36
-2.90
-3.47
-3.83
-3.67
-2.76
-1.11
1.04
3.31
5.31
6.79
7.72
8.23
8.49
8.65
8.75
8.74
8.49
7.87
6.79
5.28
3.50
1.70
0.16
-0.92
-1.53
-1.84
-2.11
-2.62
-3.49
-4.68
-5.98
-7.10
-7.76
-7.80
-7.23
-6.20
-4.99
-3.86
-2.92
-2.07
-1.01
0.75
3.58
7.63
12.53
17.42
21.03
22.06
19.65
13.78
5.44
-3.60
-11.24
-15.73
-16.21
-12.87
-6.87
0.10
6.37
10.78
12.89
13.04
12.09
11.01
10.48
10.66
11.18
11.37
10.63
8.72
5.85
2.47
-0.91
-3.98
-6.66
-8.98
-10.88
-12.19
-12.68
-12.23
-11.01
-9.43
-8.03
-7.21
-7.01
-7.14
-7.12
-6.49
-5.06
-2.90
-0.34
2.22
4.46
6.22
7.48
8.31
8.83
9.18
9.48
9.85
10.39
11.18
12.22
13.44
14.76
16.06
17.26
18.27
18.99
19.20
18.67
17.18
14.66
11.32
7.58
3.97
0.94
-1.32
-2.90
-4.10
-5.24
-6.51
-7.93
-9.41
-10.86
-12.19
-13.38
-14.37
-15.06
-15.25
-14.80
-13.62
-11.76
-9.43
-6.91
-4.50
-2.44
-0.86
0.19
0.77
0.96
0.87
0.59
0.22
-0.12
-0.31
-0.20
0.28
1.12
2.18
3.32
4.36
5.21
5.82
6.17
6.26
6.10
5.76
5.44
5.42
5.97
7.21
9.02
11.09
12.98
14.29
14.84
14.67
13.99
13.06
12.07
11.12
10.18
9.23
8.27
7.35
6.56
5.98
5.69
5.66
5.82
6.06
6.26
6.26
5.92
5.15
3.88
2.23
0.39
-1.33
-2.64
-3.40
-3.62
-3.44
-3.10
-2.78
-2.62
-2.66
-2.93
-3.44
-4.21
-5.21
-6.33
-7.46
-8.50
-9.41
-10.19
-10.91
-11.60
-12.29
-12.94
-13.48
-13.83
-13.87
-13.51
-12.73
-11.62
-10.33
-9.03
-7.79
-6.58
-5.25
-3.73
-2.01
-0.26
1.25
2.34
2.92
3.06
2.90
2.56
2.12
1.63
1.13
0.71
0.43
0.34
0.40
0.47
0.44
0.21
-0.20
-0.73
-1.29
-1.88
-2.53
-3.31
-4.21
-5.12
-5.84
-6.18
-6.03
-5.43
-4.54
-3.56
-2.62
-1.80
-1.08
-0.46
0.07
0.41
0.48
0.21
-0.40
-1.26
-2.21
-3.11
-3.78
-4.15
-4.20
-3.95
-3.50
-2.95
-2.42
-2.01
-1.82
-1.92
-2.28
-2.81
-3.32
-3.55
-3.31
-2.51
-1.23
0.31
1.81
3.03
3.83
4.18
4.13
3.76
3.18
2.50
1.81
1.23
0.83
0.61
0.56
0.63
0.74
0.88
1.05
1.26
1.53
1.89
2.30
2.69
2.94
2.95
2.66
2.13
1.53
1.12
1.11
1.61
2.58
3.87
5.23
6.41
7.23
7.54
7.27
6.46
5.20
3.70
2.17
0.77
-0.46
-1.60
-2.79
-4.12
-5.56
-6.95
-8.09
-8.81
-9.05
-8.91
-8.59
-8.31
-8.27
-8.53
-9.06
-9.70
-10.23
-10.41
-10.03
-9.03
-7.49
-5.57
-3.56
-1.74
-0.32
0.56
0.92
0.90
0.75
0.69
0.81
1.08
1.34
1.49
1.51
1.48
1.55
1.74
1.98
2.09
1.93
1.48
0.90
0.37
0.04
-0.08
-0.12
-0.24
-0.52
-0.91
-1.27
-1.43
-1.36
-1.12
-0.83
-0.56
-0.26
0.29
1.26
2.67
4.33
5.86
6.88
7.24
7.02
6.53
6.07
5.85
5.89
6.10
6.41
6.78
7.21
7.70
8.20
8.62
8.97
9.29
9.64
9.97
10.02
9.33
7.39
3.88
-1.15
-7.10
-13.05
-17.98
-21.17
-22.41
-22.12
-21.12
-20.28
-20.13
-20.59
-21.00
-20.52
-18.50
-14.90
-10.31
-5.78
-2.39
-0.97
-2.01
-5.61
-11.44
-18.62
-25.51
-29.91
-29.58
-23.14
-10.82
5.35
22.11
36.15
45.24
48.83
47.79
43.63
37.74
30.98
23.79
16.55
9.94
4.85
2.20
2.41
5.22
9.61
14.14
17.37
18.28
16.53
12.45
6.85
0.70
-5.13
-10.08
-13.83
-16.15
-16.73
-15.25
-11.64
-6.31
-0.16
5.64
10.01
12.29
12.33
10.43
7.06
2.80
-1.77
-6.07
-9.52
-11.64
-12.14
-10.99
-8.39
-4.67
-0.16
4.79
9.80
14.46
18.41
21.53
23.95
26.05
28.30
30.99
34.07
37.13
39.47
40.34
39.18
35.85
30.64
24.19
17.27
10.63
4.75
-0.16
-4.36
-8.45
-13.25
-19.39
-26.94
-35.24
-42.96
-48.66
-51.42
-51.27
-49.26
-47.00
-45.94
-46.79
-49.30
-52.53
-55.24
-56.35
-55.28
-52.02
-47.09
-41.33
-35.69
-30.84
-26.99
-23.84
-20.77
-17.23
-13.09
-8.73
-4.83
-1.99
-0.26
0.93
2.51
5.23
9.23
13.98
18.59
22.35
25.07
27.07
28.75
30.19
30.96
30.39
28.04
24.10
19.29
14.37
9.64
4.83
-0.43
-5.84
-10.08
-11.22
-7.80
0.08
10.44
20.03
25.83
26.38
22.37
16.04
10.03
6.12
4.72
5.17
6.50
8.17
10.20
12.97
16.67
20.86
24.55
26.62
26.41
24.12
20.84
18.10
17.22
18.67
21.97
25.88
29.07
30.65
30.56
29.43
28.20
27.74
28.51
30.48
33.31
36.51
39.70
42.68
45.44
48.03
50.39
52.26
53.29
53.15
51.72
49.08
45.47
41.11
36.14
30.63
24.63
18.12
10.97
2.90
-6.47
-17.34
-29.45
-41.89
-53.27
-62.22
-67.89
-70.24
-69.92
-68.00
-65.56
-63.54
-62.63
-63.27
-65.43
-68.54
-71.51
-73.01
-72.05
-68.39
-62.74
-56.36
-50.48
-45.77
-42.25
-39.58
-37.60
-36.50
-36.74
-38.57
-41.72
-45.31
-48.23
-49.71
-49.63
-48.52
-47.06
-45.70
-44.38
-42.69
-40.26
-37.02
-33.32
-29.67
-26.46
-23.69
-21.00
-17.88
-13.94
-9.15
-3.81
1.66
6.91
11.82
16.47
21.03
25.47
29.52
32.67
34.36
34.30
32.68
30.15
27.63
25.97
25.62
26.48
27.97
29.33
29.97
29.73
28.94
28.28
28.44
29.89
32.63
36.23
39.97
42.97
44.48
44.02
41.56
37.56
32.90
28.63
25.68
24.50
24.89
26.07
27.06
27.07
25.73
23.06
19.30
14.60
9.02
2.62
-4.35
-11.41
-17.98
-23.65
-28.44
-32.74
-36.87
-40.59
-42.93
-42.45
-38.03
-29.58
-18.39
-6.77
2.70
8.09
8.55
4.31
-3.69
-14.19
-25.69
-36.44
-44.51
-48.20
-46.62
-40.19
-30.55
-20.01
-10.58
-3.34
1.81
5.73
9.39
13.22
17.06
20.42
22.91
24.61
25.96
27.48
29.29
31.02
31.96
31.51
29.55
26.52
23.13
19.98
17.21
14.56
11.63
8.28
4.75
1.55
-0.99
-2.95
-4.90
-7.52
-11.25
-15.96
-20.99
-25.54
-28.93
-30.92
-31.56
-31.09
-29.79
-27.91
-25.81
-23.88
-22.45
-21.56
-20.85
-19.69
-17.43
-13.77
-8.84
-3.16
2.62
7.95
12.48
16.05
18.57
19.92
19.96
18.61
15.91
12.09
7.53
2.75
-1.75
-5.57
-8.51
-10.57
-11.92
-12.78
-13.35
-13.74
-13.96
-13.95
-13.62
-12.90
-11.74
-10.17
-8.26
-6.16
-4.05
-2.13
-0.57
0.48
0.93
0.74
-0.11
-1.61
-3.65
-6.07
-8.50
-10.50
-11.59
-11.46
-10.19
-8.24
-6.39
-5.41
-5.72
-7.24
-9.46
-11.68
-13.23
-13.71
-12.92
-10.80
-7.37
-2.68
3.01
9.27
15.47
21.01
25.38
28.35
29.88
30.04
28.97
26.90
24.09
20.87
17.58
14.42
11.48
8.74
6.18
3.87
1.91
0.45
-0.50
-1.07
-1.48
-1.97
-2.67
-3.58
-4.60
-5.59
-6.40
-6.86
-6.80
-6.11
-4.73
-2.78
-0.50
1.77
3.75
5.21
6.08
6.38
6.19
5.60
4.67
3.48
2.14
0.77
-0.52
-1.66
-2.63
-3.42
-3.98
-4.25
-4.15
-3.69
-3.04
-2.50
-2.40
-2.95
-4.13
-5.65
-7.07
-7.95
-8.02
-7.19
-5.59
-3.46
-1.07
1.27
3.34
4.96
6.10
6.81
7.16
7.26
7.14
6.82
6.30
5.57
4.66
3.58
2.37
1.19
0.27
-0.15
0.09
0.90
1.95
2.77
2.97
2.39
1.14
-0.49
-2.12
-3.41
-4.05
-3.81
-2.57
-0.39
2.38
5.19
7.41
8.59
8.62
7.76
6.48
5.25
4.32
3.72
3.27
2.76
2.06
1.12
0.00
-1.22
-2.52
-3.85
-5.22
-6.56
-7.78
-8.78
-9.46
-9.83
-9.94
-9.94
-9.95
-10.07
-10.25
-10.42
-10.40
-10.05
-9.30
-8.18
-6.80
-5.29
-3.72
-2.09
-0.37
1.43
3.19
4.64
5.49
5.47
4.55
2.88
0.79
-1.36
-3.28
-4.82
-5.90
-6.51
-6.68
-6.53
-6.24
-6.02
-6.04
-6.33
-6.75
-7.10
-7.23
-7.15
-7.03
-7.16
-7.67
-8.53
-9.42
-9.77
-8.90
-6.12
-1.02
6.36
15.40
24.92
33.49
39.90
43.48
44.24
42.77
39.87
36.28
32.51
28.88
25.67
23.13
21.48
20.72
20.61
20.70
20.61
20.21
19.72
19.64
20.44
22.32
25.03
27.86
29.92
30.41
28.94
25.67
21.25
16.53
12.25
8.75
5.95
3.39
0.49
-3.22
-7.98
-13.72
-20.02
-26.22
-31.54
-35.36
-37.44
-38.08
-37.94
-37.76
-37.89
-38.08
-37.64
-35.78
-32.06
-26.63
-20.15
-13.51
-7.47
-2.45
1.45
4.37
6.46
7.89
8.77
9.19
9.24
8.99
8.49
7.75
6.80
5.70
4.54
3.49
2.70
2.26
2.22
2.52
3.11
3.89
4.78
5.59
6.11
6.06
5.24
3.61
1.33
-1.23
-3.68
-5.70
-7.11
-7.90
-8.15
-7.95
-7.33
-6.28
-4.76
-2.86
-0.78
1.11
2.46
3.01
2.76
1.95
0.97
0.22
-0.06
0.22
1.02
2.23
3.78
5.58
7.49
9.31
10.75
11.58
11.64
10.96
9.70
8.16
6.60
5.20
4.01
2.98
1.95
0.84
-0.32
-1.37
-2.04
-2.02
-1.16
0.45
2.43
4.17
4.97
4.30
2.00
-1.62
-5.93
-10.14
-13.69
-16.40
-18.54
-20.65
-23.28
-26.76
-30.96
-35.41
-39.31
-41.89
-42.66
-41.57
-39.07
-35.90
-32.77
-30.01
-27.44
-24.40
-19.93
-13.06
-3.06
10.19
25.96
42.52
57.34
67.68
71.59
68.68
60.53
50.18
41.10
35.88
35.39
38.72
43.81
48.39
50.66
49.55
44.61
35.93
24.18
10.86
-1.69
-10.73
-14.03
-10.85
-2.46
8.17
17.38
22.29
21.77
16.68
9.22
1.86
-3.70
-6.97
-8.45
-9.16
-9.99
-11.36
-13.22
-15.24
-17.07
-18.53
-19.59
-20.37
-20.96
-21.41
-21.77
-22.10
-22.48
-23.02
-23.83
-24.98
-26.44
-28.07
-29.53
-30.41
-30.26
-28.80
-26.07
-22.38
-18.21
-14.01
-10.05
-6.32
-2.67
1.07
4.96
8.86
12.49
15.50
17.66
18.84
19.14
18.84
18.40
18.41
19.46
22.02
26.24
31.87
38.16
43.90
47.60
47.82
43.59
34.76
22.16
7.43
-7.34
-20.13
-29.41
-34.36
-34.93
-31.64
-25.43
-17.41
-8.79
-0.67
6.10
10.97
13.76
14.67
14.09
12.56
10.55
8.38
6.21
4.12
2.14
0.42
-0.80
-1.23
-0.72
0.71
2.73
4.85
6.60
7.64
7.92
7.63
7.07
6.50
6.08
5.88
5.83
5.82
5.69
5.23
4.17
2.32
-0.38
-3.76
-7.42
-10.81
-13.43
-14.99
-15.47
-15.11
-14.27
-13.30
-12.44
-11.79
-11.40
-11.28
-11.45
-11.84
-12.26
-12.46
-12.17
-11.33
-10.17
-9.14
-8.65
-8.84
-9.32
-9.37
-8.11
-4.98
0.11
6.63
13.64
20.00
24.62
26.74
26.07
22.94
18.28
13.35
9.33
6.69
4.93
2.64
-1.84
-9.61
-20.48
-32.81
-44.03
-51.56
-53.71
-50.14
-41.82
-30.46
-17.89
-5.63
5.33
14.45
21.50
26.47
29.54
31.01
31.31
30.81
29.78
28.35
26.58
24.48
22.13
19.69
17.36
15.42
14.08
13.43
13.36
13.56
13.56
12.87
11.08
8.03
3.83
-1.19
-6.60
-12.07
-17.43
-22.57
-27.33
-31.31
-34.01
-35.03
-34.38
-32.66
-30.88
-30.11
-30.94
-33.21
-36.09
-38.35
-38.93
-37.16
-32.92
-26.59
-18.91
-10.90
-3.67
1.75
4.71
5.18
3.69
1.04
-2.14
-5.71
-9.85
-14.57
-19.21
-22.29
-21.91
-16.58
-6.00
8.66
25.12
40.74
53.36
61.60
64.87
63.07
56.53
46.15
33.58
21.07
11.02
5.22
4.20
7.08
11.93
16.55
19.22
19.16
16.68
12.81
8.92
6.16
5.28
6.39
9.10
12.71
16.52
20.04
23.13
25.81
28.14
30.04
31.28
31.65
31.06
29.65
27.67
25.18
22.04
17.89
12.43
5.69
-1.89
-9.65
-16.98
-23.58
-29.42
-34.61
-39.13
-42.81
-45.46
-47.06
-47.85
-48.11
-47.79
-46.33
-42.82
-36.49
-27.34
-16.31
-5.09
4.59
11.50
15.18
15.78
13.76
9.64
4.05
-2.17
-7.98
-12.37
-14.79
-15.36
-14.83
-14.04
-13.46
-12.95
-11.94
-9.94
-6.86
-3.13
0.56
3.59
5.59
6.47
6.23
4.90
2.49
-0.88
-4.90
-9.05
-12.68
-15.20
-16.16
-15.36
-12.90
-9.20
-4.95
-0.98
1.99
3.64
4.16
4.21
4.52
5.54
7.17
8.77
9.52
8.81
6.60
3.42
0.20
-2.16
-3.12
-2.68
-1.30
0.37
1.65
2.10
1.47
-0.22
-2.82
-6.08
-9.63
-13.07
-16.07
-18.38
-19.88
-20.51
-20.20
-18.87
-16.51
-13.30
-9.68
-6.20
-3.34
-1.17
0.59
2.51
5.06
8.26
11.62
14.18
14.83
12.72
7.52
-0.44
-10.10
-19.83
-27.66
-31.77
-30.93
-24.99
-14.99
-2.89
8.95
18.47
24.39
26.40
24.99
21.06
15.58
9.45
3.49
-1.51
-4.80
-5.90
-4.74
-1.79
2.03
5.68
8.39
9.87
10.40
10.62
11.24
12.68
14.99
17.79
20.54
22.64
23.68
23.49
22.19
20.16
17.93
16.04
14.85
14.37
14.20
13.68
12.04
8.69
3.45
-3.35
-10.97
-18.38
-24.53
-28.56
-29.94
-28.54
-24.64
-18.85
-12.06
-5.31
0.37
4.15
5.66
5.16
3.50
1.86
1.30
2.34
4.75
7.78
10.47
12.10
12.41
11.54
9.82
7.54
4.94
2.16
-0.59
-3.07
-5.09
-6.60
-7.72
-8.69
-9.67
-10.69
-11.61
-12.22
-12.45
-12.35
-12.12
-11.93
-11.84
-11.69
-11.21
-10.19
-8.53
-6.37
-4.01
-1.80
0.05
1.59
3.16
5.32
8.62
13.33
19.23
25.52
31.01
34.40
34.71
31.62
25.64
18.07
10.62
4.96
2.22
2.61
5.38
9.06
11.92
12.59
10.41
5.58
-1.05
-8.31
-15.04
-20.34
-23.58
-24.51
-23.24
-20.38
-16.93
-14.13
-13.09
-14.32
-17.55
-21.72
-25.32
-26.97
-25.87
-22.05
-16.34
-9.98
-4.18
0.19
2.81
3.82
3.65
2.75
1.43
-0.24
-2.37
-5.10
-8.44
-12.14
-15.60
-18.07
-18.87
-17.64
-14.59
-10.41
-6.03
-2.28
0.42
2.13
3.24
4.19
5.17
6.06
6.52
6.28
5.35
4.09
3.10
2.96
4.06
6.46
10.04
14.59
19.95
25.90
32.05
37.79
42.40
45.30
46.25
45.40
43.12
39.62
34.74
27.96
18.68
6.68
-7.52
-22.65
-36.90
-48.43
-55.89
-58.75
-57.36
-52.81
-46.59
-40.19
-34.87
-31.40
-29.99
-30.28
-31.41
-32.25
-31.63
-28.79
-23.57
-16.47
-8.45
-0.62
6.13
11.33
14.87
16.89
17.61
17.30
16.25
14.88
13.68
13.13
13.52
14.84
16.76
18.72
20.15
20.59
19.81
17.85
14.92
11.33
7.41
3.46
-0.27
-3.51
-6.03
-7.61
-8.12
-7.52
-5.87
-3.25
0.29
4.76
10.18
16.48
23.31
30.06
35.90
39.95
41.49
40.09
35.73
28.87
20.40
11.61
3.90
-1.49
-3.94
-3.66
-1.73
0.13
0.17
-2.90
-9.60
-19.48
-31.34
-43.47
-54.04
-61.44
-64.66
-63.42
-58.23
-50.24
-40.97
-31.90
-24.08
-17.90
-13.07
-8.98
-4.80
0.21
6.47
13.97
22.30
30.82
38.75
45.24
49.28
50.32
48.44
44.42
39.35
34.25
29.89
26.60
24.42
23.04
22.49
23.13
24.99
27.08
27.42
23.89
15.31
2.27
-13.54
-29.34
-42.37
-51.09
-55.45
-56.31
-54.29
-49.40
-38.81
-23.05
-6.34
6.19
12.11
12.71
10.49
8.01
6.49
6.09
5.94
5.63
5.89
7.59
10.96
15.11
17.86
17.03
12.07
4.49
-2.54
-5.63
-3.25
3.28
10.98
15.87
15.38
10.09
3.45
0.32
4.98
18.91
39.75
62.73
80.66
87.16
79.34
58.56
29.41
-2.13
-30.95
-54.46
-72.05
-87.01
-104.03
-126.56
-150.09
-166.55
-167.47
-149.47
-123.51
-94.27
-64.72
-36.38
-7.22
22.73
51.65
76.07
91.71
95.32
87.52
70.78
49.77
30.29
16.92
11.34
12.24
16.70
21.75
26.36
29.27
29.55
26.70
20.20
9.64
-4.92
-21.87
-37.92
-48.28
-49.21
-38.37
-15.20
18.76
59.71
99.29
128.98
145.05
149.28
144.24
130.99
109.44
79.96
44.75
7.94
-24.80
-49.97
-65.03
-69.51
-64.58
-52.45
-36.05
-18.54
-2.88
9.18
17.12
21.35
22.16
20.04
15.60
9.52
2.42
-5.08
-12.14
-18.03
-22.34
-25.33
-27.55
-29.41
-31.00
-32.09
-32.30
-31.19
-28.55
-24.52
-19.68
-14.81
-10.57
-7.35
-5.27
-4.16
-3.74
-3.67
-3.72
-3.82
-3.98
-4.21
-4.48
-4.69
-4.71
-4.52
-4.18
-3.89
-3.87
-4.30
-5.23
-6.48
-7.75
-8.66
-8.94
-8.44
-7.20
-5.40
-3.31
-1.27
0.42
1.52
1.88
1.45
0.27
-1.53
-3.78
-6.25
-8.73
-11.03
-13.07
-14.91
-16.67
-18.52
-20.58
-22.84
-25.19
-27.41
-29.27
-30.57
-31.17
-30.93
-29.76
-27.53
-24.16
-19.61
-13.98
-7.57
-0.86
5.58
11.20
15.52
18.24
19.19
18.33
15.72
11.62
6.51
1.20
-3.30
-5.92
-5.91
-3.08
2.07
8.41
14.52
19.07
21.20
20.71
18.05
14.15
10.11
6.92
5.19
5.02
6.04
7.60
9.00
9.71
9.49
8.34
6.43
3.99
1.25
-1.50
-3.93
-5.69
-6.36
-5.55
-2.88
1.91
8.78
17.13
25.63
32.25
34.70
31.16
21.08
5.61
-12.42
-29.25
-41.25
-46.00
-42.94
-33.38
-19.94
-5.68
6.77
15.70
20.53
21.55
19.65
15.94
11.58
7.57
4.72
3.55
4.19
6.38
9.55
13.00
16.12
18.60
20.53
22.32
24.42
27.04
29.94
32.36
33.23
31.58
26.89
19.43
10.22
0.86
-6.97
-11.93
-13.28
-11.07
-6.03
0.59
7.38
13.00
16.43
17.15
15.19
11.03
5.54
-0.26
-5.42
-9.15
-10.88
-10.32
-7.52
-2.86
3.01
9.25
14.94
19.17
21.27
20.90
18.12
13.21
6.71
-0.72
-8.21
-14.87
-20.21
-23.95
-26.11
-26.98
-27.10
-27.07
-27.30
-27.86
-28.58
-29.58
-30.87
-32.31
-33.67
-34.86
-36.08
-37.69
-39.93
-42.84
-46.62
-50.94
-54.93
-57.57
-58.20
-57.03
-55.09
-53.97
-51.96
-48.87
-45.50
-42.99
-41.44
-39.78
-36.65
-31.12
-22.78
-11.80
0.81
14.03
26.92
38.55
48.63
56.47
61.41
63.29
62.22
58.20
51.75
44.06
36.99
32.69
33.02
37.98
47.58
60.48
73.69
83.92
88.58
86.64
78.61
65.93
50.28
33.11
15.21
-3.04
-20.87
-36.97
-49.88
-58.03
-60.63
-58.06
-51.59
-43.10
-34.49
-27.03
-21.31
-17.26
-14.41
-12.25
-10.37
-8.39
-6.35
-4.28
-2.24
-0.32
1.44
3.05
4.40
5.25
5.32
4.30
2.11
-0.98
-4.36
-7.21
-8.78
-8.69
-7.01
-4.17
-0.68
3.07
6.88
10.72
14.54
18.15
21.14
22.99
23.19
21.51
18.06
13.35
8.12
3.18
-0.79
-3.38
-4.52
-4.49
-3.85
-3.23
-3.17
-3.91
-5.33
-6.90
-7.95
-7.89
-6.56
-4.35
-2.08
-0.71
-0.87
-2.55
-4.90
-6.45
-5.65
-1.46
6.08
15.70
25.26
32.45
35.47
33.57
27.01
16.80
4.22
-9.49
-23.10
-35.27
-44.47
-49.10
-47.88
-40.45
-27.64
-11.45
5.41
20.14
30.58
35.58
35.14
30.11
21.85
11.88
1.65
-7.50
-14.37
-17.97
-17.77
-13.88
-7.14
0.92
8.55
14.19
16.85
16.33
13.10
8.11
2.48
-2.65
-6.28
-7.73
-6.72
-3.49
1.22
6.35
10.83
13.91
15.26
15.04
13.70
11.81
9.87
8.26
7.18
6.71
6.79
7.23
7.76
8.05
7.84
6.99
5.62
3.96
2.33
1.00
0.04
-0.61
-1.08
-1.44
-1.67
-1.63
-1.23
-0.45
0.57
1.64
2.59
3.37
4.04
4.67
5.25
5.72
5.91
5.75
5.24
4.51
3.76
3.15
2.81
2.76
3.01
3.53
4.28
5.17
6.08
6.83
7.28
7.38
7.20
6.95
6.93
7.44
8.62
10.44
12.69
15.06
17.28
19.22
20.92
22.42
23.70
24.48
24.24
22.34
18.25
11.79
3.24
-6.61
-16.55
-25.16
-31.16
-33.71
-32.67
-28.76
-23.38
-18.20
-14.71
-13.68
-15.08
-18.14
-21.80
-25.06
-27.34
-28.41
-28.35
-27.30
-25.38
-22.70
-19.50
-16.18
-13.25
-11.20
-10.32
-10.59
-11.72
-13.30
-14.95
-16.40
-17.53
-18.31
-18.69
-18.65
-18.18
-17.33
-16.19
-14.91
-13.61
-12.31
-10.99
-9.50
-7.68
-5.41
-2.66
0.46
3.73
6.86
9.60
11.87
13.74
15.34
16.79
18.00
18.71
18.59
17.41
15.19
12.22
8.99
6.01
3.65
2.06
1.26
1.10
1.45
2.10
2.88
3.53
3.84
3.68
3.05
2.14
1.23
0.64
0.54
0.94
1.71
2.62
3.50
4.24
4.79
5.11
5.14
4.78
3.92
2.55
0.77
-1.23
-3.19
-4.88
-6.12
-6.85
-7.09
-7.00
-6.83
-6.82
-7.16
-7.90
-8.90
-9.89
-10.44
-10.15
-8.73
-6.13
-2.62
1.29
4.99
7.92
9.76
10.45
10.19
9.25
7.95
6.49
5.00
3.54
2.19
0.99
0.01
-0.71
-1.17
-1.44
-1.63
-1.84
-2.13
-2.48
-2.83
-3.18
-3.55
-4.04
-4.66
-5.31
-5.72
-5.51
-4.37
-2.18
0.89
4.41
7.86
10.74
12.72
13.69
13.69
12.97
11.81
10.53
9.33
8.29
7.38
6.49
5.49
4.36
3.12
1.89
0.79
-0.08
-0.65
-0.92
-0.96
-0.93
-1.04
-1.49
-2.36
-3.54
-4.67
-5.31
-5.08
-3.85
-1.81
0.65
3.05
5.06
6.52
7.43
7.86
7.85
7.40
6.53
5.31
3.89
2.49
1.26
0.27
-0.51
-1.20
-1.88
-2.58
-3.23
-3.72
-3.97
-3.98
-3.87
-3.89
-4.28
-5.22
-6.69
-8.47
-10.15
-11.25
-11.41
-10.47
-8.58
-6.09
-3.48
-1.14
0.68
1.90
2.57
2.74
2.48
1.84
0.93
-0.07
-0.99
-1.68
-2.09
-2.31
-2.46
-2.64
-2.85
-3.06
-3.19
-3.24
-3.24
-3.27
-3.44
-3.84
-4.54
-5.57
-6.85
-8.15
-9.13
-9.40
-8.68
-6.88
-4.18
-0.93
2.44
5.56
8.16
10.06
11.12
11.27
10.53
9.05
7.11
5.11
3.39
2.11
1.28
0.70
0.18
-0.43
-1.11
-1.74
-2.21
-2.44
-2.51
-2.55
-2.76
-3.27
-4.15
-5.33
-6.65
-7.86
-8.68
-8.83
-8.14
-6.62
-4.42
-1.83
0.80
3.16
5.01
6.23
6.76
6.64
5.95
4.84
3.50
2.16
1.02
0.18
-0.29
-0.48
-0.50
-0.47
-0.50
-0.62
-0.87
-1.21
-1.64
-2.15
-2.74
-3.42
-4.17
-4.95
-5.68
-6.28
-6.65
-6.69
-6.27
-5.30
-3.73
-1.66
0.70
3.02
5.02
6.51
7.46
7.96
8.13
8.07
7.79
7.28
6.57
5.72
4.87
4.12
3.57
3.19
2.93
2.67
2.34
1.91
1.43
0.97
0.60
0.30
-0.00
-0.44
-1.13
-2.12
-3.36
-4.74
-6.05
-7.05
-7.47
-7.04
-5.65
-3.36
-0.45
2.64
5.45
7.62
8.95
9.43
9.19
8.42
7.37
6.23
5.15
4.21
3.42
2.77
2.22
1.73
1.27
0.80
0.28
-0.31
-0.92
-1.46
-1.87
-2.14
-2.36
-2.67
-3.23
-4.11
-5.26
-6.51
-7.64
-8.39
-8.52
-7.88
-6.43
-4.31
-1.77
0.87
3.32
5.40
6.99
8.07
8.58
8.51
7.88
6.82
5.62
4.56
3.88
3.62
3.65
3.71
3.54
3.03
2.23
1.36
0.66
0.28
0.24
0.39
0.54
0.49
0.12
-0.61
-1.63
-2.76
-3.74
-4.24
-3.94
-2.66
-0.39
2.62
5.97
9.20
11.96
14.07
15.46
16.14
16.15
15.52
14.33
12.77
11.08
9.53
8.26
7.27
6.41
5.54
4.58
3.54
2.55
1.71
1.03
0.43
-0.22
-1.07
-2.20
-3.63
-5.28
-6.96
-8.44
-9.40
-9.58
-8.85
-7.22
-4.90
-2.26
0.34
2.57
4.20
5.16
5.45
5.14
4.34
3.14
1.68
0.11
-1.41
-2.72
-3.77
-4.55
-5.15
-5.67
-6.19
-6.72
-7.23
-7.71
-8.16
-8.69
-9.40
-10.41
-11.75
-13.31
-14.85
-16.08
-16.73
-16.64
-15.77
-14.23
-12.16
-9.72
-7.09
-4.46
-2.02
-0.01
1.41
2.18
2.38
2.20
1.85
1.51
1.26
1.14
1.12
1.15
1.18
1.20
1.16
1.10
1.04
1.02
1.06
1.10
1.09
0.98
0.78
0.61
0.64
1.08
2.07
3.69
5.89
8.53
11.35
14.05
16.26
17.69
18.18
17.71
16.44
14.59
12.45
10.25
8.17
6.32
4.79
3.60
2.73
2.15
1.81
1.59
1.35
0.95
0.27
-0.71
-1.96
-3.36
-4.80
-6.20
-7.43
-8.34
-8.68
-8.17
-6.62
-3.99
-0.50
3.41
7.20
10.41
12.72
14.05
14.48
14.21
13.45
12.34
10.95
9.29
7.33
5.03
2.40
-0.55
-3.68
-6.81
-9.68
-12.01
-13.61
-14.41
-14.52
-14.18
-13.61
-12.99
-12.30
-11.40
-10.06
-8.08
-5.43
-2.22
1.25
4.60
7.49
9.69
11.13
11.90
12.14
11.98
11.59
11.10
10.65
10.39
10.31
10.29
10.03
9.20
7.58
5.14
2.07
-1.33
-4.74
-7.89
-10.58
-12.66
-14.00
-14.52
-14.23
-13.24
-11.69
-9.76
-7.60
-5.33
-3.05
-0.86
1.18
3.07
4.84
6.55
8.16
9.54
10.54
10.98
10.84
10.17
9.13
7.85
6.42
4.88
3.26
1.60
-0.09
-1.80
-3.57
-5.47
-7.59
-9.94
-12.45
-14.96
-17.23
-19.01
-20.06
-20.25
-19.60
-18.30
-16.63
-14.89
-13.34
-12.12
-11.26
-10.72
-10.42
-10.30
-10.29
-10.34
-10.39
-10.41
-10.37
-10.24
-10.04
-9.77
-9.43
-8.97
-8.30
-7.35
-6.03
-4.33
-2.34
-0.26
1.67
3.22
4.33
5.11
5.85
6.91
8.65
11.28
14.87
19.30
24.32
29.48
34.19
37.72
39.35
38.54
35.15
29.45
22.11
14.00
5.94
-1.41
-7.61
-12.44
-15.79
-17.66
-18.18
-17.67
-16.65
-15.74
-15.54
-16.39
-18.26
-20.70
-23.00
-24.43
-24.49
-23.10
-20.56
-17.48
-14.55
-12.35
-11.25
-11.32
-12.39
-14.03
-15.59
-16.28
-15.35
-12.37
-7.41
-1.25
4.86
9.52
11.68
10.94
7.76
3.14
-1.71
-5.78
-8.45
-9.56
-9.25
-7.93
-6.15
-4.41
-3.07
-2.25
-1.82
-1.39
-0.59
0.97
3.41
6.55
10.21
14.20
18.32
22.30
25.76
28.18
29.28
28.96
27.32
24.87
22.10
19.31
16.54
13.63
10.47
7.45
5.04
1.92
-3.10
-10.75
-20.57
-30.92
-38.98
-43.66
-44.39
-41.27
-35.01
-26.58
-17.03
-7.09
2.83
12.40
20.97
27.76
31.83
32.47
29.72
24.34
17.47
10.08
2.75
-4.35
-10.94
-16.50
-20.33
-21.58
-19.68
-14.65
-7.24
1.22
9.08
14.99
18.14
18.40
16.43
13.38
10.51
8.81
8.70
10.11
12.73
16.29
20.72
26.10
32.45
39.47
46.52
52.77
57.50
60.40
61.63
61.62
60.94
59.97
58.95
57.94
57.04
56.46
56.46
57.20
58.61
60.35
61.94
62.90
62.75
60.84
56.15
47.29
32.92
12.54
-12.86
-40.49
-66.45
-86.87
-99.22
-102.98
-99.53
-91.30
-80.71
-69.57
-58.91
-49.31
-41.28
-35.37
-31.97
-31.10
-32.21
-34.31
-36.30
-37.31
-36.91
-35.11
-32.25
-28.81
-25.23
-21.84
-18.83
-16.25
-14.06
-12.22
-10.78
-9.95
-9.99
-11.09
-13.09
-15.43
-17.26
-17.74
-16.41
-13.42
-9.43
-5.37
-2.03
0.17
1.29
1.64
1.63
1.56
1.48
1.36
1.08
0.54
-0.30
-1.42
-2.79
-4.34
-5.97
-7.53
-8.87
-9.88
-10.46
-10.64
-10.43
-9.93
-9.24
-8.51
-7.93
-7.60
-7.49
-7.44
-7.12
-6.26
-4.68
-2.48
0.09
2.69
5.08
7.11
8.79
10.11
11.01
11.39
11.18
10.41
9.27
8.04
7.00
6.28
5.89
5.68
5.46
5.11
4.58
3.89
3.07
2.12
1.00
-0.34
-1.89
-3.53
-5.06
-6.28
-7.11
-7.58
-7.83
-7.96
-7.96
-7.77
-7.34
-6.79
-6.55
-7.25
-9.58
-13.94
-20.33
-28.31
-37.21
-46.31
-55.08
-63.22
-70.56
-77.07
-82.72
-87.47
-91.20
-93.57
-93.96
-91.59
-85.81
-76.49
-64.26
-50.47
-36.74
-24.50
-14.52
-6.81
-0.90
3.89
8.18
12.42
16.94
21.90
27.28
32.79
37.83
41.68
43.75
43.74
41.78
38.34
34.09
29.76
26.09
23.77
23.31
24.92
28.36
32.97
37.79
41.88
44.65
45.94
46.01
45.26
43.98
42.32
40.29
37.99
35.75
33.97
33.02
32.96
33.49
34.03
34.01
33.10
31.32
29.02
26.67
24.69
23.27
22.34
21.64
20.87
19.83
18.50
17.07
15.81
14.95
14.62
14.76
15.20
15.76
16.35
17.05
18.07
19.64
21.89
24.76
27.90
30.76
32.63
32.88
31.12
27.35
22.00
15.88
9.96
5.18
2.16
1.01
1.25
1.91
1.88
0.26
-3.37
-8.82
-15.44
-22.41
-28.99
-34.73
-39.48
-43.32
-46.49
-49.27
-52.03
-55.09
-58.58
-62.15
-64.82
-64.99
-60.95
-51.53
-36.71
-17.90
2.47
21.64
37.47
48.93
56.22
60.23
61.94
61.94
60.41
57.26
52.51
46.43
39.43
32.04
24.74
17.95
12.04
7.28
3.79
1.41
-0.26
-1.75
-3.53
-5.84
-8.63
-11.66
-14.58
-17.14
-19.09
-20.11
-19.75
-17.45
-12.74
-5.45
4.14
15.30
27.05
38.47
48.87
57.98
65.87
72.75
78.77
83.86
87.81
90.34
91.23
90.51
88.42
85.37
81.82
78.09
74.25
70.14
65.50
60.22
54.55
48.98
44.12
40.37
37.86
36.45
36.01
36.55
38.04
40.06
41.44
40.31
34.71
23.55
7.37
-11.63
-30.09
-44.62
-52.70
-53.18
-46.23
-33.14
-16.08
2.12
18.22
29.19
33.00
29.30
19.43
5.72
-9.60
-25.20
-40.62
-55.71
-69.83
-81.67
-89.72
-93.17
-92.49
-89.38
-85.87
-83.45
-82.46
-82.16
-81.53
-79.89
-77.33
-74.64
-72.85
-72.72
-74.44
-77.49
-80.79
-83.04
-83.19
-80.81
-76.38
-71.04
-66.24
-63.17
-62.25
-63.08
-64.63
-65.73
-65.53
-63.72
-60.52
-56.49
-52.24
-48.41
-45.69
-44.97
-47.17
-52.88
-61.79
-72.23
-81.45
-86.41
-84.92
-76.50
-62.48
-45.24
-27.15
-9.65
6.97
22.99
38.50
52.94
65.10
73.70
78.10
78.56
76.17
72.32
68.18
64.42
61.28
58.68
56.55
54.81
53.40
52.21
51.01
49.57
47.72
45.44
42.81
39.88
36.52
32.42
27.23
20.80
13.43
6.05
0.04
-3.01
-1.76
4.38
14.99
28.53
42.63
54.69
62.65
65.54
63.78
58.79
52.35
45.81
39.57
33.20
25.92
17.24
7.42
-2.64
-11.82
-19.40
-25.41
-30.57
-35.81
-41.75
-48.23
-54.52
-59.81
-63.87
-67.03
-69.42
-70.33
-68.29
-62.38
-53.71
-45.81
-43.13
-48.28
-59.73
-71.82
-77.40
-71.69
-54.89
-32.02
-9.93
6.33
15.63
20.11
22.79
25.17
26.59
25.38
20.66
13.30
5.51
-0.36
-3.09
-3.03
-1.68
-0.68
-1.00
-2.55
-4.50
-5.75
-5.62
-4.11
-1.89
0.08
1.08
0.91
0.10
-0.30
0.86
4.33
10.12
17.46
25.02
31.45
35.78
37.65
37.30
35.26
32.15
28.43
24.37
20.12
15.85
11.77
8.09
4.94
2.34
0.15
-1.83
-3.78
-5.75
-7.68
-9.43
-10.85
-11.81
-12.18
-11.81
-10.55
-8.31
-5.12
-1.17
3.22
7.61
11.54
14.63
16.55
17.10
16.20
13.92
10.54
6.55
2.54
-0.90
-3.32
-4.56
-4.71
-4.07
-3.00
-1.79
-0.61
0.43
1.27
1.78
1.87
1.49
0.79
0.06
-0.28
0.08
1.24
3.01
4.93
6.50
7.34
7.34
6.64
5.58
4.48
3.54
2.84
2.34
2.00
1.81
1.83
2.04
2.35
2.54
2.35
1.60
0.26
-1.51
-3.49
-5.45
-7.27
-8.91
-10.36
-11.54
-12.26
-12.25
-11.27
-9.25
-6.27
-2.64
1.25
4.95
8.09
10.40
11.71
12.04
11.51
10.36
8.86
7.24
5.67
4.23
2.97
1.91
1.05
0.39
-0.09
-0.41
-0.64
-0.83
-1.09
-1.56
-2.36
-3.54
-4.97
-6.42
-7.51
-7.87
-7.22
-5.45
-2.69
0.75
4.45
7.97
10.96
13.24
14.78
15.68
16.05
15.96
15.48
14.71
13.82
13.01
12.42
12.09
11.92
11.80
11.65
11.55
11.58
11.77
12.04
12.23
12.19
11.88
11.33
10.61
9.77
8.77
7.56
6.17
4.74
3.50
2.67
2.37
2.55
3.03
3.51
3.72
3.40
2.41
0.69
-1.69
-4.56
-7.68
-10.78
-13.66
-16.17
-18.20
-19.72
-20.66
-21.03
-20.85
-20.23
-19.28
-18.05
-16.48
-14.38
-11.53
-7.82
-3.40
1.26
5.53
8.81
10.69
11.13
10.38
8.88
7.03
5.18
3.57
2.36
1.75
1.88
2.79
4.37
6.29
8.14
9.56
10.35
10.50
10.12
9.40
8.48
7.46
6.35
5.16
3.87
2.49
1.07
-0.28
-1.48
-2.44
-3.15
-3.64
-3.96
-4.15
-4.26
-4.35
-4.55
-5.03
-5.93
-7.28
-8.93
-10.55
-11.73
-12.12
-11.51
-9.93
-7.58
-4.76
-1.79
1.03
3.50
5.48
6.92
7.87
8.40
8.64
8.67
8.55
8.30
7.94
7.49
6.99
6.55
6.23
6.06
6.03
6.10
6.18
6.19
6.07
5.74
5.15
4.25
3.05
1.62
0.09
-1.37
-2.61
-3.51
-4.05
-4.32
-4.47
-4.67
-5.06
-5.70
-6.54
-7.50
-8.45
-9.29
-9.93
-10.27
-10.17
-9.48
-8.08
-6.00
-3.41
-0.63
2.02
4.25
5.92
7.00
7.53
7.61
7.35
6.85
6.27
5.71
5.25
4.89
4.58
4.30
4.02
3.78
3.64
3.65
3.79
3.97
4.07
3.97
3.63
3.05
2.34
1.65
1.12
0.80
0.65
0.56
0.39
0.00
-0.66
-1.60
-2.73
-3.92
-5.03
-5.92
-6.57
-7.07
-7.58
-8.24
-9.09
-9.93
-10.44
-10.22
-9.05
-6.94
-4.21
-1.30
1.35
3.47
4.97
5.89
6.34
6.37
6.03
5.38
4.54
3.66
2.90
2.40
2.17
2.19
2.36
2.57
2.76
2.87
2.87
2.78
2.64
2.52
2.54
2.71
3.00
3.21
3.08
2.38
0.99
-0.90
-2.92
-4.57
-5.47
-5.57
-5.20
-4.93
-5.30
-6.47
-8.07
-9.35
-9.46
-7.93
-4.85
-0.93
2.88
5.77
7.37
7.88
7.80
7.68
7.91
8.61
9.72
11.03
12.18
12.29
10.00
3.77
-7.37
-22.91
-40.74
-57.66
-70.72
-78.39
-81.04
-80.40
-78.34
-75.79
-72.42
-67.31
-59.86
-50.53
-40.70
-32.01
-25.52
-21.25
-18.37
-15.80
-12.82
-9.28
-5.57
-2.25
0.45
2.79
5.38
8.88
13.59
19.17
24.84
29.74
33.35
35.75
37.45
39.05
40.90
42.86
44.44
45.04
44.26
42.04
38.63
34.47
29.97
25.35
20.70
16.10
11.76
8.06
5.39
3.92
3.29
2.71
1.14
-2.14
-7.20
-13.26
-19.04
-23.26
-25.17
-24.70
-22.41
-19.03
-15.19
-11.20
-7.18
-3.24
0.49
3.85
6.84
9.66
12.62
15.87
19.18
21.88
23.14
22.37
19.49
15.08
10.06
5.34
1.45
-1.51
-3.78
-5.63
-7.27
-8.81
-10.30
-11.80
-13.34
-14.75
-15.62
-15.31
-13.18
-8.81
-2.29
5.77
14.35
22.26
28.54
32.65
34.61
34.96
34.53
34.20
34.69
36.34
39.00
42.05
44.56
45.46
43.97
39.79
33.25
25.21
16.79
9.05
2.72
-1.92
-5.03
-7.10
-8.90
-11.36
-15.32
-21.31
-29.28
-38.46
-47.46
-54.68
-58.79
-59.18
-56.06
-50.29
-42.98
-35.06
-27.05
-19.14
-11.35
-3.77
3.29
9.35
13.97
16.89
18.20
18.29
17.73
17.07
16.67
16.68
17.02
17.51
17.98
18.24
18.18
17.66
16.59
14.90
12.67
10.13
7.67
5.68
4.53
4.33
4.98
6.14
7.40
8.40
8.94
9.02
8.80
8.43
8.00
7.41
6.50
5.10
3.15
0.75
-1.85
-4.44
-6.84
-8.96
-10.76
-12.14
-13.00
-13.21
-12.71
-11.54
-9.83
-7.73
-5.42
-3.08
-0.87
1.02
2.46
3.42
3.97
4.33
4.73
5.32
6.13
7.08
8.08
9.08
10.14
11.38
12.85
14.49
16.08
17.38
18.24
18.64
18.72
18.66
18.54
18.24
17.55
16.25
14.22
11.57
8.50
5.28
2.11
-0.86
-3.57
-5.98
-7.97
-9.40
-10.14
-10.04
-9.06
-7.28
-4.83
-1.90
1.34
4.80
8.44
12.21
15.96
19.32
21.88
23.24
23.37
22.63
21.73
21.46
22.31
24.38
27.31
30.44
33.06
34.52
34.21
31.61
26.36
18.52
8.83
-1.39
-10.59
-17.73
-22.70
-26.31
-29.72
-33.69
-38.08
-41.89
-43.99
-43.82
-41.92
-39.68
-38.67
-39.86
-43.05
-47.06
-50.20
-51.11
-49.22
-44.93
-39.30
-33.47
-28.16
-23.55
-19.44
-15.59
-12.08
-9.28
-7.53
-6.84
-6.75
-6.50
-5.43
-3.37
-0.68
1.99
4.09
5.49
6.52
7.84
10.03
13.33
17.52
22.02
26.06
28.97
30.41
30.41
29.29
27.55
25.62
23.78
22.15
20.70
19.37
18.15
17.06
16.14
15.45
14.96
14.62
14.28
13.81
13.04
11.93
10.44
8.56
6.27
3.45
-0.01
-4.17
-8.86
-13.76
-18.41
-22.40
-25.49
-27.68
-29.20
-30.32
-31.31
-32.34
-33.48
-34.69
-35.86
-36.77
-37.08
-36.44
-34.48
-31.04
-26.05
-19.68
-12.31
-4.55
2.71
8.40
11.54
11.60
8.76
4.02
-1.04
-4.80
-6.11
-4.70
-1.09
3.60
8.25
12.02
14.56
15.90
16.26
15.91
15.05
13.87
12.57
11.41
10.65
10.42
10.69
11.21
11.66
11.81
11.58
11.08
10.50
9.97
9.47
8.91
8.18
7.31
6.44
5.81
5.61
5.91
6.61
7.47
8.26
8.75
8.81
8.41
7.58
6.42
5.06
3.68
2.45
1.51
0.90
0.58
0.38
0.13
-0.31
-0.99
-1.83
-2.68
-3.39
-3.94
-4.37
-4.81
-5.32
-5.86
-6.25
-6.29
-5.82
-4.80
-3.40
-1.84
-0.40
0.74
1.51
1.91
1.99
1.82
1.49
1.11
0.78
0.58
0.50
0.50
0.50
0.44
0.32
0.14
-0.07
-0.32
-0.64
-1.07
-1.60
-2.19
-2.76
-3.27
-3.72
-4.08
-4.31
-4.28
-3.85
-2.95
-1.68
-0.25
1.04
1.93
2.33
2.28
1.99
1.65
1.39
1.23
1.10
0.93
0.67
0.40
0.15
-0.00
-0.06
-0.04
0.01
0.03
-0.02
-0.21
-0.62
-1.32
-2.33
-3.53
-4.65
-5.39
-5.49
-4.87
-3.66
-2.14
-0.65
0.52
1.25
1.50
1.34
0.85
0.14
-0.71
-1.55
-2.23
-2.62
-2.65
-2.44
-2.19
-2.09
-2.24
-2.57
-2.89
-3.05
-3.02
-2.90
-2.87
-3.06
-3.44
-3.82
-3.97
-3.72
-3.07
-2.16
-1.20
-0.36
0.36
1.04
1.79
2.63
3.44
4.04
4.29
4.22
4.04
4.05
4.46
5.26
6.23
7.03
7.41
7.29
6.83
6.25
5.74
5.37
5.00
4.50
3.70
2.63
1.40
0.20
-0.84
-1.69
-2.44
-3.28
-4.41
-5.99
-8.08
-10.69
-13.72
-16.96
-20.14
-22.89
-24.87
-25.81
-25.62
-24.35
-22.18
-19.38
-16.18
-12.87
-9.67
-6.83
-4.55
-2.99
-2.21
-2.13
-2.48
-2.88
-2.92
-2.24
-0.70
1.59
4.29
6.87
8.86
9.87
9.79
8.73
7.05
5.25
3.88
3.35
3.85
5.31
7.35
9.42
10.97
11.54
10.91
9.11
6.43
3.35
0.40
-1.95
-3.39
-3.87
-3.62
-3.03
-2.54
-2.48
-2.91
-3.60
-4.20
-4.33
-3.85
-2.87
-1.69
-0.64
0.08
0.43
0.56
0.58
0.52
0.34
-0.03
-0.58
-1.19
-1.70
-1.98
-1.99
-1.81
-1.55
-1.27
-1.01
-0.77
-0.57
-0.51
-0.67
-1.12
-1.79
-2.55
-3.19
-3.54
-3.48
-3.03
-2.22
-1.17
0.02
1.24
2.37
3.30
3.93
4.22
4.18
3.88
3.39
2.80
2.22
1.71
1.35
1.13
1.02
0.95
0.84
0.67
0.46
0.24
0.01
-0.24
-0.57
-0.98
-1.40
-1.71
-1.75
-1.42
-0.68
0.41
1.69
3.01
4.19
5.10
5.63
5.73
5.43
4.82
4.07
3.32
2.65
2.09
1.60
1.15
0.74
0.46
0.38
0.48
0.66
0.75
0.58
0.14
-0.46
-1.00
-1.29
-1.25
-0.94
-0.48
0.02
0.54
1.13
1.83
2.57
3.22
3.56
3.51
3.06
2.39
1.69
1.09
0.62
0.17
-0.32
-0.87
-1.34
-1.57
-1.41
-0.90
-0.22
0.34
0.53
0.21
-0.61
-1.72
-2.88
-3.86
-4.44
-4.50
-3.96
-2.86
-1.36
0.29
1.75
2.74
3.13
3.00
2.57
2.11
1.80
1.67
1.66
1.65
1.54
1.27
0.85
0.33
-0.21
-0.71
-1.15
-1.52
-1.88
-2.27
-2.71
-3.16
-3.54
-3.75
-3.69
-3.30
-2.56
-1.51
-0.22
1.17
2.48
3.56
4.27
4.55
4.40
3.93
3.25
2.49
1.78
1.21
0.84
0.67
0.65
0.70
0.73
0.67
0.50
0.23
-0.12
-0.49
-0.88
-1.26
-1.62
-1.93
-2.13
-2.15
-1.92
-1.40
-0.62
0.35
1.39
2.37
3.17
3.70
3.89
3.73
3.24
2.53
1.75
1.07
0.60
0.37
0.29
0.24
0.13
-0.07
-0.31
-0.50
-0.59
-0.65
-0.79
-1.13
-1.73
-2.54
-3.43
-4.20
-4.64
-4.62
-4.11
-3.15
-1.93
-0.67
0.43
1.22
1.66
1.79
1.69
1.46
1.16
0.86
0.61
0.45
0.40
0.45
0.53
0.53
0.38
0.07
-0.34
-0.74
-1.00
-1.07
-0.98
-0.83
-0.72
-0.72
-0.83
-0.97
-1.05
-0.96
-0.70
-0.27
0.30
1.00
1.83
2.75
3.66
4.42
4.83
4.77
4.25
3.41
2.51
1.84
1.59
1.79
2.28
2.78
2.99
2.72
2.00
1.03
0.11
-0.51
-0.78
-0.85
-1.03
-1.62
-2.72
-4.21
-5.77
-7.01
-7.69
-7.75
-7.39
-6.97
-7.01
-8.10
-10.76
-15.30
-21.60
-28.97
-36.26
-42.18
-45.74
-46.67
-45.50
-43.23
-40.93
-39.10
-37.62
-35.90
-33.33
-29.67
-25.17
-20.37
-15.71
-11.32
-6.96
-2.34
2.69
7.89
12.77
16.73
19.38
20.70
20.91
20.41
19.49
18.34
17.05
15.72
14.55
13.78
13.56
13.86
14.45
15.01
15.34
15.49
15.71
16.31
17.44
18.97
20.56
21.92
23.00
24.00
25.35
27.32
29.87
32.55
34.65
35.47
34.58
31.97
27.92
22.82
17.04
10.78
4.22
-2.35
-8.44
-13.45
-16.84
-18.38
-18.24
-16.98
-15.29
-13.68
-12.34
-11.16
-9.93
-8.48
-6.85
-5.24
-3.87
-2.93
-2.49
-2.52
-2.94
-3.62
-4.35
-4.89
-5.01
-4.54
-3.51
-2.10
-0.58
0.77
1.75
2.27
2.37
2.10
1.61
1.02
0.48
0.13
0.05
0.28
0.76
1.39
1.99
2.42
2.56
2.40
1.96
1.28
0.36
-0.82
-2.27
-3.88
-5.42
-6.58
-7.13
-7.01
-6.36
-5.43
-4.45
-3.51
-2.61
-1.69
-0.77
0.01
0.48
0.51
0.14
-0.49
-1.16
-1.72
-2.11
-2.33
-2.42
-2.35
-2.08
-1.56
-0.87
-0.15
0.37
0.52
0.23
-0.36
-1.00
-1.41
-1.39
-0.92
-0.07
1.03
2.29
3.71
5.29
6.97
8.52
9.66
10.12
9.83
8.95
7.75
6.53
5.40
4.37
3.31
2.19
1.05
0.04
-0.73
-1.29
-1.81
-2.46
-3.34
-4.28
-4.93
-4.89
-3.92
-2.08
0.28
2.62
4.44
5.39
5.41
4.64
3.34
1.87
0.58
-0.19
-0.14
0.90
2.98
5.98
9.58
13.34
16.68
19.00
19.86
19.08
16.82
13.60
10.09
7.00
4.87
4.00
4.38
5.71
7.43
8.80
9.05
7.62
4.38
-0.28
-5.51
-10.32
-13.78
-15.33
-14.80
-12.37
-8.44
-3.58
1.57
6.33
10.09
12.41
13.14
12.40
10.54
7.99
5.15
2.36
-0.17
-2.32
-4.04
-5.35
-6.24
-6.69
-6.63
-5.97
-4.69
-2.90
-0.83
1.19
2.83
3.91
4.41
4.44
4.17
3.78
3.38
3.00
2.66
2.31
1.88
1.29
0.46
-0.67
-2.08
-3.67
-5.29
-6.71
-7.69
-8.08
-7.81
-6.91
-5.51
-3.82
-2.01
-0.27
1.28
2.54
3.47
4.09
4.43
4.53
4.44
4.15
3.65
2.89
1.85
0.57
-0.84
-2.19
-3.33
-4.14
-4.66
-4.99
-5.31
-5.71
-6.18
-6.62
-6.86
-6.78
-6.34
-5.57
-4.52
-3.24
-1.78
-0.19
1.39
2.77
3.79
4.34
4.48
4.35
4.18
4.14
4.28
4.57
4.85
4.99
4.90
4.59
4.18
3.82
3.62
3.55
3.46
3.06
2.11
0.52
-1.63
-4.06
-6.42
-8.43
-9.97
-11.03
-11.66
-11.94
-11.92
-11.65
-11.20
-10.65
-10.04
-9.33
-8.42
-7.21
-5.72
-4.07
-2.46
-1.07
0.08
1.09
2.10
3.16
4.17
4.88
5.05
4.55
3.46
2.04
0.65
-0.40
-0.85
-0.59
0.39
1.98
3.94
5.94
7.59
8.62
8.93
8.61
7.91
7.13
6.50
6.12
5.99
6.04
6.17
6.32
6.40
6.38
6.24
5.99
5.67
5.35
5.03
4.68
4.24
3.63
2.83
1.85
0.80
-0.24
-1.17
-1.94
-2.52
-2.92
-3.14
-3.15
-3.02
-2.76
-2.44
-2.07
-1.66
-1.21
-0.70
-0.20
0.19
0.35
0.21
-0.21
-0.78
-1.36
-1.84
-2.21
-2.54
-2.97
-3.61
-4.53
-5.68
-6.95
-8.18
-9.26
-10.12
-10.76
-11.28
-11.85
-12.68
-13.91
-15.52
-17.22
-18.59
-19.13
-18.55
-16.86
-14.35
-11.51
-8.77
-6.37
-4.32
-2.53
-0.88
0.66
2.09
3.40
4.66
6.02
7.59
9.39
11.27
12.97
14.26
14.97
15.17
15.10
15.06
15.32
15.97
16.91
17.85
18.42
18.26
17.20
15.27
12.84
10.52
8.99
8.73
9.77
11.61
13.35
14.01
12.91
10.01
5.83
1.31
-2.60
-5.27
-6.51
-6.54
-5.77
-4.64
-3.52
-2.66
-2.22
-2.24
-2.65
-3.26
-3.75
-3.76
-3.00
-1.36
1.03
3.80
6.49
8.65
10.00
10.44
10.12
9.35
8.47
7.81
7.52
7.56
7.67
7.43
6.37
4.13
0.63
-3.85
-8.73
-13.29
-16.86
-19.06
-19.88
-19.57
-18.59
-17.37
-16.20
-15.14
-14.07
-12.72
-10.77
-7.97
-4.24
0.24
5.08
9.68
13.36
15.46
15.53
13.46
9.55
4.47
-0.88
-5.58
-8.97
-10.79
-11.18
-10.62
-9.68
-8.83
-8.36
-8.32
-8.62
-9.13
-9.72
-10.30
-10.82
-11.20
-11.38
-11.25
-10.73
-9.76
-8.32
-6.50
-4.45
-2.44
-0.78
0.23
0.42
-0.13
-1.15
-2.26
-3.08
-3.39
-3.15
-2.39
-1.15
0.57
2.77
5.33
7.90
10.01
11.11
10.91
9.44
7.14
4.66
2.69
1.60
1.47
2.02
2.88
3.77
4.63
5.53
6.62
7.91
9.26
10.40
11.10
11.29
11.05
10.55
9.90
8.99
7.59
5.41
2.31
-1.62
-6.03
-10.47
-14.54
-17.95
-20.61
-22.42
-23.30
-23.10
-21.70
-19.12
-15.63
-11.68
-7.77
-4.29
-1.35
1.22
3.68
6.30
9.10
11.90
14.35
16.17
17.23
17.63
17.63
17.48
17.34
17.16
16.75
15.91
14.57
12.74
10.56
8.16
5.60
2.86
-0.07
-3.13
-6.11
-8.69
-10.58
-11.58
-11.73
-11.26
-10.54
-9.90
-9.54
-9.45
-9.43
-9.23
-8.61
-7.49
-5.97
-4.30
-2.82
-1.83
-1.53
-1.93
-2.88
-4.05
-5.12
-5.80
-5.97
-5.67
-5.03
-4.19
-3.23
-2.19
-1.06
0.09
1.21
2.24
3.20
4.17
5.27
6.60
8.16
9.84
11.51
13.06
14.49
15.85
17.15
18.35
19.23
19.49
18.84
17.16
14.61
11.55
8.45
5.68
3.33
1.21
-1.05
-3.74
-6.91
-10.23
-13.08
-14.76
-14.71
-12.74
-9.14
-4.62
-0.17
3.24
4.85
4.36
1.94
-1.86
-6.21
-10.23
-13.17
-14.50
-14.00
-11.77
-8.19
-3.90
0.37
3.96
6.43
7.75
8.26
8.56
9.24
10.63
12.67
14.91
16.75
17.67
17.46
16.26
14.49
12.65
11.14
10.19
9.77
9.70
9.70
9.52
9.04
8.29
7.44
6.77
6.57
7.07
8.38
10.38
12.72
14.77
15.74
15.08
12.65
9.01
5.21
2.32
0.93
0.75
0.75
-0.33
-3.31
-8.18
-14.11
-19.90
-24.54
-27.51
-28.78
-28.59
-27.21
-24.91
-22.05
-19.16
-16.86
-15.58
-15.34
-15.74
-16.17
-16.24
-15.99
-15.89
-16.49
-17.97
-19.99
-21.69
-22.18
-20.92
-17.96
-13.83
-9.26
-4.80
-0.59
3.45
7.43
11.20
14.39
16.58
17.65
17.90
17.98
18.56
19.92
21.79
23.47
24.14
23.24
20.70
16.89
12.44
8.03
4.27
1.55
0.01
-0.57
-0.70
-1.17
-2.69
-5.62
-9.71
-14.19
-18.03
-20.35
-20.80
-19.56
-17.20
-14.33
-11.34
-8.37
-5.43
-2.59
-0.09
1.73
2.64
2.68
2.24
1.86
2.02
2.83
4.07
5.36
6.32
6.82
6.87
6.58
5.91
4.76
3.01
0.79
-1.46
-3.16
-3.90
-3.75
-3.32
-3.46
-4.85
-7.59
-11.21
-14.94
-18.10
-20.38
-21.84
-22.68
-23.01
-22.66
-21.44
-19.30
-16.51
-13.62
-11.18
-9.49
-8.50
-7.88
-7.27
-6.41
-5.27
-3.95
-2.66
-1.52
-0.57
0.20
0.86
1.47
2.09
2.73
3.40
4.05
4.57
4.86
4.83
4.49
3.96
3.41
3.01
2.91
3.08
3.42
3.70
3.77
3.52
3.02
2.43
1.97
1.75
1.84
2.16
2.63
3.11
3.53
3.82
3.94
3.89
3.67
3.37
3.12
3.06
3.23
3.56
3.84
3.85
3.44
2.65
1.71
0.93
0.57
0.69
1.15
1.68
2.00
2.00
1.75
1.43
1.22
1.22
1.40
1.66
1.90
2.10
2.26
2.42
2.59
2.72
2.77
2.72
2.60
2.45
2.32
2.21
2.10
2.00
1.87
1.71
1.51
1.23
0.82
0.27
-0.39
-1.08
-1.63
-1.92
-1.87
-1.52
-1.00
-0.47
-0.05
0.20
0.32
0.43
0.64
1.01
1.47
1.91
2.18
2.18
1.92
1.48
1.00
0.56
0.20
-0.12
-0.40
-0.63
-0.73
-0.66
-0.39
0.01
0.42
0.76
1.02
1.26
1.56
1.96
2.40
2.76
2.93
2.88
2.66
2.41
2.23
2.15
2.14
2.09
1.92
1.64
1.25
0.82
0.35
-0.15
-0.69
-1.24
-1.75
-2.15
-2.42
-2.57
-2.68
-2.81
-2.97
-3.11
-3.16
-3.04
-2.75
-2.37
-2.00
-1.75
-1.63
-1.60
-1.56
-1.42
-1.12
-0.69
-0.24
0.07
0.11
-0.17
-0.70
-1.35
-1.99
-2.49
-2.84
-3.06
-3.22
-3.35
-3.47
-3.54
-3.53
-3.38
-3.06
-2.57
-1.95
-1.27
-0.60
-0.01
0.50
0.97
1.45
1.94
2.37
2.64
2.62
2.29
1.75
1.15
0.66
0.35
0.17
-0.03
-0.39
-0.94
-1.58
-2.10
-2.32
-2.21
-1.84
-1.37
-0.92
-0.57
-0.31
-0.12
-0.00
0.03
-0.03
-0.14
-0.21
-0.14
0.10
0.47
0.84
1.07
1.07
0.84
0.44
0.01
-0.37
-0.64
-0.82
-0.99
-1.24
-1.61
-2.05
-2.46
-2.73
-2.76
-2.55
-2.13
-1.62
-1.07
-0.56
-0.12
0.21
0.36
0.29
-0.01
-0.45
-0.89
-1.14
-1.10
-0.80
-0.38
-0.03
0.11
-0.02
-0.34
-0.72
-1.06
-1.30
-1.44
-1.53
-1.57
-1.57
-1.49
-1.33
-1.08
-0.80
-0.53
-0.30
-0.07
0.19
0.49
0.84
1.16
1.39
1.44
1.29
0.96
0.52
0.05
-0.36
-0.63
-0.78
-0.83
-0.89
-1.02
-1.26
-1.56
-1.80
-1.86
-1.66
-1.22
-0.67
-0.14
0.27
0.57
0.86
1.26
1.82
2.47
3.02
3.28
3.17
2.74
2.20
1.75
1.55
1.62
1.86
2.13
2.33
2.37
2.23
1.89
1.35
0.66
-0.09
-0.75
-1.17
-1.28
-1.09
-0.70
-0.23
0.21
0.57
0.85
1.08
1.29
1.50
1.68
1.78
1.76
1.63
1.40
1.11
0.78
0.39
-0.09
-0.68
-1.34
-2.00
-2.56
-2.95
-3.15
-3.19
-3.10
-2.93
-2.70
-2.42
-2.13
-1.82
-1.48
-1.07
-0.55
0.08
0.72
1.28
1.60
1.64
1.37
0.87
0.25
-0.38
-0.97
-1.48
-1.90
-2.25
-2.57
-2.90
-3.28
-3.73
-4.23
-4.67
-4.96
-5.01
-4.75
-4.21
-3.46
-2.58
-1.66
-0.78
0.01
0.67
1.15
1.45
1.58
1.59
1.52
1.39
1.19
0.90
0.53
0.09
-0.35
-0.73
-1.06
-1.37
-1.74
-2.18
-2.67
-3.11
-3.36
-3.35
-3.06
-2.55
-1.91
-1.22
-0.54
0.10
0.68
1.22
1.73
2.22
2.66
2.98
3.10
2.94
2.52
1.90
1.22
0.60
0.09
-0.34
-0.77
-1.27
-1.85
-2.45
-2.97
-3.34
-3.51
-3.47
-3.20
-2.70
-1.95
-0.99
0.07
1.09
1.94
2.56
2.98
3.26
3.50
3.71
3.81
3.67
3.23
2.48
1.55
0.60
-0.20
-0.78
-1.15
-1.39
-1.61
-1.86
-2.15
-2.41
-2.56
-2.51
-2.25
-1.80
-1.20
-0.51
0.28
1.16
2.13
3.10
3.93
4.45
4.54
4.18
3.49
2.63
1.79
1.05
0.39
-0.25
-0.98
-1.85
-2.85
-3.92
-4.99
-5.99
-6.88
-7.65
-8.29
-8.79
-9.10
-9.17
-8.96
-8.47
-7.74
-6.84
-5.85
-4.86
-3.92
-3.07
-2.29
-1.58
-0.90
-0.18
0.65
1.68
2.96
4.48
6.16
7.84
9.33
10.42
10.99
11.00
10.48
9.59
8.52
7.52
6.83
6.60
6.86
7.50
8.32
9.14
9.83
10.38
10.80
11.08
11.14
10.86
10.18
9.13
7.87
6.58
5.42
4.45
3.69
3.09
2.62
2.23
1.84
1.40
0.85
0.22
-0.43
-0.95
-1.24
-1.23
-0.93
-0.38
0.37
1.27
2.28
3.35
4.35
5.13
5.55
5.53
5.11
4.41
3.59
2.80
2.09
1.47
0.93
0.46
0.07
-0.27
-0.66
-1.19
-1.93
-2.86
-3.84
-4.64
-5.04
-4.91
-4.25
-3.11
-1.64
0.04
1.75
3.32
4.58
5.38
5.66
5.45
4.86
4.04
3.12
2.16
1.19
0.20
-0.78
-1.71
-2.49
-3.01
-3.24
-3.21
-3.02
-2.82
-2.75
-2.86
-3.10
-3.33
-3.37
-3.09
-2.44
-1.48
-0.33
0.85
1.95
2.92
3.72
4.31
4.64
4.66
4.35
3.76
2.99
2.17
1.40
0.73
0.16
-0.34
-0.78
-1.20
-1.60
-2.01
-2.46
-2.93
-3.35
-3.64
-3.69
-3.45
-2.94
-2.25
-1.45
-0.61
0.23
1.05
1.79
2.39
2.75
2.81
2.55
2.03
1.33
0.55
-0.23
-0.94
-1.56
-2.05
-2.42
-2.66
-2.85
-3.04
-3.33
-3.77
-4.28
-4.72
-4.87
-4.59
-3.84
-2.78
-1.60
-0.52
0.38
1.13
1.81
2.46
3.06
3.49
3.64
3.44
2.90
2.10
1.16
0.22
-0.59
-1.19
-1.52
-1.62
-1.62
-1.67
-1.90
-2.36
-2.98
-3.58
-3.95
-3.89
-3.31
-2.27
-0.92
0.51
1.84
2.96
3.84
4.48
4.83
4.84
4.47
3.74
2.78
1.78
0.93
0.35
0.05
-0.07
-0.15
-0.28
-0.51
-0.80
-1.13
-1.43
-1.65
-1.76
-1.68
-1.34
-0.67
0.34
1.64
3.10
4.55
5.81
6.73
7.20
7.17
6.69
5.84
4.75
3.59
2.51
1.63
0.98
0.51
0.15
-0.20
-0.60
-1.06
-1.56
-2.07
-2.51
-2.82
-2.96
-2.90
-2.58
-2.00
-1.17
-0.15
0.95
2.01
2.88
3.49
3.81
3.89
3.76
3.47
3.01
2.41
1.68
0.90
0.20
-0.33
-0.66
-0.86
-1.05
-1.34
-1.82
-2.45
-3.14
-3.72
-4.04
-3.96
-3.45
-2.54
-1.33
0.03
1.37
2.54
3.43
3.97
4.14
3.97
3.56
3.00
2.40
1.79
1.20
0.61
0.04
-0.45
-0.83
-1.07
-1.24
-1.45
-1.81
-2.37
-3.04
-3.64
-3.95
-3.83
-3.26
-2.34
-1.24
-0.12
0.88
1.73
2.37
2.79
2.93
2.72
2.17
1.36
0.46
-0.29
-0.72
-0.79
-0.63
-0.42
-0.38
-0.64
-1.21
-2.01
-2.89
-3.70
-4.29
-4.53
-4.33
-3.69
-2.73
-1.61
-0.53
0.42
1.25
2.01
2.74
3.42
3.97
4.28
4.26
3.90
3.21
2.28
1.22
0.18
-0.64
-1.11
-1.19
-0.99
-0.71
-0.57
-0.71
-1.13
-1.74
-2.37
-2.84
-3.05
-2.93
-2.46
-1.67
-0.67
0.44
1.52
2.45
3.14
3.53
3.61
3.40
2.96
2.39
1.75
1.13
0.54
-0.01
-0.51
-0.92
-1.22
-1.41
-1.55
-1.73
-2.05
-2.56
-3.16
-3.66
-3.83
-3.57
-2.87
-1.85
-0.69
0.45
1.48
2.37
3.11
3.68
4.04
4.14
3.96
3.52
2.91
2.24
1.59
1.01
0.49
-0.00
-0.48
-0.93
-1.29
-1.53
-1.67
-1.75
-1.85
-2.00
-2.21
-2.38
-2.42
-2.28
-1.90
-1.31
-0.50
0.49
1.54
2.53
3.26
3.59
3.47
2.97
2.26
1.54
0.92
0.45
0.07
-0.24
-0.55
-0.83
-1.10
-1.37
-1.65
-1.97
-2.28
-2.52
-2.60
-2.52
-2.29
-1.95
-1.53
-1.00
-0.36
0.37
1.08
1.66
2.02
2.18
2.23
2.24
2.22
2.06
1.65
0.95
0.08
-0.74
-1.32
-1.58
-1.61
-1.59
-1.73
-2.07
-2.55
-3.01
-3.25
-3.21
-2.86
-2.29
-1.58
-0.81
-0.04
0.70
1.38
1.95
2.39
2.64
2.72
2.59
2.26
1.74
1.08
0.33
-0.38
-0.93
-1.22
-1.23
-1.07
-0.89
-0.87
-1.15
-1.71
-2.47
-3.24
-3.83
-4.11
-4.00
-3.54
-2.84
-2.01
-1.17
-0.40
0.28
0.89
1.43
1.92
2.32
2.59
2.64
2.40
1.85
1.05
0.12
-0.77
-1.50
-2.00
-2.31
-2.52
-2.75
-3.04
-3.37
-3.66
-3.84
-3.84
-3.69
-3.39
-3.00
-2.52
-1.94
-1.24
-0.41
0.48
1.35
2.05
2.49
2.61
2.46
2.13
1.73
1.27
0.75
0.15
-0.51
-1.13
-1.57
-1.79
-1.81
-1.79
-1.89
-2.23
-2.77
-3.40
-3.95
-4.29
-4.34
-4.10
-3.60
-2.90
-2.07
-1.16
-0.24
0.64
1.45
2.11
2.58
2.79
2.69
2.30
1.70
1.01
0.35
-0.19
-0.56
-0.76
-0.82
-0.77
-0.68
-0.60
-0.61
-0.78
-1.15
-1.69
-2.28
-2.73
-2.84
-2.52
-1.81
-0.89
0.03
0.78
1.31
1.69
2.01
2.33
2.59
2.69
2.55
2.16
1.59
0.97
0.37
-0.15
-0.58
-0.94
-1.20
-1.36
-1.43
-1.48
-1.59
-1.80
-2.07
-2.29
-2.31
-2.06
-1.55
-0.92
-0.31
0.21
0.66
1.12
1.69
2.33
2.90
3.23
3.19
2.79
2.16
1.49
0.94
0.59
0.43
0.37
0.30
0.11
-0.27
-0.87
-1.63
-2.45
-3.16
-3.62
-3.75
-3.54
-3.07
-2.45
-1.73
-0.98
-0.17
0.70
1.61
2.48
3.20
3.65
3.74
3.45
2.86
2.08
1.26
0.53
-0.01
-0.34
-0.44
-0.38
-0.25
-0.16
-0.25
-0.62
-1.30
-2.20
-3.14
-3.87
-4.20
-4.05
-3.45
-2.59
-1.63
-0.75
-0.02
0.54
0.94
1.18
1.25
1.17
0.95
0.67
0.38
0.11
-0.15
-0.44
-0.75
-1.09
-1.41
-1.71
-2.00
-2.33
-2.71
-3.13
-3.56
-3.94
-4.22
-4.36
-4.32
-4.04
-3.48
-2.60
-1.48
-0.25
0.86
1.67
2.06
2.03
1.69
1.19
0.68
0.20
-0.23
-0.62
-0.97
-1.24
-1.38
-1.38
-1.32
-1.30
-1.44
-1.77
-2.21
-2.65
-2.96
-3.08
-3.00
-2.76
-2.38
-1.87
-1.19
-0.36
0.54
1.42
2.14
2.66
2.94
3.02
2.91
2.60
2.11
1.47
0.78
0.14
-0.34
-0.68
-0.91
-1.14
-1.38
-1.64
-1.85
-2.00
-2.09
-2.18
-2.30
-2.42
-2.43
-2.22
-1.72
-0.93
0.06
1.12
2.12
2.92
3.41
3.49
3.14
2.41
1.43
0.39
-0.53
-1.18
-1.54
-1.66
-1.67
-1.69
-1.80
-2.02
-2.31
-2.59
-2.75
-2.73
-2.53
-2.20
-1.80
-1.37
-0.88
-0.26
0.51
1.40
2.30
2.99
3.31
3.16
2.60
1.79
0.94
0.23
-0.26
-0.54
-0.69
-0.78
-0.88
-1.04
-1.28
-1.65
-2.18
-2.81
-3.46
-3.95
-4.13
-3.91
-3.28
-2.36
-1.29
-0.22
0.72
1.40
1.70
1.50
0.71
-0.65
-2.41
-4.31
-6.06
-7.46
-8.46
-9.14
-9.66
-10.14
-10.64
-11.11
-11.42
-11.48
-11.23
-10.68
-9.89
-8.92
-7.78
-6.44
-4.82
-2.90
-0.70
1.67
4.04
6.22
8.06
9.46
10.41
10.93
11.04
10.82
10.35
9.70
8.99
8.28
7.65
7.12
6.69
6.36
6.11
5.95
5.92
6.08
6.52
7.28
8.29
9.34
10.07
10.07
9.00
6.74
3.50
-0.20
-3.58
-5.92
-6.72
-5.89
-3.70
-0.65
2.75
6.14
9.32
12.19
14.61
16.43
17.43
17.44
16.36
14.19
11.02
7.06
2.68
-1.55
-4.91
-6.70
-6.49
-4.27
-0.50
3.97
8.25
11.61
13.70
14.59
14.64
14.26
13.69
12.95
11.74
9.69
6.52
2.28
-2.58
-7.29
-11.06
-13.31
-13.92
-13.18
-11.60
-9.74
-7.97
-6.46
-5.25
-4.34
-3.80
-3.74
-4.21
-5.15
-6.38
-7.64
-8.73
-9.60
-10.34
-11.07
-11.86
-12.58
-13.00
-12.87
-12.11
-10.84
-9.39
-8.06
-6.99
-6.14
-5.32
-4.34
-3.12
-1.69
-0.14
1.44
2.95
4.26
5.23
5.73
5.76
5.46
5.11
5.02
5.38
6.22
7.43
8.81
10.21
11.51
12.64
13.58
14.33
14.96
15.68
16.78
18.55
21.12
24.39
27.97
31.30
33.88
35.37
35.63
34.71
32.73
29.80
26.04
21.63
16.81
11.85
6.99
2.40
-1.85
-5.75
-9.21
-12.16
-14.50
-16.16
-17.21
-17.79
-18.07
-18.22
-18.31
-18.30
-18.03
-17.35
-16.16
-14.48
-12.44
-10.26
-8.17
-6.30
-4.75
-3.53
-2.67
-2.24
-2.27
-2.72
-3.43
-4.11
-4.46
-4.26
-3.50
-2.43
-1.46
-1.04
-1.42
-2.57
-4.16
-5.71
-6.88
-7.54
-7.88
-8.24
-8.92
-9.97
-11.19
-12.25
-12.82
-12.74
-12.12
-11.18
-10.22
-9.42
-8.85
-8.49
-8.34
-8.40
-8.70
-9.19
-9.69
-9.88
-9.44
-8.21
-6.34
-4.31
-2.77
-2.26
-2.98
-4.66
-6.68
-8.29
-8.91
-8.37
-6.93
-5.10
-3.46
-2.42
-2.10
-2.37
-2.95
-3.56
-3.99
-4.15
-4.03
-3.67
-3.11
-2.45
-1.84
-1.45
-1.45
-1.92
-2.74
-3.65
-4.32
-4.47
-4.00
-3.00
-1.66
-0.21
1.22
2.61
4.00
5.42
6.86
8.19
9.24
9.84
9.92
9.47
8.63
7.56
6.44
5.39
4.46
3.64
2.94
2.39
2.10
2.12
2.47
3.09
3.82
4.55
5.23
5.94
6.85
8.11
9.81
11.89
14.14
16.23
17.87
18.86
19.14
18.82
18.09
17.17
16.27
15.53
14.97
14.58
14.22
13.70
12.81
11.41
9.49
7.14
4.57
2.00
-0.36
-2.31
-3.73
-4.50
-4.63
-4.16
-3.26
-2.09
-0.83
0.41
1.60
2.74
3.81
4.78
5.58
6.12
6.31
6.10
5.49
4.52
3.28
1.84
0.30
-1.24
-2.68
-3.88
-4.71
-5.10
-5.11
-4.92
-4.69
-4.56
-4.50
-4.32
-3.82
-2.81
-1.26
0.74
3.05
5.57
8.28
11.20
14.37
17.77
21.34
24.94
28.43
31.61
34.31
36.38
37.70
38.24
38.00
37.04
35.45
33.24
30.31
26.42
21.24
14.57
6.58
-2.10
-10.49
-17.46
-22.19
-24.38
-24.24
-22.33
-19.30
-15.71
-11.99
-8.46
-5.50
-3.51
-2.83
-3.54
-5.43
-7.96
-10.48
-12.47
-13.72
-14.36
-14.75
-15.25
-16.06
-17.14
-18.30
-19.40
-20.36
-21.20
-21.94
-22.54
-22.87
-22.84
-22.50
-21.95
-21.34
-20.72
-20.05
-19.20
-18.10
-16.76
-15.34
-14.06
-13.13
-12.71
-12.80
-13.27
-13.93
-14.55
-14.97
-15.09
-14.89
-14.42
-13.79
-13.16
-12.76
-12.81
-13.46
-14.72
-16.41
-18.17
-19.59
-20.38
-20.43
-19.84
-18.88
-17.73
-16.48
-15.06
-13.31
-11.14
-8.59
-5.86
-3.19
-0.80
1.24
2.95
4.35
5.49
6.39
7.12
7.76
8.39
9.05
9.67
10.16
10.43
10.51
10.53
10.59
10.71
10.75
10.51
9.79
8.56
6.96
5.23
3.57
2.04
0.55
-1.13
-3.19
-5.73
-8.66
-11.74
-14.66
-17.17
-19.16
-20.63
-21.70
-22.52
-23.21
-23.79
-24.15
-24.12
-23.49
-22.09
-19.89
-16.98
-13.60
-10.05
-6.65
-3.62
-1.07
0.97
2.56
3.77
4.68
5.37
5.91
6.34
6.72
7.09
7.43
7.69
7.75
7.50
6.86
5.84
4.60
3.34
2.30
1.65
1.47
1.79
2.62
3.95
5.77
8.02
10.52
13.04
15.34
17.21
18.58
19.53
20.26
21.06
22.28
24.26
27.36
31.98
38.53
47.23
57.93
69.86
81.65
91.52
97.79
99.44
96.41
89.62
80.62
71.04
62.08
54.33
47.85
42.43
37.78
33.57
29.24
23.91
16.56
6.35
-6.92
-22.50
-38.84
-54.03
-66.44
-75.20
-80.38
-82.75
-83.34
-83.12
-82.78
-82.75
-83.26
-84.28
-85.50
-86.27
-85.79
-83.36
-78.65
-71.91
-63.83
-55.33
-47.20
-39.87
-33.36
-27.39
-21.64
-15.90
-10.14
-4.51
0.79
5.57
9.78
13.43
16.66
19.60
22.30
24.70
26.67
28.09
28.97
29.44
29.66
29.74
29.70
29.46
28.99
28.39
27.91
27.80
28.23
29.16
30.34
31.43
32.18
32.45
32.27
31.73
30.93
29.95
28.81
27.54
26.12
24.54
22.78
20.82
18.66
16.30
13.80
11.32
9.10
7.37
6.29
5.81
5.70
5.63
5.32
4.68
3.77
2.63
1.19
-0.90
-4.01
-8.40
-14.07
-20.80
-28.37
-36.67
-45.71
-55.25
-64.70
-73.06
-79.41
-83.31
-85.02
-85.32
-84.82
-83.51
-80.55
-74.72
-65.14
-51.92
-36.30
-20.29
-5.96
5.20
12.66
16.73
18.28
18.25
17.45
16.46
15.70
15.62
16.80
19.82
25.03
32.24
40.60
48.72
55.09
58.62
59.01
56.90
53.54
50.26
47.98
46.80
46.09
44.83
42.17
37.73
31.70
24.70
17.42
10.43
4.11
-1.41
-6.13
-10.27
-14.26
-18.68
-24.05
-30.51
-37.65
-44.55
-50.17
-53.87
-55.75
-56.67
-57.80
-60.06
-63.70
-68.16
-72.33
-74.99
-75.21
-72.53
-67.02
-59.17
-49.80
-39.97
-30.81
-23.33
-18.15
-15.35
-14.53
-14.93
-15.69
-16.05
-15.47
-13.65
-10.58
-6.49
-1.84
2.84
7.03
10.49
13.26
15.63
17.94
20.33
22.70
24.72
26.11
26.82
27.03
27.01
26.86
26.40
25.27
23.20
20.34
17.20
14.51
12.75
11.97
11.79
11.70
11.44
11.10
11.03
11.52
12.56
13.83
14.87
15.35
15.21
14.69
14.12
13.79
13.90
14.49
15.50
16.75
18.03
19.06
19.66
19.72
19.30
18.52
17.49
16.26
14.82
13.17
11.38
9.58
7.92
6.46
5.19
4.07
3.08
2.27
1.78
1.69
2.01
2.71
3.64
4.68
5.71
6.65
7.43
8.01
8.35
8.44
8.26
7.81
7.11
6.22
5.27
4.43
3.80
3.34
2.92
2.32
1.43
0.29
-0.86
-1.72
-2.05
-1.82
-1.19
-0.39
0.42
1.20
2.03
2.99
4.07
5.15
5.99
6.41
6.33
5.81
5.03
4.16
3.30
2.49
1.74
1.05
0.46
0.02
-0.27
-0.47
-0.65
-0.86
-1.05
-1.13
-0.98
-0.54
0.15
1.00
1.89
2.78
3.67
4.55
5.38
6.09
6.55
6.68
6.45
5.91
5.16
4.32
3.48
2.77
2.23
1.88
1.65
1.39
0.96
0.30
-0.54
-1.41
-2.06
-2.31
-2.09
-1.46
-0.58
0.38
1.30
2.14
2.85
3.39
3.68
3.64
3.21
2.41
1.33
0.16
-0.93
-1.81
-2.40
-2.74
-2.93
-3.11
-3.43
-4.01
-4.90
-6.07
-7.40
-8.59
-9.28
-9.01
-7.42
-4.38
-0.09
4.96
10.12
14.76
18.47
21.03
22.40
22.60
21.72
19.95
17.57
14.99
12.64
10.80
9.54
8.72
8.05
7.31
6.40
5.41
4.57
4.09
4.10
4.58
5.42
6.44
7.46
8.34
9.00
9.40
9.51
9.33
8.96
8.61
8.51
8.82
9.52
10.38
11.05
11.17
10.60
9.37
7.63
5.55
3.17
0.43
-2.78
-6.45
-10.45
-14.54
-18.47
-22.10
-25.37
-28.24
-30.58
-32.16
-32.66
-31.86
-29.69
-26.40
-22.42
-18.32
-14.50
-11.14
-8.05
-4.86
-1.20
3.05
7.62
11.92
15.30
17.41
18.37
18.77
19.31
20.53
22.49
24.81
26.93
28.35
28.81
28.26
26.70
24.11
20.52
16.10
11.36
7.04
3.90
2.41
2.48
3.48
4.47
4.60
3.44
1.00
-2.36
-6.25
-10.47
-15.01
-19.85
-24.78
-29.22
-32.45
-33.80
-33.08
-30.60
-27.11
-23.45
-20.24
-17.72
-15.79
-14.20
-12.76
-11.42
-10.26
-9.39
-8.81
-8.41
-7.99
-7.38
-6.48
-5.31
-4.03
-2.76
-1.57
-0.43
0.79
2.18
3.79
5.54
7.34
9.07
10.67
12.07
13.20
13.98
14.34
14.30
13.96
13.50
13.07
12.75
12.50
12.18
11.69
10.99
10.09
9.05
7.86
6.47
4.85
3.03
1.11
-0.73
-2.30
-3.46
-4.14
-4.33
-4.09
-3.53
-2.75
-1.92
-1.14
-0.53
-0.10
0.11
0.08
-0.22
-0.83
-1.68
-2.68
-3.62
-4.36
-4.85
-5.18
-5.54
-6.12
-7.00
-8.10
-9.19
-9.97
-10.17
-9.65
-8.42
-6.66
-4.62
-2.57
-0.73
0.76
1.84
2.50
2.79
2.79
2.58
2.26
1.95
1.72
1.61
1.57
1.54
1.38
1.03
0.44
-0.30
-1.03
-1.58
-1.85
-1.81
-1.53
-1.18
-0.85
-0.64
-0.53
-0.46
-0.34
-0.13
0.16
0.47
0.71
0.80
0.66
0.28
-0.29
-0.95
-1.54
-1.95
-2.15
-2.19
-2.20
-2.35
-2.70
-3.19
-3.66
-3.89
-3.75
-3.20
-2.34
-1.31
-0.28
0.63
1.37
1.90
2.20
2.23
1.98
1.45
0.71
-0.11
-0.87
-1.45
-1.78
-1.87
-1.80
-1.66
-1.57
-1.62
-1.87
-2.33
-2.92
-3.49
-3.84
-3.80
-3.33
-2.49
-1.43
-0.33
0.71
1.65
2.46
3.11
3.57
3.75
3.64
3.26
2.69
2.04
1.41
0.89
0.54
0.36
0.27
0.16
-0.09
-0.51
-1.04
-1.51
-1.74
-1.61
-1.12
-0.35
0.58
1.52
2.38
3.06
3.51
3.71
3.68
3.49
3.25
3.03
2.85
2.68
2.42
2.02
1.42
0.67
-0.17
-0.95
-1.56
-1.92
-2.09
-2.17
-2.31
-2.55
-2.87
-3.09
-3.04
-2.60
-1.81
-0.79
0.24
1.08
1.63
1.87
1.87
1.71
1.49
1.23
0.93
0.58
0.23
0.02
0.11
0.63
1.57
2.73
3.82
4.52
4.68
4.37
3.87
3.57
3.77
4.57
5.85
7.33
8.72
9.88
10.76
11.43
11.98
12.44
12.79
12.95
12.89
12.61
12.21
11.77
11.39
11.11
10.87
10.56
10.09
9.33
8.23
6.76
4.96
2.90
0.74
-1.33
-3.09
-4.31
-4.83
-4.61
-3.70
-2.25
-0.45
1.56
3.63
5.67
7.61
9.40
11.07
12.70
14.41
16.28
18.31
20.35
22.14
23.35
23.70
23.02
21.30
18.72
15.60
12.36
9.37
6.87
4.88
3.13
1.17
-1.54
-5.33
-10.23
-15.91
-21.78
-27.14
-31.33
-33.85
-34.47
-33.31
-30.77
-27.48
-24.10
-21.15
-18.79
-16.77
-14.59
-11.73
-8.00
-3.71
0.49
3.83
5.91
6.83
7.15
7.59
8.61
10.19
11.83
12.91
13.03
12.32
11.29
10.60
10.65
11.49
12.90
14.57
16.35
18.27
20.41
22.67
24.65
25.70
25.15
22.64
18.31
12.84
7.15
2.08
-1.96
-5.11
-7.79
-10.44
-13.18
-15.71
-17.53
-18.21
-17.68
-16.26
-14.44
-12.60
-10.89
-9.25
-7.66
-6.26
-5.38
-5.31
-6.15
-7.67
-9.38
-10.81
-11.71
-12.09
-12.15
-12.12
-12.17
-12.36
-12.71
-13.18
-13.70
-14.14
-14.32
-14.12
-13.56
-12.83
-12.21
-11.90
-11.97
-12.32
-12.76
-13.11
-13.31
-13.34
-13.25
-13.01
-12.61
-12.06
-11.41
-10.80
-10.35
-10.17
-10.26
-10.54
-10.79
-10.81
-10.43
-9.59
-8.41
-7.07
-5.79
-4.67
-3.75
-2.99
-2.38
-1.93
-1.74
-1.82
-2.17
-2.69
-3.24
-3.71
-4.07
-4.32
-4.48
-4.50
-4.32
-3.87
-3.14
-2.23
-1.29
-0.51
-0.04
0.02
-0.32
-0.98
-1.80
-2.61
-3.25
-3.62
-3.71
-3.61
-3.41
-3.23
-3.11
-3.05
-2.97
-2.80
-2.48
-2.00
-1.41
-0.83
-0.42
-0.36
-0.73
-1.53
-2.60
-3.64
-4.33
-4.39
-3.66
-2.12
0.12
2.81
5.66
8.32
10.46
11.78
12.09
11.33
9.62
7.29
4.83
2.82
1.78
2.02
3.58
6.13
9.12
11.92
14.03
15.16
15.31
14.73
13.85
13.12
12.84
13.07
13.57
13.99
14.04
13.63
12.92
12.19
11.66
11.31
11.00
10.53
9.84
9.02
8.23
7.56
6.97
6.36
5.66
4.90
4.14
3.46
2.89
2.54
2.64
3.58
5.75
9.29
13.88
18.66
22.43
24.09
23.09
19.67
14.81
9.82
5.92
3.74
3.24
3.77
4.42
4.43
3.44
1.63
-0.38
-1.85
-2.23
-1.41
0.15
1.61
2.05
0.93
-1.70
-5.20
-8.72
-11.57
-13.53
-14.80
-15.79
-16.88
-18.37
-20.68
-24.47
-30.78
-40.55
-54.13
-70.72
-88.38
-104.66
-117.50
-126.02
-130.55
-132.10
-131.52
-128.94
-123.94
-116.05
-105.47
-93.13
-80.32
-67.80
-55.18
-40.81
-22.41
1.88
32.57
68.18
105.45
140.01
167.49
184.67
190.20
184.91
171.38
153.12
133.63
115.61
100.48
88.33
78.04
67.71
55.41
39.84
20.99
0.24
-19.97
-36.94
-48.63
-54.20
-54.19
-50.06
-43.71
-37.04
-31.65
-28.75
-28.95
-32.21
-37.65
-43.88
-49.38
-53.09
-54.76
-54.90
-54.43
-54.20
-54.56
-55.26
-55.51
-54.28
-50.56
-43.69
-33.56
-20.85
-6.99
6.01
16.13
21.82
22.58
19.17
13.40
7.59
3.90
3.70
7.25
13.75
21.75
29.66
36.15
40.45
42.34
42.04
40.11
37.29
34.40
32.27
31.56
32.62
35.37
39.34
43.74
47.73
50.72
52.49
53.22
53.46
53.93
55.27
57.74
61.06
64.54
67.19
67.92
65.59
59.50
49.66
37.05
23.46
11.14
2.18
-2.12
-1.57
2.68
8.83
15.15
20.37
23.73
24.90
23.90
21.14
17.42
13.18
9.15
6.19
5.05
5.79
7.85
10.49
13.31
16.44
18.83
19.66
18.40
14.64
7.39
-4.89
-23.68
-49.44
-81.03
-117.96
-157.69
-195.61
-226.18
-245.33
-252.00
-248.08
-237.06
-222.65
-210.83
-205.36
-206.78
-212.78
-220.47
-227.97
-234.86
-241.76
-231.20
-195.11
-138.20
-75.45
-19.85
23.94
57.14
81.91
99.25
109.25
109.10
98.37
79.25
55.92
31.20
8.55
-8.83
-17.20
-12.81
3.95
30.94
63.91
98.19
129.93
157.37
181.11
203.63
228.13
249.34
263.36
267.25
260.36
244.25
222.01
196.69
170.49
144.40
117.79
91.15
65.91
44.49
29.17
20.85
18.45
19.28
20.10
17.81
11.38
1.48
-9.67
-19.12
-24.20
-23.57
-17.80
-9.36
-1.86
1.69
-0.48
-8.16
-19.43
-31.63
-42.44
-50.79
-56.89
-62.00
-67.62
-75.14
-85.31
-97.81
-111.10
-122.61
-129.56
-129.91
-123.25
-110.95
-95.67
-80.37
-67.26
-57.26
-49.95
-44.07
-38.05
-30.60
-21.04
-9.47
3.28
15.92
27.01
35.35
40.16
41.17
38.68
33.53
27.17
21.39
17.99
18.25
22.49
29.91
38.89
47.56
54.36
58.54
60.17
59.97
58.77
57.06
54.69
50.97
45.10
36.66
26.01
14.36
3.32
-5.55
-11.32
-13.79
-13.54
-11.59
-9.08
-6.99
-5.89
-5.89
-6.64
-7.55
-7.97
-7.53
-6.22
-4.36
-2.42
-0.74
0.62
1.88
3.34
5.16
7.16
8.80
9.42
8.49
5.86
1.82
-3.03
-8.09
-12.89
-17.20
-20.98
-24.18
-26.84
-29.09
-31.25
-33.67
-36.65
-40.16
-43.84
-47.10
-49.35
-50.21
-49.57
-47.53
-44.23
-39.80
-34.38
-28.17
-21.47
-14.62
-7.98
-1.74
4.15
10.09
16.74
24.97
35.39
47.95
61.56
74.27
83.99
89.46
91.07
90.71
90.88
93.26
97.80
102.88
106.33
106.78
104.44
100.78
97.47
95.28
93.80
91.93
88.94
85.12
81.61
79.55
79.12
78.98
76.70
69.79
56.80
37.93
14.93
-9.65
-33.42
-54.77
-73.12
-88.71
-102.18
-114.37
-126.12
-138.05
-150.21
-161.70
-170.46
-173.69
-168.98
-155.42
-134.33
-108.93
-83.15
-60.25
-41.93
-28.38
-19.00
-13.24
-10.91
-11.90
-15.59
-20.49
-24.56
-25.77
-22.93
-16.07
-6.25
5.00
16.18
26.28
34.92
42.09
48.03
52.87
56.61
59.12
60.38
60.59
60.24
59.91
59.87
59.85
58.85
55.56
48.84
38.29
24.50
8.82
-7.01
-21.41
-33.23
-41.87
-47.12
-49.08
-48.14
-44.97
-40.52
-35.88
-32.08
-29.86
-29.49
-30.78
-33.08
-35.49
-37.01
-36.82
-34.44
-29.84
-23.40
-15.77
-7.72
0.08
7.04
12.77
17.01
19.68
20.88
20.88
20.12
19.01
17.97
17.13
16.52
15.92
15.12
14.04
12.72
11.40
10.34
9.76
9.68
9.99
10.49
11.00
11.40
11.65
11.80
11.83
11.67
11.17
10.20
8.67
6.64
4.36
2.15
0.42
-0.58
-0.79
-0.45
0.01
0.18
-0.28
-1.36
-2.89
-4.41
-5.46
-5.66
-4.81
-2.99
-0.50
2.14
4.45
6.04
6.81
6.96
6.87
6.93
7.36
8.08
8.73
8.85
8.10
6.43
4.10
1.57
-0.72
-2.55
-3.95
-5.12
-6.17
-7.05
-7.49
-7.15
-5.91
-3.93
-1.68
0.32
1.66
2.22
2.07
1.41
0.44
-0.67
-1.76
-2.68
-3.26
-3.42
-3.20
-2.75
-2.32
-2.02
-1.92
-1.87
-1.72
-1.35
-0.75
-0.04
0.65
1.20
1.64
2.04
2.52
3.07
3.55
3.79
3.59
2.95
1.94
0.80
-0.28
-1.20
-1.95
-2.64
-3.33
-4.06
-4.79
-5.48
-6.07
-6.55
-6.90
-7.13
-7.24
-7.17
-6.89
-6.28
-5.31
-4.00
-2.47
-0.99
0.17
0.75
0.73
0.29
-0.20
-0.34
0.11
1.12
2.36
3.42
3.91
3.63
2.60
0.98
-1.05
-3.32
-5.67
-7.90
-9.72
-10.87
-11.16
-10.57
-9.25
-7.53
-5.76
-4.21
-3.04
-2.29
-1.90
-1.79
-1.89
-2.15
-2.51
-2.91
-3.23
-3.36
-3.22
-2.83
-2.33
-1.91
-1.80
-2.09
-2.77
-3.67
-4.55
-5.14
-5.24
-4.71
-3.51
-1.80
0.20
2.16
3.78
4.89
5.51
5.76
5.76
5.63
5.33
4.81
4.03
3.06
2.01
1.02
0.14
-0.71
-1.63
-2.72
-3.93
-5.09
-5.97
-6.35
-6.14
-5.34
-4.09
-2.53
-0.80
0.97
2.67
4.18
5.41
6.22
6.57
6.45
5.95
5.19
4.33
3.50
2.72
1.98
1.13
0.07
-1.27
-2.85
-4.55
-6.13
-7.29
-7.76
-7.29
-5.87
-3.65
-1.08
1.37
3.27
4.48
5.10
5.37
5.53
5.60
5.46
4.88
3.75
2.15
0.30
-1.50
-3.02
-4.15
-4.96
-5.60
-6.28
-7.17
-8.27
-9.48
-10.49
-11.00
-10.75
-9.72
-8.09
-6.19
-4.31
-2.55
-0.81
1.18
3.54
6.24
8.90
11.02
12.11
11.90
10.45
8.06
5.14
2.07
-0.86
-3.44
-5.49
-6.85
-7.46
-7.38
-6.91
-6.34
-5.94
-5.77
-5.68
-5.45
-4.94
-4.23
-3.51
-3.04
-2.96
-3.26
-3.80
-4.35
-4.70
-4.71
-4.33
-3.60
-2.71
-1.91
-1.48
-1.69
-2.68
-4.44
-6.82
-9.51
-12.12
-14.21
-15.35
-15.24
-13.82
-11.28
-8.09
-4.82
-2.01
0.07
1.41
2.22
2.80
3.29
3.70
3.80
3.37
2.30
0.70
-1.10
-2.71
-3.77
-4.15
-3.91
-3.17
-2.06
-0.70
0.78
2.18
3.14
3.40
2.85
1.76
0.71
0.38
1.23
3.23
5.86
8.25
9.64
9.52
7.86
4.99
1.35
-2.70
-6.96
-11.29
-15.59
-19.57
-22.95
-25.47
-27.09
-27.94
-28.17
-27.76
-26.35
-23.32
-18.01
-10.13
0.04
11.63
23.29
33.59
41.29
45.59
46.21
43.39
37.84
30.56
22.68
15.17
8.73
3.62
-0.29
-3.43
-6.30
-9.30
-12.61
-16.05
-19.17
-21.29
-21.75
-20.19
-16.71
-11.91
-6.66
-1.87
1.93
4.56
6.22
7.12
7.35
6.83
5.40
3.11
0.31
-2.45
-4.56
-5.62
-5.61
-4.80
-3.66
-2.59
-1.77
-1.15
-0.56
0.16
1.05
1.99
2.80
3.34
3.65
3.88
4.25
4.95
6.06
7.58
9.42
11.50
13.70
15.89
17.94
19.70
21.12
22.19
22.91
23.33
23.43
23.17
22.51
21.44
19.98
18.20
16.23
14.25
12.49
11.20
10.52
10.47
10.89
11.49
11.96
12.10
11.84
11.25
10.43
9.43
8.22
6.70
4.83
2.65
0.34
-1.83
-3.61
-4.87
-5.60
-5.93
-6.06
-6.12
-6.15
-6.10
-5.85
-5.30
-4.46
-3.36
-2.09
-0.68
0.85
2.46
4.09
5.56
6.69
7.35
7.47
7.13
6.47
5.70
4.95
4.29
3.73
3.19
2.58
1.86
0.99
0.02
-0.99
-1.97
-2.86
-3.59
-4.13
-4.37
-4.23
-3.67
-2.72
-1.53
-0.28
0.82
1.61
2.02
2.08
1.83
1.34
0.68
-0.14
-1.05
-1.99
-2.84
-3.51
-3.94
-4.13
-4.14
-4.01
-3.74
-3.32
-2.78
-2.18
-1.68
-1.45
-1.54
-1.89
-2.29
-2.56
-2.59
-2.42
-2.19
-2.01
-1.82
-1.48
-0.82
0.17
1.31
2.25
2.67
2.47
1.80
0.98
0.30
-0.06
-0.14
-0.13
-0.20
-0.42
-0.71
-0.85
-0.56
0.37
2.08
4.56
7.64
11.05
14.43
17.42
19.74
21.29
22.09
22.29
22.03
21.46
20.71
19.85
18.95
17.95
16.74
15.13
12.99
10.34
7.43
4.69
2.57
1.36
1.10
1.60
2.56
3.73
4.97
6.27
7.58
8.73
9.36
9.02
7.31
4.09
-0.31
-5.25
-9.85
-13.41
-15.65
-16.84
-17.60
-18.59
-20.29
-22.97
-26.80
-32.12
-39.50
-49.55
-62.56
-78.06
-94.82
-110.94
-124.40
-133.41
-136.57
-132.88
-121.70
-102.92
-77.39
-47.27
-16.01
12.35
34.30
48.04
54.12
55.10
54.45
55.03
57.95
62.41
66.47
68.25
66.99
63.28
58.52
53.96
49.90
45.62
39.97
32.27
22.97
13.54
5.83
1.11
-0.56
-0.39
-0.11
-1.10
-3.73
-7.24
-10.19
-11.31
-10.15
-7.24
-3.80
-1.08
0.22
0.20
-0.48
-1.03
-1.01
-0.44
0.28
0.66
0.54
0.04
-0.39
-0.31
0.54
2.11
4.05
5.90
7.29
8.04
8.21
8.05
7.81
7.62
7.48
7.32
7.03
6.53
5.79
4.82
3.74
2.67
1.70
0.89
0.19
-0.49
-1.18
-1.89
-2.53
-2.84
-2.65
-1.95
-0.90
0.24
1.28
2.25
3.33
4.77
7.00
10.18
13.97
17.65
20.48
21.98
22.22
21.62
20.74
20.57
21.65
23.74
26.06
27.74
28.34
28.11
27.53
27.01
27.58
29.66
32.81
36.01
38.41
39.79
40.87
42.42
44.93
49.60
56.84
65.91
75.17
82.82
87.34
87.96
84.00
68.80
40.32
2.77
-35.06
-65.48
-84.81
-95.61
-100.26
-100.31
-96.84
-89.26
-78.14
-65.56
-54.49
-47.39
-45.25
-46.91
-50.36
-53.46
-53.82
-50.43
-44.04
-36.74
-30.88
-28.01
-28.14
-30.32
-33.09
-34.50
-33.28
-29.24
-23.11
-15.98
-8.72
-1.64
5.18
11.65
17.86
23.62
28.34
31.25
31.76
29.77
25.91
21.15
16.42
12.42
9.31
6.75
4.26
1.52
-1.42
-4.19
-6.43
-7.91
-8.67
-8.95
-9.02
-9.10
-9.24
-9.40
-9.42
-9.17
-8.60
-7.80
-7.04
-6.60
-6.70
-7.38
-8.46
-9.64
-10.63
-11.26
-11.53
-11.54
-11.42
-11.25
-11.07
-10.83
-10.53
-10.10
-9.52
-8.73
-7.68
-6.42
-5.05
-3.76
-2.71
-2.00
-1.64
-1.53
-1.59
-1.80
-2.14
-2.62
-3.18
-3.71
-4.13
-4.39
-4.55
-4.73
-5.09
-5.70
-6.49
-7.27
-7.80
-7.84
-7.32
-6.28
-4.90
-3.41
-1.99
-0.76
0.25
1.02
1.53
1.75
1.69
1.36
0.85
0.26
-0.32
-0.78
-1.09
-1.22
-1.23
-1.20
-1.24
-1.41
-1.69
-1.93
-1.96
-1.59
-0.70
0.69
2.43
4.32
6.08
7.48
8.36
8.66
8.45
7.90
7.19
6.48
5.80
5.12
4.36
3.50
2.61
1.77
1.04
0.39
-0.31
-1.16
-2.16
-3.11
-3.68
-3.57
-2.58
-0.79
1.53
3.97
6.16
7.83
8.86
9.25
9.05
8.31
7.15
5.68
4.07
2.55
1.25
0.25
-0.50
-1.18
-1.96
-2.95
-4.10
-5.17
-5.85
-5.84
-5.00
-3.41
-1.34
0.83
2.75
4.23
5.22
5.80
6.08
6.09
5.84
5.28
4.41
3.33
2.21
1.23
0.52
0.11
-0.10
-0.24
-0.46
-0.84
-1.34
-1.83
-2.13
-2.06
-1.55
-0.62
0.59
1.94
3.28
4.49
5.49
6.19
6.50
6.39
5.88
5.09
4.15
3.25
2.51
1.97
1.62
1.34
0.98
0.44
-0.31
-1.14
-1.83
-2.13
-1.88
-1.02
0.31
1.91
3.56
5.10
6.43
7.51
8.29
8.71
8.69
8.20
7.28
6.07
4.79
3.67
2.89
2.50
2.36
2.25
1.90
1.18
0.15
-1.00
-1.97
-2.52
-2.56
-2.10
-1.30
-0.28
0.82
1.91
2.92
3.75
4.30
4.47
4.25
3.69
2.91
2.02
1.18
0.51
0.09
-0.07
-0.05
0.00
-0.10
-0.46
-1.03
-1.60
-1.88
-1.64
-0.81
0.48
1.96
3.37
4.53
5.43
6.13
6.73
7.29
7.79
8.19
8.44
8.49
8.31
7.90
7.24
6.35
5.25
4.01
2.66
1.25
-0.19
-1.54
-2.65
-3.32
-3.42
-2.91
-1.89
-0.58
0.78
1.98
2.86
3.34
3.44
3.18
2.63
1.83
0.84
-0.30
-1.50
-2.66
-3.62
-4.28
-4.61
-4.67
-4.61
-4.55
-4.51
-4.42
-4.09
-3.35
-2.18
-0.68
0.92
2.36
3.48
4.23
4.70
4.99
5.16
5.16
4.86
4.22
3.29
2.24
1.31
0.69
0.39
0.27
0.15
-0.11
-0.54
-1.06
-1.59
-2.05
-2.44
-2.73
-2.85
-2.68
-2.15
-1.28
-0.21
0.85
1.69
2.20
2.41
2.42
2.37
2.36
2.38
2.38
2.25
1.92
1.39
0.71
0.01
-0.57
-0.94
-1.04
-0.94
-0.73
-0.57
-0.58
-0.85
-1.33
-1.87
-2.27
-2.34
-1.98
-1.24
-0.26
0.80
1.80
2.63
3.22
3.51
3.43
2.95
2.12
1.09
0.11
-0.62
-0.97
-0.97
-0.81
-0.70
-0.83
-1.25
-1.92
-2.70
-3.47
-4.16
-4.75
-5.21
-5.45
-5.38
-4.94
-4.18
-3.25
-2.36
-1.63
-1.10
-0.69
-0.30
0.04
0.26
0.22
-0.14
-0.74
-1.42
-2.02
-2.47
-2.83
-3.20
-3.65
-4.16
-4.69
-5.18
-5.64
-6.10
-6.56
-6.94
-7.11
-6.96
-6.49
-5.85
-5.20
-4.68
-4.27
-3.89
-3.45
-2.96
-2.53
-2.32
-2.48
-3.03
-3.88
-4.91
-6.01
-7.10
-8.11
-9.01
-9.75
-10.33
-10.77
-11.16
-11.61
-12.19
-12.86
-13.50
-13.89
-13.86
-13.33
-12.39
-11.29
-10.33
-9.71
-9.54
-9.72
-10.12
-10.59
-11.06
-11.50
-11.89
-12.15
-12.15
-11.82
-11.16
-10.38
-9.74
-9.52
-9.87
-10.75
-11.97
-13.33
-14.67
-15.92
-17.05
-17.96
-18.45
-18.26
-17.20
-15.31
-12.90
-10.44
-8.39
-6.99
-6.20
-5.75
-5.33
-4.82
-4.28
-3.91
-3.79
-3.80
-3.57
-2.66
-0.72
2.27
6.02
9.98
13.59
16.43
18.41
19.77
20.93
22.35
24.36
27.07
30.37
34.03
37.84
41.65
45.44
49.20
52.84
56.05
58.44
59.51
58.93
56.60
52.74
47.86
42.53
37.22
32.16
27.31
22.47
17.47
12.32
7.26
2.74
-0.72
-2.62
-2.68
-0.89
2.39
6.43
10.22
12.68
12.92
10.58
6.02
0.19
-5.58
-10.10
-12.72
-13.58
-13.39
-13.05
-13.24
-14.17
-15.75
-17.84
-20.39
-23.39
-26.53
-29.02
-29.64
-27.27
-21.44
-12.74
-2.70
6.72
13.83
17.72
18.36
16.43
12.94
8.98
5.59
3.63
3.68
5.85
9.66
14.09
17.88
19.86
19.36
16.40
11.76
6.68
2.60
0.63
1.20
3.82
7.12
9.28
8.65
4.37
-3.22
-12.60
-21.65
-28.39
-31.65
-31.45
-28.82
-25.23
-22.01
-19.90
-19.02
-19.06
-19.62
-20.48
-21.64
-23.23
-25.44
-28.45
-32.47
-37.66
-44.00
-51.03
-57.61
-61.92
-61.79
-55.26
-41.36
-20.49
5.47
33.55
60.38
82.84
98.56
106.14
105.12
95.96
79.91
58.88
35.26
11.58
-9.87
-27.30
-39.68
-46.71
-48.79
-46.93
-42.52
-37.05
-31.76
-27.37
-24.13
-22.09
-21.61
-23.54
-28.94
-38.32
-50.89
-64.17
-74.54
-78.30
-72.99
-58.27
-35.96
-9.42
17.37
40.65
57.41
65.60
64.32
54.14
37.29
17.42
-1.07
-14.24
-19.81
-17.73
-10.04
0.09
9.44
15.61
17.39
14.68
8.18
-0.95
-11.40
-21.89
-31.44
-39.33
-45.08
-48.27
-48.44
-45.26
-38.76
-29.64
-19.26
-9.23
-0.85
5.42
10.03
13.97
18.13
22.90
28.05
33.00
37.16
40.20
42.12
43.07
43.16
42.40
40.79
38.47
35.76
33.14
30.96
29.34
28.12
26.98
25.58
23.82
21.77
19.65
17.72
16.17
15.09
14.48
14.32
14.55
15.13
16.07
17.44
19.33
21.77
24.70
27.85
30.87
33.38
35.17
36.27
36.98
37.72
38.78
40.24
41.86
43.30
44.26
44.70
44.87
45.22
46.19
47.96
50.41
53.16
55.81
58.04
59.76
61.04
61.87
62.14
61.43
59.18
54.84
48.04
38.74
27.29
14.34
0.71
-12.65
-24.84
-35.04
-42.71
-47.65
-50.13
-50.86
-50.97
-51.75
-54.49
-60.17
-69.24
-81.51
-96.11
-111.67
-126.62
-139.46
-149.05
-154.73
-156.21
-153.50
-146.85
-136.65
-123.54
-108.35
-92.03
-75.44
-59.18
-43.62
-28.91
-15.21
-2.73
8.25
17.61
25.48
32.36
38.87
45.62
52.79
60.13
67.03
72.87
77.36
80.64
83.24
85.81
88.80
92.23
95.70
98.44
99.52
98.15
93.89
86.90
77.89
67.98
58.32
49.58
41.70
33.83
24.84
13.77
0.55
-13.98
-28.23
-40.55
-49.93
-56.35
-60.72
-64.28
-67.93
-71.62
-74.40
-74.88
-72.07
-66.01
-57.87
-49.48
-42.50
-37.87
-35.72
-35.96
-38.88
-45.32
-56.26
-71.86
-90.96
-111.34
-130.76
-147.97
-162.82
-175.25
-183.91
-185.61
-176.28
-153.21
-117.14
-72.91
-27.94
10.63
38.58
55.61
64.39
68.49
70.50
71.40
71.06
69.36
66.83
64.57
63.67
64.52
66.56
68.56
69.29
68.14
65.36
61.90
58.89
57.12
56.68
57.01
57.19
56.40
54.27
51.00
47.23
43.71
40.95
38.97
37.38
35.54
32.92
29.30
24.96
20.47
16.52
13.59
11.80
10.90
10.47
10.11
9.63
9.05
8.49
8.06
7.71
7.33
6.77
5.95
4.93
3.84
2.81
1.89
1.01
0.06
-1.02
-2.22
-3.43
-4.46
-5.12
-5.30
-5.01
-4.34
-3.47
-2.57
-1.73
-0.96
-0.19
0.63
1.52
2.39
3.15
3.69
4.00
4.12
4.14
4.14
4.20
4.35
4.59
4.96
5.57
6.56
8.10
10.27
13.08
16.40
20.02
23.64
27.08
30.20
33.04
35.74
38.41
41.11
43.78
46.28
48.61
50.92
53.56
56.95
61.42
67.00
73.35
79.73
85.23
88.96
90.28
89.05
85.61
80.80
75.74
71.57
69.13
68.77
70.27
72.93
75.85
78.10
78.97
78.07
75.35
70.88
64.46
55.40
42.43
24.11
-0.40
-30.54
-64.19
-98.11
-129.16
-155.46
-176.64
-193.31
-205.83
-213.67
-215.74
-211.50
-202.04
-190.26
-179.88
-173.78
-172.98
-176.61
-182.91
-190.38
-198.10
-205.25
-210.17
-209.97
-201.34
-182.08
-152.45
-115.48
-76.12
-39.48
-9.34
12.65
26.71
34.18
36.58
35.16
30.85
24.54
17.33
10.52
5.39
2.80
2.87
4.99
8.11
11.07
13.03
13.75
13.57
13.11
12.96
13.40
14.34
15.45
16.43
17.16
17.82
18.67
19.96
21.77
23.90
25.95
27.41
27.90
27.22
25.57
23.44
21.49
20.29
20.09
20.75
21.80
22.67
22.88
22.15
20.35
17.46
13.55
8.85
3.83
-0.77
-4.20
-5.98
-6.06
-4.88
-3.14
-1.42
-0.04
1.10
2.31
4.00
6.43
9.68
13.68
18.21
22.99
27.63
31.68
34.65
36.06
35.62
33.28
29.34
24.39
19.12
14.13
9.73
5.88
2.39
-0.89
-3.98
-6.71
-8.85
-10.28
-11.06
-11.32
-11.14
-10.50
-9.20
-7.05
-3.97
-0.09
4.30
8.82
13.13
17.02
20.36
23.14
25.40
27.14
28.36
29.06
29.24
28.99
28.44
27.78
27.11
26.42
25.51
24.16
22.16
19.53
16.50
13.53
11.08
9.52
9.00
9.46
10.69
12.47
14.61
16.91
19.19
21.19
22.66
23.41
23.38
22.66
21.41
19.80
17.91
15.78
13.37
10.70
7.79
4.77
1.79
-0.92
-3.06
-4.22
-4.01
-2.20
1.21
5.91
11.24
16.48
20.91
24.03
25.60
25.66
24.44
22.30
19.56
16.44
13.02
9.23
5.01
0.36
-4.56
-9.49
-14.12
-18.22
-21.65
-24.32
-26.13
-26.91
-26.49
-24.81
-21.98
-18.33
-14.29
-10.21
-6.30
-2.59
1.00
4.55
8.03
11.30
14.16
16.47
18.21
19.48
20.49
21.41
22.43
23.56
24.74
25.82
26.64
27.11
27.30
27.46
27.88
28.79
30.20
31.94
33.72
35.26
36.35
36.85
36.62
35.46
33.20
29.81
25.53
20.82
16.18
11.97
8.24
4.85
1.55
-1.71
-4.87
-7.74
-10.18
-12.16
-13.70
-14.78
-15.21
-14.77
-13.26
-10.72
-7.46
-3.96
-0.78
1.62
2.94
3.15
2.37
0.96
-0.66
-2.07
-3.01
-3.43
-3.46
-3.34
-3.25
-3.33
-3.61
-4.11
-4.86
-5.85
-6.99
-8.02
-8.57
-8.30
-7.02
-4.83
-2.04
0.90
3.60
5.71
7.05
7.50
7.02
5.62
3.44
0.71
-2.29
-5.30
-8.14
-10.76
-13.15
-15.35
-17.34
-19.07
-20.50
-21.61
-22.33
-22.60
-22.31
-21.37
-19.82
-17.83
-15.71
-13.75
-12.12
-10.86
-9.90
-9.23
-8.98
-9.37
-10.60
-12.71
-15.41
-18.28
-20.82
-22.69
-23.77
-24.15
-23.99
-23.45
-22.65
-21.64
-20.45
-19.12
-17.57
-15.68
-13.26
-10.13
-6.23
-1.63
3.43
8.56
13.34
17.34
20.20
21.66
21.66
20.36
18.15
15.51
12.91
10.59
8.45
6.18
3.42
0.09
-3.45
-6.54
-8.45
-8.81
-7.77
-5.94
-4.12
-2.89
-2.39
-2.37
-2.42
-2.21
-1.70
-1.08
-0.61
-0.47
-0.70
-1.23
-2.00
-2.97
-4.08
-5.18
-5.94
-5.99
-5.01
-2.93
0.03
3.46
6.91
10.10
12.96
15.59
18.12
20.55
22.76
24.52
25.62
26.00
25.68
24.86
23.70
22.34
20.85
19.23
17.45
15.49
13.36
11.04
8.54
5.84
2.92
-0.14
-3.15
-5.76
-7.55
-8.10
-7.24
-5.06
-1.96
1.52
4.83
7.54
9.46
10.57
10.95
10.72
10.03
9.00
7.74
6.35
4.86
3.23
1.39
-0.72
-3.12
-5.76
-8.51
-11.22
-13.65
-15.59
-16.83
-17.31
-17.09
-16.37
-15.38
-14.40
-13.63
-13.25
-13.41
-14.19
-15.55
-17.31
-19.17
-20.79
-21.86
-22.20
-21.80
-20.76
-19.28
-17.58
-15.90
-14.43
-13.26
-12.36
-11.56
-10.56
-9.07
-6.92
-4.11
-0.89
2.38
5.22
7.27
8.28
8.25
7.38
5.97
4.34
2.72
1.23
-0.06
-1.08
-1.73
-1.91
-1.54
-0.66
0.63
2.18
3.91
5.83
8.03
10.64
13.60
16.66
19.40
21.28
21.90
21.08
18.97
15.94
12.50
9.10
6.10
3.70
2.00
1.03
0.73
0.96
1.52
2.22
2.86
3.34
3.70
4.00
4.32
4.67
5.01
5.22
5.23
5.04
4.68
4.17
3.50
2.62
1.51
0.23
-1.08
-2.23
-3.12
-3.72
-4.19
-4.74
-5.60
-6.91
-8.71
-10.96
-13.57
-16.41
-19.30
-22.02
-24.30
-25.90
-26.65
-26.53
-25.68
-24.35
-22.79
-21.12
-19.24
-16.88
-13.73
-9.59
-4.56
0.92
6.22
10.69
13.85
15.56
15.97
15.52
14.74
14.12
14.07
14.74
15.93
17.14
17.59
16.54
13.57
8.84
3.11
-2.49
-6.82
-9.16
-9.34
-7.71
-4.88
-1.49
1.94
4.99
7.32
8.67
8.87
7.96
6.25
4.27
2.58
1.66
1.71
2.66
4.19
5.81
7.06
7.56
7.10
5.68
3.48
0.74
-2.28
-5.39
-8.44
-11.32
-13.88
-15.88
-17.10
-17.41
-16.83
-15.60
-14.10
-12.70
-11.67
-11.08
-10.76
-10.49
-10.01
-9.25
-8.25
-7.25
-6.47
-6.09
-6.14
-6.51
-7.06
-7.63
-8.15
-8.59
-9.00
-9.38
-9.69
-9.85
-9.69
-9.13
-8.17
-6.96
-5.78
-4.90
-4.55
-4.75
-5.41
-6.32
-7.34
-8.41
-9.53
-10.76
-12.08
-13.45
-14.76
-15.94
-16.93
-17.70
-18.17
-18.19
-17.63
-16.31
-14.18
-11.28
-7.80
-4.03
-0.33
2.91
5.36
6.75
7.01
6.22
4.60
2.45
0.10
-2.15
-4.05
-5.39
-6.06
-6.11
-5.75
-5.29
-5.02
-5.01
-5.08
-4.94
-4.26
-2.94
-1.04
1.23
3.68
6.19
8.68
11.11
13.32
15.14
16.35
16.87
16.71
16.05
15.08
13.98
12.85
11.69
10.48
9.16
7.67
5.98
4.08
2.06
0.06
-1.72
-3.07
-3.80
-3.80
-3.09
-1.82
-0.21
1.49
3.00
4.15
4.81
4.86
4.21
2.77
0.54
-2.35
-5.54
-8.50
-10.64
-11.56
-11.14
-9.69
-7.82
-6.15
-5.09
-4.62
-4.32
-3.59
-1.94
0.74
4.15
7.68
10.75
12.96
14.25
14.81
14.97
15.04
15.23
15.62
16.18
16.74
17.02
16.76
15.82
14.30
12.62
11.31
10.89
11.62
13.47
16.09
19.03
21.76
23.79
24.73
24.29
22.35
19.01
14.57
9.38
3.75
-2.16
-8.24
-14.26
-19.77
-24.09
-26.58
-26.87
-25.13
-22.06
-18.57
-15.53
-13.42
-12.35
-12.17
-12.69
-13.79
-15.34
-17.10
-18.69
-19.63
-19.55
-18.40
-16.49
-14.31
-12.39
-11.05
-10.29
-9.89
-9.57
-9.09
-8.36
-7.46
-6.57
-5.92
-5.74
-6.13
-7.03
-8.15
-8.98
-8.91
-7.42
-4.30
0.24
5.52
10.60
14.60
17.08
18.19
18.64
19.45
21.46
24.95
29.38
33.35
34.91
32.13
23.83
10.23
-6.84
-24.26
-38.45
-46.39
-46.53
-39.08
-25.94
-10.08
5.24
17.14
23.68
24.21
19.54
11.67
3.25
-3.25
-6.24
-5.32
-1.14
5.16
12.42
19.66
26.00
30.58
32.53
31.27
26.95
20.62
13.98
8.85
6.36
6.64
8.78
11.43
13.37
13.92
13.01
10.94
8.06
4.66
1.03
-2.43
-5.12
-6.37
-5.75
-3.27
0.51
4.73
8.48
11.14
12.45
12.37
11.05
8.70
5.68
2.52
-0.17
-1.88
-2.43
-2.14
-1.70
-1.82
-2.98
-5.27
-8.44
-12.14
-16.08
-20.02
-23.63
-26.37
-27.60
-26.77
-23.75
-18.93
-13.04
-6.88
-1.00
4.36
9.18
13.43
16.95
19.44
20.61
20.33
18.74
16.23
13.34
10.58
8.32
6.78
6.10
6.36
7.62
9.92
13.22
17.29
21.79
26.20
30.03
32.90
34.69
35.58
35.98
36.33
36.99
38.04
39.27
40.29
40.67
40.16
38.67
36.29
33.06
28.97
23.94
18.00
11.38
4.56
-1.94
-7.74
-12.75
-17.20
-21.36
-25.37
-29.08
-32.04
-33.81
-34.10
-33.06
-31.20
-29.25
-27.86
-27.40
-27.83
-28.81
-29.88
-30.65
-31.01
-31.08
-31.12
-31.33
-31.72
-32.16
-32.37
-32.14
-31.38
-30.07
-28.27
-25.97
-23.09
-19.54
-15.37
-10.80
-6.24
-2.14
1.12
3.38
4.70
5.35
5.61
5.76
5.95
6.20
6.48
6.68
6.74
6.62
6.35
5.98
5.60
5.26
4.98
4.75
4.57
4.44
4.39
4.44
4.62
4.92
5.30
5.72
6.14
6.51
6.79
6.98
7.03
6.93
6.70
6.38
6.09
5.98
6.15
6.64
7.39
8.21
8.90
9.27
9.18
8.57
7.39
5.67
3.45
0.87
-1.85
-4.44
-6.65
-8.32
-9.39
-9.92
-9.99
-9.74
-9.24
-8.58
-7.84
-7.07
-6.35
-5.71
-5.23
-4.97
-4.96
-5.19
-5.61
-6.11
-6.64
-7.11
-7.46
-7.58
-7.34
-6.64
-5.50
-4.03
-2.46
-1.02
0.15
1.02
1.68
2.27
2.89
3.56
4.26
4.91
5.44
5.78
5.89
5.75
5.41
4.96
4.49
4.07
3.69
3.29
2.75
1.99
1.01
-0.10
-1.19
-2.08
-2.65
-2.80
-2.52
-1.82
-0.71
0.73
2.39
4.13
5.82
7.43
9.03
10.84
13.13
16.10
19.86
24.28
29.02
33.51
37.06
38.93
38.56
35.71
30.53
23.58
15.65
7.56
0.00
-6.54
-11.77
-15.50
-17.69
-18.38
-17.83
-16.48
-14.87
-13.52
-12.74
-12.59
-12.93
-13.50
-14.10
-14.63
-15.10
-15.58
-16.10
-16.62
-17.01
-17.12
-16.84
-16.19
-15.28
-14.28
-13.32
-12.43
-11.51
-10.45
-9.19
-7.80
-6.50
-5.52
-5.00
-4.91
-5.10
-5.37
-5.62
-5.88
-6.28
-6.94
-7.84
-8.89
-9.89
-10.71
-11.34
-11.88
-12.48
-13.22
-14.05
-14.84
-15.36
-15.45
-15.06
-14.23
-13.08
-11.75
-10.43
-9.25
-8.30
-7.60
-7.11
-6.71
-6.32
-5.89
-5.44
-5.06
-4.84
-4.82
-5.01
-5.36
-5.77
-6.14
-6.35
-6.31
-5.99
-5.45
-4.84
-4.27
-3.83
-3.47
-3.08
-2.50
-1.60
-0.30
1.39
3.38
5.51
7.60
9.41
10.79
11.64
12.00
11.99
11.74
11.35
10.82
10.07
9.05
7.86
6.71
5.93
5.75
6.22
7.15
8.21
9.08
9.61
9.86
10.00
10.18
10.49
10.91
11.44
12.07
12.81
13.58
14.22
14.49
14.22
13.41
12.27
11.18
10.57
10.74
11.78
13.56
15.75
17.94
19.76
21.01
21.71
22.01
22.16
22.35
22.62
22.90
23.04
22.85
22.24
21.14
19.61
17.76
15.81
13.96
12.40
11.18
10.16
9.07
7.57
5.42
2.60
-0.63
-3.82
-6.45
-8.18
-8.96
-9.01
-8.79
-8.76
-9.34
-10.79
-13.19
-16.39
-20.00
-23.47
-26.18
-27.64
-27.67
-26.48
-24.58
-22.51
-20.72
-19.33
-18.30
-17.45
-16.65
-15.87
-15.09
-14.29
-13.43
-12.48
-11.49
-10.58
-9.94
-9.66
-9.73
-9.94
-10.03
-9.71
-8.81
-7.30
-5.33
-3.18
-1.15
0.45
1.44
1.77
1.57
1.07
0.47
-0.10
-0.64
-1.22
-1.92
-2.67
-3.37
-3.85
-4.07
-4.11
-4.16
-4.45
-5.11
-6.11
-7.28
-8.40
-9.28
-9.82
-10.04
-9.98
-9.70
-9.21
-8.48
-7.52
-6.45
-5.53
-5.04
-5.21
-6.07
-7.48
-9.14
-10.77
-12.17
-13.27
-14.10
-14.76
-15.31
-15.82
-16.31
-16.78
-17.25
-17.65
-17.87
-17.68
-16.82
-15.04
-12.28
-8.72
-4.76
-0.91
2.39
4.92
6.70
7.95
8.89
9.65
10.20
10.47
10.36
9.88
9.14
8.29
7.47
6.79
6.25
5.79
5.28
4.61
3.82
3.07
2.66
2.93
4.07
6.02
8.51
11.10
13.39
15.15
16.33
17.00
17.29
17.23
16.84
16.06
14.85
13.20
11.15
8.79
6.24
3.68
1.26
-0.88
-2.63
-3.97
-5.01
-6.01
-7.44
-9.76
-13.25
-17.72
-22.49
-26.50
-28.77
-28.76
-26.60
-22.98
-18.87
-15.03
-11.86
-9.30
-6.99
-4.51
-1.49
2.26
6.73
11.66
16.58
20.91
24.16
26.03
26.52
25.91
24.62
23.05
21.49
20.06
18.67
17.13
15.19
12.68
9.53
5.94
2.26
-1.01
-3.46
-4.84
-5.09
-4.30
-2.64
-0.25
2.67
5.87
9.02
11.77
13.80
14.95
15.20
14.68
13.58
12.15
10.63
9.24
8.20
7.64
7.66
8.25
9.30
10.67
12.16
13.56
14.61
15.16
15.15
14.67
13.93
13.19
12.58
12.12
11.68
11.07
10.15
8.88
7.35
5.72
4.17
2.88
1.96
1.50
1.49
1.87
2.47
3.08
3.53
3.76
3.78
3.68
3.49
3.19
2.68
1.90
0.88
-0.20
-1.11
-1.63
-1.73
-1.54
-1.29
-1.20
-1.34
-1.63
-1.89
-1.98
-1.80
-1.38
-0.78
-0.02
0.90
1.96
3.13
4.27
5.25
5.94
6.32
6.45
6.37
6.13
5.67
4.95
3.96
2.82
1.71
0.85
0.38
0.28
0.37
0.40
0.11
-0.59
-1.60
-2.63
-3.33
-3.42
-2.84
-1.78
-0.56
0.42
0.92
0.89
0.46
-0.18
-0.96
-1.90
-3.12
-4.69
-6.48
-8.24
-9.73
-10.91
-12.02
-13.51
-15.80
-19.05
-23.05
-27.34
-31.40
-34.85
-37.50
-39.25
-39.99
-39.52
-37.72
-34.61
-30.55
-26.05
-21.65
-17.61
-13.84
-10.02
-5.80
-1.06
4.01
8.95
13.32
16.83
19.47
21.43
22.90
23.99
24.64
24.72
24.15
22.98
21.43
19.82
18.47
17.58
17.16
17.10
17.22
17.40
17.59
17.82
18.08
18.26
18.22
17.83
17.10
16.13
15.08
13.99
12.79
11.33
9.51
7.39
5.18
3.15
1.43
-0.02
-1.32
-2.57
-3.70
-4.50
-4.75
-4.40
-3.65
-2.93
-2.68
-3.17
-4.31
-5.73
-6.90
-7.44
-7.20
-6.37
-5.29
-4.35
-3.80
-3.66
-3.88
-4.34
-5.00
-5.83
-6.83
-7.93
-8.94
-9.65
-9.87
-9.52
-8.63
-7.34
-5.88
-4.47
-3.30
-2.50
-2.08
-1.96
-2.04
-2.22
-2.45
-2.76
-3.15
-3.63
-4.12
-4.48
-4.58
-4.37
-3.87
-3.20
-2.54
-2.01
-1.65
-1.34
-0.89
-0.08
1.21
2.89
4.68
6.22
7.20
7.52
7.25
6.62
5.79
4.82
3.66
2.26
0.65
-0.94
-2.26
-3.09
-3.39
-3.30
-3.06
-2.83
-2.66
-2.48
-2.16
-1.66
-1.02
-0.36
0.18
0.50
0.56
0.37
-0.04
-0.61
-1.25
-1.80
-2.12
-2.16
-1.95
-1.68
-1.54
-1.68
-2.12
-2.75
-3.40
-3.88
-4.11
-4.03
-3.63
-2.94
-2.03
-1.05
-0.16
0.49
0.87
1.09
1.37
1.92
2.85
4.12
5.55
6.93
8.04
8.76
9.05
8.96
8.59
8.06
7.49
6.94
6.42
5.90
5.33
4.64
3.79
2.77
1.59
0.28
-1.11
-2.51
-3.82
-4.93
-5.72
-6.09
-5.98
-5.41
-4.49
-3.38
-2.26
-1.23
-0.32
0.48
1.20
1.82
2.30
2.62
2.83
3.07
3.47
4.08
4.82
5.52
6.02
6.25
6.28
6.25
6.23
6.20
6.04
5.69
5.20
4.77
4.59
4.78
5.19
5.53
5.46
4.80
3.59
2.10
0.67
-0.41
-1.00
-1.09
-0.80
-0.31
0.26
0.84
1.42
2.03
2.67
3.32
3.93
4.47
4.87
5.09
5.06
4.77
4.19
3.37
2.42
1.45
0.56
-0.21
-0.85
-1.39
-1.82
-2.11
-2.23
-2.18
-2.03
-1.89
-1.86
-1.97
-2.21
-2.53
-2.89
-3.24
-3.58
-3.90
-4.17
-4.38
-4.47
-4.38
-4.07
-3.50
-2.66
-1.64
-0.59
0.27
0.75
0.78
0.41
-0.16
-0.71
-1.09
-1.31
-1.47
-1.70
-2.07
-2.56
-3.06
-3.47
-3.74
-3.85
-3.80
-3.59
-3.21
-2.72
-2.24
-1.94
-1.96
-2.34
-2.93
-3.50
-3.77
-3.59
-2.97
-2.07
-1.15
-0.42
0.02
0.20
0.25
0.32
0.44
0.57
0.57
0.30
-0.25
-0.95
-1.57
-1.90
-1.83
-1.46
-0.97
-0.59
-0.44
-0.49
-0.61
-0.65
-0.53
-0.24
0.14
0.58
1.08
1.68
2.39
3.16
3.93
4.68
5.50
6.55
8.05
10.08
12.55
15.12
17.35
18.80
19.17
18.41
16.69
14.40
12.04
10.06
8.77
8.30
8.57
9.36
10.41
11.42
12.15
12.32
11.73
10.29
8.06
5.30
2.30
-0.69
-3.60
-6.50
-9.58
-12.95
-16.58
-20.27
-23.67
-26.42
-28.28
-29.19
-29.29
-28.84
-28.04
-26.87
-25.10
-22.32
-18.13
-12.33
-5.00
3.47
12.46
21.16
28.69
34.15
36.85
36.50
33.39
28.35
22.58
17.33
13.50
11.50
11.21
12.17
13.84
15.79
17.85
20.05
22.56
25.58
29.13
33.06
36.95
40.21
42.20
42.40
40.62
37.12
32.51
27.59
22.96
18.89
15.24
11.60
7.52
2.76
-2.69
-8.56
-14.39
-19.67
-23.91
-26.84
-28.47
-29.17
-29.61
-30.59
-32.75
-36.37
-41.28
-46.90
-52.44
-57.11
-60.29
-61.64
-61.10
-58.85
-55.27
-50.87
-46.19
-41.79
-38.11
-35.37
-33.52
-32.22
-31.03
-29.54
-27.55
-25.10
-22.44
-19.80
-17.34
-15.07
-12.91
-10.78
-8.62
-6.36
-3.90
-1.12
2.04
5.45
8.80
11.67
13.73
14.90
15.34
15.39
15.29
15.11
14.69
13.86
12.57
10.95
9.30
7.82
6.62
5.61
4.67
3.73
2.85
2.13
1.62
1.21
0.64
-0.34
-1.86
-3.83
-5.99
-8.04
-9.74
-11.07
-12.11
-13.00
-13.85
-14.67
-15.44
-16.05
-16.46
-16.61
-16.45
-15.95
-15.16
-14.15
-13.07
-12.05
-11.18
-10.54
-10.15
-10.00
-10.00
-9.83
-8.96
-6.74
-2.70
3.18
10.30
17.60
23.99
28.74
31.81
33.73
35.32
37.25
39.79
42.79
45.84
48.50
50.48
51.68
52.09
51.77
50.77
49.16
47.05
44.57
41.84
38.89
35.70
32.25
28.63
25.05
21.81
19.14
17.05
15.24
13.21
10.41
6.46
1.29
-4.83
-11.31
-17.40
-22.36
-25.68
-27.30
-27.79
-28.15
-29.50
-32.49
-36.92
-41.72
-45.33
-46.46
-44.57
-40.12
-34.16
-27.82
-21.85
-16.52
-11.79
-7.68
-4.34
-2.00
-0.73
-0.25
0.05
0.86
2.67
5.55
9.23
13.14
16.74
19.55
21.33
22.04
21.81
20.90
19.58
18.07
16.39
14.36
11.64
7.84
2.79
-3.34
-9.98
-16.34
-21.60
-25.25
-27.12
-27.36
-26.24
-24.08
-21.13
-17.70
-14.19
-11.05
-8.64
-7.08
-6.24
-5.77
-5.32
-4.66
-3.78
-2.81
-1.89
-1.06
-0.27
0.59
1.58
2.70
3.86
4.93
5.79
6.38
6.71
6.87
6.93
6.91
6.74
6.23
5.15
3.20
0.16
-4.09
-9.42
-15.41
-21.37
-26.51
-30.11
-31.74
-31.38
-29.33
-26.16
-22.47
-18.78
-15.51
-12.92
-11.12
-10.10
-9.75
-9.92
-10.51
-11.52
-12.99
-14.93
-17.27
-19.78
-22.14
-23.92
-24.63
-23.68
-20.54
-14.90
-7.01
2.22
11.34
18.75
23.24
24.40
22.62
18.86
14.13
9.25
4.64
0.51
-3.07
-6.07
-8.55
-10.61
-12.38
-13.82
-14.70
-14.68
-13.56
-11.43
-8.78
-6.25
-4.37
-3.29
-2.79
-2.38
-1.63
-0.35
1.38
3.37
5.35
7.13
8.53
9.40
9.56
8.98
7.86
6.65
5.97
6.32
7.89
10.36
13.05
15.13
15.93
15.26
13.38
10.93
8.67
7.17
6.71
7.17
8.22
9.47
10.66
11.68
12.55
13.33
14.02
14.61
15.08
15.48
15.90
16.50
17.37
18.57
20.10
21.86
23.62
24.98
25.38
24.31
21.56
17.37
12.41
7.55
3.43
0.23
-2.37
-4.97
-8.09
-11.93
-16.36
-21.01
-25.56
-29.87
-33.93
-37.74
-41.12
-43.67
-44.83
-44.18
-41.60
-37.45
-32.43
-27.35
-22.84
-19.15
-16.12
-13.38
-10.56
-7.49
-4.22
-0.93
2.30
5.58
9.18
13.41
18.36
23.79
29.12
33.69
36.90
38.36
37.96
35.73
31.82
26.55
20.43
14.22
8.75
4.69
2.26
1.17
0.76
0.33
-0.54
-1.83
-3.17
-4.08
-4.20
-3.47
-2.08
-0.40
1.22
2.57
3.56
4.18
4.45
4.32
3.72
2.64
1.18
-0.38
-1.72
-2.57
-2.83
-2.56
-1.95
-1.22
-0.51
0.13
0.73
1.32
1.93
2.53
3.06
3.42
3.56
3.46
3.18
2.86
2.60
2.48
2.45
2.36
1.96
1.06
-0.38
-2.12
-3.66
-4.38
-3.78
-1.69
1.67
5.76
9.91
13.51
16.14
17.56
17.70
16.58
14.37
11.40
8.10
4.97
2.40
0.60
-0.40
-0.77
-0.74
-0.57
-0.43
-0.42
-0.52
-0.57
-0.42
0.07
0.89
1.92
3.00
3.91
4.58
5.04
5.41
5.77
6.09
6.22
5.92
5.04
3.57
1.75
-0.07
-1.54
-2.48
-2.91
-3.02
-3.03
-3.11
-3.37
-3.85
-4.59
-5.54
-6.54
-7.30
-7.47
-6.76
-5.15
-2.85
-0.25
2.28
4.61
6.83
9.15
11.69
14.32
16.61
18.04
18.17
16.86
14.32
11.00
7.38
3.83
0.56
-2.37
-4.89
-6.94
-8.44
-9.37
-9.82
-9.97
-10.07
-10.36
-11.00
-12.00
-13.20
-14.24
-14.53
-13.47
-10.53
-5.58
1.05
8.54
15.83
21.93
26.15
28.26
28.43
27.02
24.51
21.27
17.66
13.99
10.58
7.68
5.50
4.07
3.31
3.06
3.16
3.45
3.81
4.14
4.28
4.08
3.36
2.00
-0.05
-2.75
-5.96
-9.35
-12.51
-14.93
-16.19
-16.13
-14.85
-12.70
-10.14
-7.49
-4.87
-2.21
0.63
3.65
6.59
8.92
10.03
9.40
6.91
2.87
-2.03
-6.91
-11.02
-13.88
-15.38
-15.61
-14.77
-13.04
-10.69
-8.09
-5.76
-4.27
-4.02
-5.06
-7.07
-9.46
-11.69
-13.43
-14.63
-15.35
-15.63
-15.43
-14.64
-13.23
-11.27
-8.94
-6.41
-3.77
-1.08
1.59
4.08
6.14
7.47
7.82
7.15
5.57
3.36
0.83
-1.66
-3.84
-5.60
-7.00
-8.26
-9.61
-11.14
-12.67
-13.80
-14.08
-13.24
-11.31
-8.59
-5.50
-2.37
0.61
3.34
5.73
7.71
9.19
10.20
10.90
11.50
12.13
12.80
13.33
13.47
12.90
11.43
8.99
5.68
1.82
-2.09
-5.53
-8.14
-9.89
-11.13
-12.39
-14.13
-16.41
-18.93
-21.14
-22.49
-22.66
-21.59
-19.43
-16.40
-12.78
-8.94
-5.26
-2.19
-0.04
1.10
1.36
1.12
0.80
0.71
0.95
1.45
1.97
2.23
2.07
1.53
0.84
0.38
0.43
1.12
2.29
3.65
4.93
6.06
7.10
8.21
9.42
10.56
11.30
11.30
10.37
8.59
6.24
3.64
1.03
-1.47
-3.83
-5.97
-7.74
-8.98
-9.57
-9.51
-8.93
-8.02
-6.90
-5.62
-4.12
-2.38
-0.46
1.45
3.10
4.23
4.69
4.50
3.79
2.80
1.77
0.87
0.23
-0.11
-0.15
0.07
0.51
1.15
1.96
2.97
4.23
5.77
7.56
9.50
11.31
12.62
13.07
12.45
10.80
8.46
5.96
3.84
2.49
1.98
2.07
2.27
2.01
0.82
-1.56
-5.03
-9.22
-13.48
-17.14
-19.68
-20.87
-20.84
-19.94
-18.61
-17.22
-15.96
-14.87
-13.89
-12.91
-11.84
-10.57
-9.03
-7.11
-4.78
-2.01
1.14
4.58
8.16
11.68
14.90
17.58
19.51
20.57
20.72
19.90
18.10
15.33
11.64
7.22
2.37
-2.57
-7.23
-11.26
-14.37
-16.34
-17.04
-16.55
-15.12
-13.18
-11.16
-9.37
-7.91
-6.74
-5.80
-5.12
-4.83
-5.08
-5.83
-6.80
-7.56
-7.66
-6.89
-5.32
-3.27
-1.09
1.00
2.98
4.91
6.76
8.30
9.08
8.68
6.94
4.10
0.79
-2.28
-4.57
-5.87
-6.25
-5.85
-4.67
-2.59
0.41
4.04
7.66
10.46
11.81
11.50
9.81
7.33
4.63
2.09
-0.12
-1.92
-3.25
-4.02
-4.27
-4.15
-3.97
-3.95
-4.11
-4.25
-4.02
-3.18
-1.68
0.32
2.51
4.60
6.38
7.77
8.81
9.70
10.69
12.05
13.90
16.19
18.62
20.77
22.23
22.79
22.43
21.27
19.47
17.19
14.55
11.69
8.82
6.22
4.12
2.66
1.80
1.37
1.14
0.92
0.58
0.14
-0.35
-0.77
-1.04
-1.15
-1.17
-1.29
-1.78
-2.83
-4.49
-6.58
-8.74
-10.55
-11.66
-11.94
-11.44
-10.34
-8.85
-7.18
-5.47
-3.87
-2.51
-1.50
-0.85
-0.46
-0.19
0.12
0.49
0.81
0.86
0.41
-0.64
-2.14
-3.75
-5.00
-5.50
-5.04
-3.70
-1.81
0.15
1.75
2.71
2.95
2.54
1.71
0.70
-0.26
-0.97
-1.38
-1.50
-1.46
-1.38
-1.37
-1.44
-1.55
-1.59
-1.42
-0.97
-0.18
0.89
2.15
3.44
4.68
5.88
7.11
8.50
10.03
11.53
12.68
13.21
13.08
12.57
12.22
12.52
13.66
15.36
16.89
17.31
15.89
12.39
7.18
1.18
-4.45
-8.75
-11.25
-12.17
-12.18
-12.17
-12.79
-14.27
-16.30
-18.30
-19.61
-19.81
-18.81
-16.95
-14.80
-12.97
-11.94
-11.84
-12.45
-13.29
-13.84
-13.66
-12.61
-10.81
-8.55
-6.20
-4.05
-2.28
-0.96
-0.02
0.66
1.27
2.03
3.10
4.53
6.25
8.09
9.80
11.21
12.20
12.77
12.95
12.74
12.11
11.01
9.42
7.38
5.04
2.56
0.10
-2.25
-4.41
-6.39
-8.12
-9.52
-10.47
-10.79
-10.39
-9.29
-7.67
-5.83
-4.09
-2.66
-1.55
-0.61
0.36
1.48
2.74
4.00
5.12
6.07
6.93
7.82
8.82
9.86
10.77
11.34
11.42
10.97
10.12
9.08
8.09
7.34
6.91
6.71
6.50
5.93
4.60
2.24
-1.21
-5.58
-10.44
-15.23
-19.35
-22.35
-24.01
-24.35
-23.54
-21.79
-19.25
-15.94
-11.88
-7.18
-2.20
2.54
6.49
9.23
10.64
10.86
10.18
8.94
7.34
5.52
3.53
1.43
-0.67
-2.63
-4.30
-5.54
-6.27
-6.42
-6.00
-5.06
-3.73
-2.20
-0.65
0.76
1.92
2.77
3.28
3.42
3.18
2.58
1.72
0.78
-0.05
-0.60
-0.82
-0.77
-0.55
-0.35
-0.29
-0.47
-0.89
-1.46
-2.03
-2.38
-2.31
-1.75
-0.75
0.51
1.80
2.95
3.85
4.47
4.84
4.96
4.87
4.57
4.11
3.54
2.92
2.29
1.66
1.03
0.39
-0.23
-0.82
-1.35
-1.82
-2.23
-2.60
-2.92
-3.18
-3.34
-3.37
-3.25
-2.96
-2.50
-1.91
-1.25
-0.61
-0.11
0.17
0.18
-0.09
-0.55
-1.05
-1.39
-1.36
-0.82
0.26
1.79
3.58
5.41
7.10
8.58
9.86
11.03
12.14
13.17
14.07
14.74
15.14
15.36
15.52
15.82
16.39
17.23
18.19
19.00
19.34
18.91
17.58
15.40
12.63
9.61
6.70
4.07
1.76
-0.36
-2.41
-4.47
-6.48
-8.34
-9.94
-11.20
-12.09
-12.55
-12.57
-12.15
-11.34
-10.29
-9.21
-8.33
-7.80
-7.72
-8.04
-8.66
-9.42
-10.18
-10.85
-11.38
-11.78
-12.02
-12.04
-11.76
-11.07
-9.98
-8.60
-7.16
-5.91
-5.00
-4.43
-4.04
-3.61
-2.92
-1.89
-0.56
0.96
2.52
4.00
5.30
6.38
7.17
7.63
7.73
7.47
6.87
6.05
5.15
4.34
3.74
3.41
3.33
3.40
3.49
3.48
3.33
3.03
2.68
2.35
2.12
2.06
2.22
2.69
3.54
4.78
6.32
7.89
9.13
9.69
9.38
8.27
6.63
4.84
3.22
1.94
1.07
0.59
0.52
0.87
1.62
2.64
3.65
4.35
4.49
4.01
3.06
1.97
1.07
0.64
0.75
1.28
2.00
2.61
2.90
2.75
2.20
1.37
0.45
-0.39
-0.98
-1.24
-1.13
-0.65
0.17
1.28
2.57
3.84
4.80
5.16
4.74
3.53
1.80
-0.09
-1.75
-2.98
-3.80
-4.36
-4.82
-5.22
-5.44
-5.27
-4.63
-3.56
-2.30
-1.12
-0.18
0.49
0.99
1.45
1.93
2.43
2.92
3.36
3.73
3.99
4.11
4.03
3.78
3.44
3.13
2.94
2.90
2.92
2.93
2.91
2.93
3.08
3.45
4.04
4.78
5.62
6.54
7.54
8.59
9.55
10.24
10.45
10.12
9.33
8.28
7.20
6.24
5.47
4.87
4.36
3.93
3.56
3.26
2.99
2.67
2.16
1.36
0.22
-1.22
-2.77
-4.21
-5.31
-5.94
-6.06
-5.79
-5.28
-4.68
-4.09
-3.55
-3.05
-2.59
-2.20
-1.91
-1.76
-1.76
-1.92
-2.25
-2.71
-3.22
-3.67
-3.93
-3.94
-3.76
-3.51
-3.33
-3.34
-3.52
-3.80
-4.05
-4.18
-4.18
-4.08
-3.96
-3.84
-3.75
-3.64
-3.46
-3.18
-2.82
-2.43
-2.09
-1.89
-1.87
-2.06
-2.41
-2.89
-3.46
-4.05
-4.59
-4.97
-5.15
-5.11
-4.99
-4.94
-5.13
-5.62
-6.37
-7.21
-7.91
-8.32
-8.34
-8.04
-7.52
-6.95
-6.46
-6.15
-6.04
-6.12
-6.33
-6.57
-6.72
-6.67
-6.36
-5.79
-5.02
-4.13
-3.16
-2.08
-0.88
0.42
1.66
2.58
2.97
2.76
2.11
1.34
0.76
0.54
0.62
0.84
1.00
1.06
1.08
1.16
1.34
1.58
1.75
1.75
1.52
1.06
0.43
-0.32
-1.13
-1.91
-2.57
-3.02
-3.21
-3.21
-3.12
-3.07
-3.10
-3.19
-3.25
-3.21
-3.03
-2.73
-2.33
-1.84
-1.22
-0.43
0.52
1.62
2.79
3.97
5.14
6.26
7.31
8.20
8.84
9.16
9.18
8.98
8.70
8.41
8.10
7.71
7.19
6.55
5.87
5.21
4.60
3.99
3.30
2.53
1.76
1.14
0.80
0.75
0.87
0.97
0.90
0.66
0.36
0.15
0.10
0.16
0.16
-0.03
-0.48
-1.16
-1.94
-2.74
-3.48
-4.16
-4.76
-5.27
-5.69
-6.03
-6.35
-6.71
-7.16
-7.67
-8.19
-8.59
-8.77
-8.64
-8.20
-7.51
-6.71
-5.89
-5.12
-4.39
-3.64
-2.83
-2.00
-1.25
-0.69
-0.34
-0.16
-0.02
0.19
0.52
0.88
1.15
1.20
0.96
0.50
-0.04
-0.48
-0.73
-0.75
-0.64
-0.53
-0.56
-0.78
-1.10
-1.37
-1.40
-1.08
-0.39
0.56
1.60
2.56
3.32
3.84
4.18
4.41
4.59
4.70
4.66
4.41
3.89
3.19
2.42
1.73
1.21
0.87
0.66
0.50
0.36
0.28
0.37
0.70
1.31
2.14
3.08
3.97
4.68
5.14
5.35
5.35
5.17
4.85
4.39
3.81
3.17
2.54
2.00
1.59
1.22
0.81
0.23
-0.55
-1.50
-2.52
-3.51
-4.39
-5.16
-5.80
-6.27
-6.52
-6.43
-5.95
-5.08
-3.89
-2.53
-1.14
0.14
1.20
2.02
2.58
2.89
2.95
2.76
2.30
1.65
0.95
0.36
0.05
0.04
0.26
0.52
0.65
0.55
0.23
-0.20
-0.65
-1.05
-1.42
-1.79
-2.12
-2.32
-2.30
-1.99
-1.42
-0.71
0.04
0.74
1.41
2.05
2.61
2.99
3.07
2.81
2.32
1.79
1.40
1.24
1.27
1.36
1.38
1.25
0.93
0.39
-0.42
-1.52
-2.80
-4.03
-4.88
-5.08
-4.61
-3.72
-2.83
-2.30
-2.31
-2.72
-3.22
-3.45
-3.22
-2.52
-1.48
-0.25
0.97
1.97
2.52
2.38
1.44
-0.10
-1.80
-3.07
-3.53
-3.16
-2.39
-1.86
-2.10
-3.19
-4.80
-6.34
-7.20
-7.07
-5.91
-3.90
-1.31
1.65
4.74
7.70
10.17
11.79
12.30
11.68
10.18
8.24
6.34
4.85
3.92
3.47
3.31
3.21
3.01
2.65
2.16
1.63
1.09
0.56
-0.01
-0.65
-1.34
-2.02
-2.57
-2.84
-2.74
-2.24
-1.39
-0.29
0.89
1.98
2.83
3.31
3.37
2.98
2.19
1.15
0.06
-0.85
-1.39
-1.50
-1.29
-0.99
-0.85
-1.04
-1.59
-2.43
-3.38
-4.28
-5.01
-5.47
-5.57
-5.28
-4.58
-3.56
-2.39
-1.25
-0.27
0.47
0.97
1.25
1.36
1.31
1.15
0.91
0.66
0.43
0.22
0.01
-0.28
-0.64
-1.08
-1.52
-1.93
-2.30
-2.68
-3.10
-3.58
-4.06
-4.43
-4.61
-4.49
-4.07
-3.38
-2.45
-1.36
-0.17
1.02
2.11
2.99
3.53
3.66
3.39
2.83
2.15
1.54
1.10
0.84
0.68
0.53
0.34
0.12
-0.07
-0.20
-0.31
-0.48
-0.80
-1.28
-1.84
-2.34
-2.63
-2.61
-2.24
-1.56
-0.66
0.37
1.42
2.42
3.27
3.88
4.22
4.25
3.99
3.51
2.88
2.21
1.56
0.97
0.48
0.09
-0.18
-0.33
-0.40
-0.49
-0.69
-1.07
-1.62
-2.24
-2.78
-3.12
-3.20
-3.04
-2.66
-2.14
-1.50
-0.76
0.03
0.85
1.61
2.25
2.68
2.82
2.64
2.14
1.39
0.54
-0.25
-0.83
-1.14
-1.19
-1.04
-0.74
-0.39
-0.03
0.27
0.44
0.41
0.16
-0.29
-0.87
-1.49
-2.02
-2.39
-2.53
-2.44
-2.14
-1.68
-1.13
-0.53
0.07
0.63
1.09
1.34
1.31
0.95
0.30
-0.54
-1.39
-2.11
-2.61
-2.87
-2.90
-2.77
-2.53
-2.25
-1.98
-1.82
-1.84
-2.08
-2.54
-3.14
-3.76
-4.21
-4.31
-3.90
-2.92
-1.44
0.36
2.20
3.83
5.07
5.86
6.26
6.39
6.34
6.15
5.80
5.31
4.71
4.09
3.52
3.02
2.56
2.08
1.56
1.05
0.63
0.38
0.30
0.29
0.24
0.04
-0.31
-0.70
-0.97
-0.99
-0.70
-0.10
0.76
1.76
2.80
3.72
4.39
4.71
4.67
4.34
3.86
3.39
3.00
2.66
2.29
1.84
1.31
0.77
0.31
0.02
-0.12
-0.14
-0.15
-0.28
-0.61
-1.14
-1.81
-2.47
-2.97
-3.20
-3.07
-2.59
-1.79
-0.74
0.47
1.69
2.76
3.52
3.86
3.79
3.41
2.88
2.29
1.70
1.10
0.48
-0.12
-0.63
-1.02
-1.30
-1.55
-1.84
-2.23
-2.68
-3.13
-3.50
-3.78
-3.97
-4.11
-4.14
-4.01
-3.63
-2.95
-1.99
-0.85
0.31
1.35
2.14
2.61
2.75
2.62
2.27
1.78
1.22
0.62
0.05
-0.45
-0.79
-0.95
-0.95
-0.92
-0.99
-1.29
-1.88
-2.70
-3.64
-4.57
-5.36
-5.92
-6.22
-6.22
-5.91
-5.29
-4.39
-3.25
-1.96
-0.63
0.63
1.71
2.56
3.16
3.49
3.57
3.40
2.99
2.36
1.57
0.73
-0.05
-0.65
-1.05
-1.29
-1.47
-1.71
-2.08
-2.56
-3.07
-3.51
-3.82
-3.94
-3.88
-3.58
-3.01
-2.14
-1.01
0.26
1.48
2.47
3.10
3.34
3.23
2.86
2.37
1.88
1.51
1.31
1.25
1.22
1.10
0.80
0.36
-0.12
-0.53
-0.81
-1.03
-1.29
-1.70
-2.27
-2.92
-3.51
-3.86
-3.87
-3.51
-2.79
-1.81
-0.69
0.45
1.46
2.25
2.75
2.97
2.95
2.79
2.57
2.37
2.18
2.00
1.76
1.41
0.93
0.38
-0.18
-0.65
-0.97
-1.14
-1.23
-1.35
-1.58
-1.96
-2.45
-2.97
-3.38
-3.56
-3.41
-2.86
-1.92
-0.68
0.68
1.95
2.94
3.54
3.76
3.64
3.28
2.73
2.09
1.44
0.88
0.48
0.23
0.07
-0.11
-0.38
-0.77
-1.23
-1.70
-2.15
-2.58
-3.03
-3.49
-3.92
-4.21
-4.23
-3.91
-3.22
-2.19
-0.92
0.45
1.79
2.95
3.85
4.41
4.66
4.63
4.39
3.98
3.45
2.85
2.24
1.71
1.36
1.22
1.26
1.37
1.38
1.21
0.84
0.38
-0.06
-0.40
-0.62
-0.74
-0.78
-0.67
-0.33
0.34
1.36
2.65
4.02
5.31
6.39
7.20
7.77
8.11
8.25
8.19
7.94
7.51
6.95
6.33
5.74
5.29
5.06
5.00
5.00
4.88
4.47
3.74
2.81
1.85
1.04
0.48
0.15
0.02
0.09
0.42
1.08
2.06
3.20
4.28
5.05
5.37
5.23
4.71
3.92
2.95
1.82
0.59
-0.67
-1.86
-2.89
-3.67
-4.20
-4.55
-4.80
-5.10
-5.54
-6.18
-6.94
-7.73
-8.37
-8.73
-8.76
-8.43
-7.79
-6.95
-6.01
-5.03
-4.07
-3.12
-2.16
-1.18
-0.24
0.57
1.11
1.28
1.10
0.67
0.16
-0.29
-0.59
-0.79
-0.98
-1.25
-1.60
-2.01
-2.39
-2.68
-2.84
-2.91
-2.95
-3.06
-3.25
-3.48
-3.61
-3.46
-2.87
-1.82
-0.39
1.19
2.69
3.94
4.90
5.61
6.12
6.43
6.49
6.23
5.64
4.80
3.85
2.95
2.23
1.74
1.46
1.32
1.22
1.06
0.77
0.30
-0.38
-1.26
-2.31
-3.44
-4.50
-5.32
-5.75
-5.72
-5.26
-4.52
-3.66
-2.82
-2.04
-1.30
-0.58
0.03
0.46
0.64
0.63
0.62
0.80
1.25
1.83
2.28
2.30
1.75
0.69
-0.65
-2.02
-3.25
-4.25
-5.03
-5.64
-6.10
-6.45
-6.68
-6.77
-6.66
-6.25
-5.50
-4.43
-3.18
-1.96
-0.92
-0.16
0.41
0.90
1.44
2.07
2.70
3.22
3.52
3.55
3.35
3.01
2.62
2.32
2.19
2.29
2.59
2.94
3.19
3.16
2.76
1.98
0.96
-0.18
-1.27
-2.17
-2.74
-2.88
-2.56
-1.80
-0.77
0.38
1.50
2.52
3.43
4.19
4.70
4.83
4.49
3.68
2.55
1.32
0.17
-0.79
-1.61
-2.35
-3.10
-3.89
-4.68
-5.39
-5.96
-6.33
-6.51
-6.54
-6.46
-6.26
-5.85
-5.11
-3.93
-2.32
-0.46
1.34
2.79
3.68
4.01
3.95
3.71
3.49
3.34
3.22
3.09
2.92
2.72
2.55
2.45
2.45
2.52
2.63
2.74
2.81
2.81
2.67
2.34
1.76
0.96
0.03
-0.83
-1.43
-1.58
-1.22
-0.40
0.75
1.99
3.09
3.88
4.27
4.29
4.07
3.76
3.46
3.23
3.03
2.80
2.47
2.03
1.50
0.94
0.41
-0.06
-0.47
-0.82
-1.13
-1.43
-1.79
-2.27
-2.89
-3.59
-4.24
-4.68
-4.77
-4.44
-3.71
-2.73
-1.70
-0.75
0.06
0.75
1.39
2.01
2.56
2.92
3.04
2.90
2.65
2.46
2.48
2.77
3.23
3.69
3.98
4.02
3.79
3.35
2.76
2.05
1.20
0.22
-0.80
-1.70
-2.27
-2.34
-1.88
-1.00
0.06
1.09
1.92
2.50
2.88
3.11
3.20
3.13
2.88
2.47
1.94
1.38
0.88
0.45
0.07
-0.29
-0.68
-1.09
-1.51
-1.94
-2.38
-2.87
-3.41
-3.98
-4.45
-4.69
-4.57
-4.06
-3.24
-2.22
-1.15
-0.10
0.95
2.00
3.03
3.92
4.52
4.73
4.53
4.01
3.34
2.68
2.12
1.66
1.23
0.78
0.24
-0.43
-1.29
-2.38
-3.73
-5.34
-7.16
-9.07
-10.93
-12.52
-13.64
-14.14
-13.96
-13.17
-11.91
-10.38
-8.76
-7.19
-5.74
-4.40
-3.11
-1.75
-0.22
1.57
3.66
5.99
8.47
10.97
13.33
15.38
16.98
18.03
18.52
18.57
18.35
18.02
17.67
17.29
16.85
16.34
15.82
15.40
15.18
15.20
15.43
15.82
16.27
16.71
17.09
17.34
17.39
17.18
16.63
15.67
14.30
12.55
10.51
8.31
6.12
4.06
2.20
0.53
-1.02
-2.55
-4.17
-5.98
-8.03
-10.34
-12.86
-15.50
-18.11
-20.49
-22.43
-23.72
-24.30
-24.21
-23.68
-23.03
-22.58
-22.51
-22.81
-23.24
-23.40
-22.94
-21.60
-19.36
-16.38
-12.94
-9.38
-6.07
-3.40
-1.75
-1.44
-2.56
-4.93
-8.08
-11.35
-14.08
-15.84
-16.49
-16.19
-15.21
-13.81
-12.14
-10.32
-8.43
-6.62
-5.07
-3.96
-3.37
-3.34
-3.86
-4.88
-6.37
-8.22
-10.27
-12.25
-13.83
-14.71
-14.76
-14.04
-12.83
-11.45
-10.21
-9.20
-8.33
-7.37
-6.14
-4.58
-2.83
-1.11
0.42
1.78
3.10
4.56
6.19
7.84
9.28
10.30
10.88
11.15
11.34
11.61
12.01
12.50
13.01
13.51
13.98
14.36
14.59
14.54
14.13
13.35
12.29
11.09
9.88
8.77
7.81
7.03
6.45
6.07
5.88
5.84
5.89
5.97
5.98
5.82
5.39
4.60
3.48
2.17
0.94
0.05
-0.28
-0.00
0.74
1.67
2.48
2.98
3.13
3.05
2.96
3.07
3.44
4.04
4.70
5.26
5.66
5.89
6.05
6.17
6.22
6.07
5.57
4.65
3.36
1.84
0.31
-1.08
-2.24
-3.16
-3.89
-4.47
-4.90
-5.20
-5.37
-5.44
-5.50
-5.66
-6.02
-6.58
-7.21
-7.66
-7.64
-6.98
-5.73
-4.18
-2.78
-1.93
-1.78
-2.16
-2.70
-3.06
-3.02
-2.64
-2.11
-1.63
-1.30
-1.08
-0.89
-0.69
-0.48
-0.31
-0.19
-0.07
0.15
0.47
0.77
0.86
0.60
0.04
-0.52
-0.63
0.07
1.67
3.94
6.42
8.60
10.15
10.93
10.99
10.43
9.30
7.63
5.52
3.17
0.87
-1.09
-2.58
-3.67
-4.65
-5.84
-7.44
-9.48
-11.75
-13.87
-15.43
-16.08
-15.63
-14.09
-11.66
-8.69
-5.54
-2.50
0.32
3.02
5.75
8.61
11.53
14.23
16.42
17.86
18.50
18.46
17.94
17.07
15.92
14.52
12.98
11.43
10.02
8.77
7.55
6.06
4.02
1.32
-1.92
-5.32
-8.41
-10.77
-12.18
-12.64
-12.29
-11.32
-9.83
-7.84
-5.38
-2.53
0.46
3.31
5.75
7.73
9.40
11.07
12.99
15.29
17.93
20.76
23.58
26.23
28.57
30.48
31.90
32.84
33.42
33.88
34.49
35.48
36.91
38.65
40.47
42.14
43.51
44.55
45.29
45.78
45.99
45.85
45.29
44.37
43.30
42.47
42.35
43.28
45.41
48.52
52.09
55.37
57.50
57.70
55.38
50.36
42.85
33.50
23.23
12.99
3.40
-5.44
-13.93
-22.66
-32.02
-41.88
-51.53
-60.00
-66.45
-70.54
-72.52
-73.01
-72.63
-71.71
-70.28
-68.25
-65.66
-62.81
-60.13
-58.05
-56.75
-56.15
-56.05
-56.26
-56.71
-57.34
-57.97
-58.18
-57.41
-55.21
-51.55
-47.01
-42.64
-39.60
-38.61
-39.71
-42.17
-44.80
-46.35
-45.90
-43.07
-38.05
-31.34
-23.50
-14.98
-5.94
3.60
13.68
24.18
34.71
44.66
53.24
59.70
63.46
64.28
62.21
57.60
51.09
43.48
35.77
28.93
23.73
20.46
18.81
17.99
17.02
15.16
12.29
8.94
6.07
4.53
4.59
5.62
6.29
4.97
0.37
-8.10
-20.15
-34.76
-50.44
-65.41
-77.75
-85.61
-87.55
-82.91
-72.24
-57.20
-40.14
-23.41
-8.68
3.32
12.72
20.01
25.61
29.55
31.41
30.54
26.39
18.93
8.93
-2.17
-12.49
-20.38
-24.86
-25.86
-24.05
-20.38
-15.66
-10.38
-4.86
0.65
5.75
10.00
12.98
14.50
14.57
13.44
11.58
9.61
8.14
7.58
7.89
8.64
9.21
9.04
7.92
5.90
3.15
-0.28
-4.55
-9.78
-15.77
-21.86
-27.02
-30.23
-31.02
-29.63
-26.95
-24.08
-21.86
-20.54
-19.80
-18.95
-17.34
-14.61
-10.84
-6.39
-1.76
2.66
6.59
9.94
12.64
14.58
15.60
15.48
14.16
11.79
8.77
5.63
2.86
0.69
-1.00
-2.56
-4.32
-6.42
-8.68
-10.75
-12.38
-13.49
-14.28
-14.95
-15.56
-15.97
-15.91
-15.17
-13.78
-11.92
-9.86
-7.75
-5.61
-3.30
-0.65
2.47
6.14
10.36
14.98
19.80
24.56
29.11
33.38
37.42
41.23
44.60
47.04
47.88
46.50
42.60
36.36
28.48
19.94
11.82
5.01
0.03
-3.04
-4.52
-4.91
-4.70
-4.31
-4.02
-4.08
-4.73
-6.11
-8.20
-10.69
-13.05
-14.60
-14.76
-13.23
-10.15
-6.14
-2.11
1.12
3.15
4.25
5.11
6.48
8.69
11.52
14.36
16.57
17.87
18.33
18.18
17.57
16.47
14.85
12.88
11.03
9.82
9.59
10.32
11.76
13.64
15.75
17.89
19.73
20.81
20.75
19.60
17.94
16.83
17.26
19.63
23.36
27.03
28.87
27.53
22.63
14.96
6.05
-2.36
-9.12
-13.98
-17.58
-21.01
-25.28
-30.85
-37.45
-44.30
-50.27
-54.27
-55.36
-52.85
-46.52
-36.83
-25.10
-13.30
-3.66
2.13
3.51
1.20
-3.10
-7.39
-10.03
-10.14
-7.53
-2.42
4.81
13.70
23.55
33.35
41.94
48.36
52.26
54.04
54.63
55.10
56.11
57.73
59.64
61.32
62.31
62.25
60.86
57.94
53.49
47.85
41.73
36.05
31.53
28.31
25.80
22.91
18.53
12.10
3.87
-5.27
-14.20
-22.11
-28.76
-34.34
-39.18
-43.31
-46.30
-47.48
-46.36
-42.92
-37.61
-31.02
-23.28
-13.86
-1.79
13.64
32.18
52.32
71.64
87.63
98.63
104.29
105.39
103.22
98.95
93.33
86.83
79.99
73.58
68.33
64.35
60.62
54.97
44.87
28.42
5.55
-21.72
-49.75
-74.51
-92.95
-103.97
-108.56
-109.12
-108.38
-108.28
-109.49
-111.50
-113.30
-114.16
-114.08
-113.67
-113.72
-114.60
-115.96
-116.80
-115.88
-112.31
-105.96
-97.52
-88.12
-78.75
-69.79
-60.86
-51.14
-39.99
-27.41
-14.24
-1.81
8.82
17.32
24.04
29.23
32.36
32.21
27.89
20.19
12.12
7.78
10.30
19.79
32.95
44.63
50.44
48.86
41.62
32.21
23.69
17.24
12.18
7.24
1.92
-2.99
-5.92
-5.68
-2.23
3.15
8.43
11.79
12.31
10.28
6.88
3.51
1.12
-0.07
-0.48
-0.68
-0.91
-0.92
-0.12
1.93
5.19
9.04
12.55
14.92
15.76
15.16
13.54
11.35
8.96
6.54
4.16
1.94
0.06
-1.16
-1.41
-0.49
1.50
4.10
6.55
8.03
8.00
6.39
3.61
0.35
-2.71
-5.05
-6.30
-6.19
-4.45
-0.84
4.59
11.30
18.17
23.66
26.23
24.95
19.95
12.44
4.33
-2.46
-6.69
-8.26
-8.00
-7.14
-6.65
-6.79
-7.19
-7.25
-6.59
-5.24
-3.54
-1.91
-0.58
0.38
1.00
1.11
0.36
-1.71
-5.40
-10.60
-16.62
-22.31
-26.42
-28.07
-27.10
-24.09
-20.10
-16.15
-12.83
-10.20
-7.96
-5.78
-3.54
-1.43
0.26
1.25
1.47
0.99
0.00
-1.35
-2.96
-4.70
-6.40
-7.80
-8.56
-8.40
-7.21
-5.14
-2.58
-0.10
1.81
2.85
3.06
2.69
2.10
1.60
1.35
1.36
1.55
1.79
1.94
1.86
1.47
0.73
-0.27
-1.33
-2.21
-2.70
-2.67
-2.14
-1.28
-0.35
0.28
0.32
-0.39
-1.69
-3.13
-4.05
-3.93
-2.60
-0.36
2.19
4.43
6.02
6.97
7.56
8.08
8.62
9.12
9.42
9.49
9.42
9.38
9.48
9.63
9.66
9.34
8.60
7.53
6.29
5.03
3.81
2.59
1.35
0.09
-1.15
-2.30
-3.29
-4.09
-4.65
-4.88
-4.68
-4.00
-2.95
-1.73
-0.63
0.14
0.48
0.46
0.25
0.05
-0.03
0.00
0.02
-0.12
-0.57
-1.41
-2.59
-3.93
-5.18
-6.02
-6.22
-5.66
-4.35
-2.43
-0.13
2.29
4.53
6.35
7.57
8.14
8.14
7.82
7.47
7.29
7.35
7.49
7.45
6.89
5.64
3.74
1.52
-0.48
-1.68
-1.69
-0.41
1.89
4.76
7.70
10.39
12.68
14.50
15.72
16.22
15.84
14.64
12.88
10.94
9.16
7.66
6.30
4.90
3.39
1.87
0.58
-0.30
-0.75
-0.87
-0.79
-0.53
0.03
1.02
2.44
4.04
5.43
6.26
6.34
5.78
4.88
3.93
3.16
2.66
2.40
2.39
2.69
3.43
4.75
6.71
9.22
12.10
15.07
17.88
20.34
22.25
23.44
23.72
22.89
20.89
17.79
13.85
9.47
5.05
0.93
-2.75
-6.01
-8.96
-11.78
-14.58
-17.32
-19.77
-21.63
-22.64
-22.69
-21.85
-20.26
-18.10
-15.45
-12.35
-8.85
-5.13
-1.41
2.04
5.04
7.47
9.26
10.33
10.54
9.78
8.08
5.66
2.85
0.05
-2.49
-4.63
-6.40
-7.89
-9.17
-10.20
-10.76
-10.44
-8.63
-4.76
1.43
9.62
18.78
27.28
33.43
35.98
34.60
29.90
23.14
15.61
8.24
1.41
-4.84
-10.53
-15.44
-19.19
-21.41
-22.06
-21.49
-20.31
-19.14
-18.30
-17.81
-17.48
-17.16
-16.95
-17.15
-18.03
-19.58
-21.34
-22.47
-22.09
-19.64
-15.21
-9.52
-3.69
1.19
4.47
6.09
6.46
6.13
5.57
4.97
4.39
3.88
3.65
3.92
4.71
5.64
5.98
4.99
2.43
-1.16
-4.45
-5.86
-4.19
0.85
8.51
17.34
25.71
32.36
36.58
38.23
37.47
34.57
29.83
23.63
16.49
9.12
2.35
-3.05
-6.56
-8.12
-8.11
-7.23
-6.30
-5.94
-6.40
-7.49
-8.75
-9.71
-10.08
-9.83
-9.09
-7.98
-6.58
-4.84
-2.83
-0.81
0.77
1.37
0.64
-1.42
-4.35
-7.38
-9.78
-11.03
-11.05
-10.07
-8.51
-6.71
-4.87
-3.03
-1.22
0.59
2.41
4.31
6.37
8.58
10.68
12.17
12.42
11.00
7.98
3.95
-0.18
-3.54
-5.67
-6.59
-6.62
-6.10
-5.18
-3.76
-1.60
1.47
5.41
9.93
14.46
18.26
20.63
21.05
19.39
15.92
11.26
6.18
1.39
-2.64
-5.66
-7.67
-8.82
-9.27
-9.19
-8.72
-7.97
-7.09
-6.18
-5.32
-4.54
-3.74
-2.75
-1.35
0.63
3.18
6.07
8.87
11.14
12.57
13.13
13.01
12.48
11.77
11.01
10.27
9.60
9.08
8.78
8.61
8.36
7.70
6.37
4.32
1.85
-0.62
-2.63
-3.93
-4.46
-4.30
-3.56
-2.25
-0.41
1.92
4.56
7.26
9.73
11.77
13.30
14.41
15.34
16.33
17.60
19.19
21.04
22.92
24.61
25.91
26.75
27.21
27.44
27.65
28.05
28.79
29.89
31.11
31.98
31.82
29.96
25.96
19.85
12.12
3.61
-4.74
-12.15
-18.14
-22.53
-25.46
-27.30
-28.55
-29.76
-31.33
-33.40
-35.77
-37.97
-39.55
-40.22
-40.02
-39.24
-38.19
-37.09
-35.94
-34.66
-33.14
-31.43
-29.66
-28.03
-26.73
-25.93
-25.75
-26.27
-27.46
-29.02
-30.50
-31.29
-30.94
-29.35
-26.81
-23.89
-21.16
-18.94
-17.25
-15.90
-14.61
-13.16
-11.43
-9.33
-6.81
-3.93
-0.93
1.81
3.81
4.73
4.48
3.21
1.28
-0.91
-3.04
-4.85
-6.19
-7.00
-7.37
-7.54
-7.79
-8.35
-9.27
-10.32
-11.16
-11.42
-10.95
-9.78
-8.06
-6.00
-3.77
-1.53
0.54
2.20
3.25
3.59
3.27
2.47
1.43
0.30
-0.82
-1.92
-2.97
-3.90
-4.63
-5.10
-5.40
-5.68
-6.11
-6.76
-7.59
-8.41
-9.02
-9.29
-9.18
-8.80
-8.26
-7.67
-7.06
-6.38
-5.53
-4.45
-3.15
-1.77
-0.54
0.30
0.70
0.75
0.71
0.84
1.21
1.68
1.95
1.78
1.15
0.30
-0.37
-0.51
0.03
1.14
2.57
4.04
5.33
6.32
6.93
7.17
7.08
6.80
6.53
6.48
6.82
7.58
8.64
9.79
10.79
11.43
11.61
11.33
10.69
9.86
9.04
8.39
8.00
7.91
8.07
8.38
8.69
8.85
8.77
8.42
7.88
7.29
6.78
6.41
6.15
5.87
5.49
4.95
4.31
3.66
3.09
2.62
2.23
1.91
1.64
1.42
1.29
1.25
1.31
1.50
1.82
2.33
3.05
3.99
5.10
6.31
7.49
8.50
9.21
9.50
9.34
8.79
7.98
7.07
6.18
5.37
4.62
3.92
3.25
2.62
2.06
1.59
1.17
0.77
0.34
-0.13
-0.59
-0.94
-1.06
-0.86
-0.31
0.54
1.55
2.50
3.15
3.36
3.10
2.53
1.87
1.36
1.11
1.07
1.13
1.15
1.06
0.85
0.54
0.15
-0.38
-1.08
-1.92
-2.75
-3.37
-3.57
-3.31
-2.68
-1.90
-1.18
-0.69
-0.46
-0.40
-0.39
-0.31
-0.08
0.26
0.66
1.00
1.23
1.31
1.27
1.15
1.01
0.85
0.65
0.39
0.03
-0.40
-0.85
-1.23
-1.45
-1.46
-1.24
-0.83
-0.31
0.28
0.90
1.53
2.15
2.67
2.99
2.98
2.63
2.02
1.33
0.73
0.35
0.17
0.14
0.15
0.13
0.05
-0.08
-0.24
-0.37
-0.43
-0.35
-0.15
0.11
0.34
0.44
0.41
0.38
0.50
0.91
1.62
2.53
3.41
4.05
4.32
4.16
3.62
2.76
1.68
0.50
-0.66
-1.72
-2.56
-3.10
-3.31
-3.23
-2.98
-2.68
-2.46
-2.36
-2.33
-2.30
-2.18
-1.95
-1.59
-1.12
-0.54
0.13
0.84
1.45
1.84
1.91
1.73
1.42
1.15
1.02
1.02
1.04
0.97
0.75
0.39
-0.05
-0.50
-0.91
-1.24
-1.42
-1.39
-1.08
-0.48
0.34
1.25
2.07
2.66
2.99
3.11
3.15
3.23
3.37
3.57
3.73
3.80
3.75
3.61
3.38
3.08
2.69
2.20
1.63
1.02
0.41
-0.15
-0.61
-0.90
-0.98
-0.83
-0.48
-0.00
0.51
1.01
1.47
1.95
2.48
3.05
3.63
4.14
4.55
4.81
4.91
4.83
4.52
3.98
3.28
2.53
1.87
1.41
1.16
1.03
0.90
0.66
0.33
-0.02
-0.24
-0.22
0.12
0.76
1.59
2.46
3.19
3.66
3.75
3.46
2.81
1.91
0.94
0.08
-0.45
-0.54
-0.17
0.50
1.20
1.63
1.57
0.95
-0.08
-1.25
-2.23
-2.79
-2.82
-2.37
-1.62
-0.83
-0.22
0.06
0.03
-0.15
-0.20
0.11
0.88
2.01
3.24
4.27
4.88
5.03
4.83
4.45
4.00
3.52
2.98
2.36
1.69
1.08
0.64
0.42
0.40
0.49
0.55
0.51
0.37
0.19
0.12
0.26
0.64
1.21
1.80
2.27
2.51
2.54
2.44
2.33
2.23
2.12
1.92
1.56
1.06
0.49
-0.02
-0.39
-0.60
-0.72
-0.85
-1.05
-1.33
-1.62
-1.83
-1.91
-1.81
-1.54
-1.13
-0.59
0.04
0.72
1.39
1.99
2.47
2.78
2.91
2.83
2.56
2.12
1.58
1.03
0.56
0.24
0.07
0.03
0.06
0.09
0.07
-0.06
-0.32
-0.70
-1.17
-1.63
-1.93
-1.98
-1.71
-1.15
-0.40
0.40
1.13
1.72
2.18
2.54
2.83
3.03
3.08
2.92
2.53
1.97
1.40
0.96
0.71
0.61
0.50
0.25
-0.19
-0.79
-1.41
-1.92
-2.28
-2.48
-2.55
-2.49
-2.29
-1.90
-1.32
-0.59
0.21
0.98
1.63
2.14
2.50
2.70
2.76
2.70
2.53
2.25
1.92
1.59
1.36
1.27
1.31
1.37
1.27
0.89
0.17
-0.80
-1.84
-2.74
-3.33
-3.56
-3.44
-3.07
-2.55
-1.97
-1.36
-0.76
-0.17
0.39
0.90
1.32
1.60
1.72
1.65
1.40
0.99
0.49
-0.04
-0.52
-0.92
-1.21
-1.43
-1.63
-1.87
-2.22
-2.71
-3.30
-3.89
-4.31
-4.42
-4.13
-3.48
-2.59
-1.67
-0.89
-0.34
-0.03
0.11
0.18
0.25
0.37
0.56
0.79
1.00
1.12
1.07
0.81
0.38
-0.15
-0.70
-1.21
-1.66
-2.09
-2.51
-2.90
-3.18
-3.24
-3.00
-2.47
-1.71
-0.83
0.08
0.95
1.75
2.46
3.08
3.56
3.85
3.91
3.72
3.30
2.70
2.02
1.33
0.69
0.12
-0.39
-0.88
-1.39
-1.92
-2.47
-2.99
-3.42
-3.69
-3.72
-3.46
-2.91
-2.13
-1.25
-0.42
0.24
0.69
0.95
1.13
1.31
1.52
1.71
1.78
1.62
1.22
0.64
0.03
-0.49
-0.85
-1.08
-1.27
-1.53
-1.95
-2.51
-3.14
-3.73
-4.15
-4.31
-4.15
-3.65
-2.83
-1.74
-0.45
0.97
2.43
3.77
4.82
5.42
5.48
5.03
4.21
3.26
2.40
1.77
1.39
1.17
0.98
0.68
0.23
-0.37
-1.05
-1.73
-2.34
-2.80
-3.06
-3.07
-2.81
-2.32
-1.67
-0.94
-0.22
0.48
1.16
1.84
2.50
3.09
3.51
3.66
3.53
3.15
2.63
2.03
1.41
0.76
0.10
-0.56
-1.16
-1.64
-1.99
-2.24
-2.48
-2.73
-2.97
-3.13
-3.10
-2.79
-2.20
-1.35
-0.29
0.91
2.19
3.42
4.44
5.04
5.17
4.86
4.32
3.77
3.35
3.05
2.75
2.31
1.67
0.87
0.04
-0.69
-1.26
-1.67
-1.96
-2.17
-2.32
-2.41
-2.36
-2.09
-1.52
-0.62
0.52
1.73
2.82
3.64
4.16
4.42
4.51
4.43
4.18
3.73
3.14
2.53
2.04
1.72
1.48
1.15
0.56
-0.34
-1.45
-2.57
-3.52
-4.17
-4.48
-4.47
-4.15
-3.54
-2.64
-1.53
-0.32
0.81
1.72
2.33
2.65
2.76
2.75
2.70
2.62
2.47
2.16
1.64
0.92
0.02
-0.96
-1.90
-2.73
-3.39
-3.88
-4.20
-4.39
-4.48
-4.53
-4.55
-4.52
-4.37
-4.01
-3.33
-2.30
-0.96
0.51
1.87
2.92
3.50
3.62
3.39
3.00
2.57
2.17
1.76
1.29
0.72
0.09
-0.54
-1.11
-1.61
-2.04
-2.46
-2.86
-3.24
-3.55
-3.73
-3.72
-3.44
-2.84
-1.88
-0.62
0.82
2.28
3.60
4.66
5.38
5.77
5.83
5.62
5.19
4.59
3.91
3.19
2.49
1.84
1.26
0.78
0.40
0.07
-0.23
-0.53
-0.84
-1.14
-1.40
-1.56
-1.57
-1.37
-0.92
-0.20
0.77
1.89
3.08
4.18
5.07
5.66
5.89
5.74
5.27
4.59
3.85
3.20
2.71
2.38
2.12
1.82
1.40
0.88
0.34
-0.11
-0.41
-0.58
-0.70
-0.84
-0.94
-0.84
-0.33
0.71
2.22
3.94
5.53
6.69
7.25
7.22
6.73
5.96
5.12
4.37
3.83
3.58
3.60
3.78
3.94
3.89
3.49
2.73
1.68
0.51
-0.59
-1.47
-2.04
-2.28
-2.24
-1.98
-1.55
-0.98
-0.27
0.50
1.22
1.72
1.81
1.37
0.38
-1.09
-2.82
-4.58
-6.14
-7.36
-8.23
-8.84
-9.33
-9.75
-10.11
-10.33
-10.35
-10.24
-10.12
-10.12
-10.28
-10.45
-10.41
-9.95
-8.97
-7.57
-5.93
-4.21
-2.54
-0.98
0.42
1.55
2.25
2.47
2.25
1.79
1.30
0.94
0.73
0.58
0.37
0.00
-0.53
-1.17
-1.85
-2.50
-3.09
-3.59
-3.94
-4.11
-4.05
-3.72
-3.13
-2.26
-1.12
0.22
1.66
3.01
4.09
4.79
5.08
5.08
4.94
4.81
4.76
4.73
4.63
4.40
4.04
3.59
3.11
2.60
2.04
1.37
0.61
-0.13
-0.71
-0.99
-0.90
-0.45
0.30
1.29
2.46
3.75
5.09
6.46
7.87
9.40
11.16
13.17
15.31
17.35
18.99
20.07
20.65
20.99
21.44
22.26
23.51
25.05
26.60
27.96
29.09
30.12
31.26
32.69
34.43
36.34
38.16
39.58
40.22
39.65
37.35
32.85
25.85
16.42
5.03
-7.51
-20.29
-32.53
-43.68
-53.41
-61.44
-67.42
-71.02
-72.00
-70.44
-66.74
-61.63
-55.86
-50.09
-44.72
-39.97
-35.93
-32.62
-30.07
-28.20
-26.85
-25.75
-24.57
-23.01
-20.88
-18.15
-14.89
-11.28
-7.53
-3.83
-0.39
2.65
5.11
6.87
7.81
7.91
7.23
5.99
4.50
3.10
2.07
1.56
1.59
2.07
2.87
3.83
4.85
5.83
6.68
7.33
7.75
7.97
8.11
8.35
8.87
9.81
11.14
12.69
14.15
15.22
15.73
15.66
15.20
14.56
13.88
13.15
12.32
11.31
10.19
9.15
8.45
8.17
8.22
8.31
8.08
7.27
5.81
3.83
1.60
-0.61
-2.55
-4.05
-5.03
-5.45
-5.39
-4.99
-4.47
-4.04
-3.82
-3.79
-3.84
-3.79
-3.52
-2.98
-2.24
-1.45
-0.72
-0.11
0.43
1.03
1.81
2.84
4.11
5.44
6.62
7.41
7.74
7.71
7.63
7.83
8.53
9.63
10.79
11.51
11.35
10.14
8.06
5.48
2.89
0.65
-1.07
-2.31
-3.23
-3.98
-4.58
-4.80
-4.24
-2.49
0.62
4.78
9.19
12.83
14.91
15.37
15.01
15.28
17.58
22.55
29.66
37.49
44.43
49.48
52.54
54.08
54.45
53.33
49.68
42.36
30.79
15.31
-3.06
-23.14
-43.86
-63.78
-80.25
-89.14
-85.75
-67.09
-34.11
7.29
47.72
77.54
90.72
87.01
71.44
51.39
33.00
18.68
7.07
-5.12
-20.49
-39.19
-58.73
-75.23
-85.35
-87.66
-83.09
-74.09
-63.31
-52.28
-40.94
-28.30
-13.74
1.90
16.07
25.48
27.67
22.38
11.97
0.62
-7.26
-8.58
-2.71
8.24
20.11
28.08
28.37
19.69
3.83
-14.91
-31.15
-40.28
-39.85
-30.01
-13.04
7.59
28.29
46.11
59.18
66.68
68.46
64.58
54.87
38.97
16.97
-9.79
-38.23
-63.96
-82.50
-90.90
-88.83
-78.49
-63.55
-47.66
-33.23
-21.15
-11.25
-3.11
3.35
7.81
10.00
10.18
9.35
8.83
9.47
11.17
13.10
14.40
14.88
15.18
16.14
18.01
19.99
20.56
18.52
13.86
7.84
2.17
-2.12
-5.30
-8.54
-12.80
-17.70
-21.41
-21.56
-16.68
-7.31
3.88
13.20
17.50
15.49
8.17
-1.78
-11.31
-18.26
-22.00
-23.25
-23.19
-22.52
-20.90
-17.31
-10.87
-1.70
8.79
18.47
25.56
29.57
31.54
33.30
36.29
40.51
44.46
45.94
43.39
36.83
27.93
19.04
11.80
6.12
0.03
-9.06
-22.62
-39.44
-55.41
-65.01
-63.79
-50.64
-28.42
-2.77
20.38
36.99
45.79
47.51
43.36
33.98
19.49
0.45
-21.22
-42.26
-59.06
-69.11
-71.91
-68.83
-62.00
-53.16
-43.03
-31.61
-18.88
-5.55
6.90
16.73
22.60
24.00
21.08
14.31
4.18
-8.63
-22.91
-36.69
-47.61
-53.84
-55.01
-52.48
-48.73
-46.01
-45.09
-44.85
-42.87
-36.68
-25.09
-8.82
9.61
26.87
39.91
46.92
47.59
42.88
34.29
23.19
10.45
-3.41
-17.81
-31.78
-43.91
-52.85
-57.87
-59.25
-58.15
-56.14
-54.56
-54.10
-54.66
-55.65
-56.30
-56.04
-54.57
-51.76
-47.51
-41.70
-34.17
-24.90
-14.06
-1.96
10.99
24.36
37.72
50.65
62.60
72.97
81.04
86.18
87.93
86.13
81.00
73.07
63.22
52.49
42.00
32.74
25.41
20.31
17.32
15.92
15.39
15.01
14.34
13.37
12.42
11.96
12.21
12.86
13.16
12.20
9.56
5.61
1.46
-1.68
-3.32
-4.21
-6.12
-10.89
-19.26
-30.13
-40.66
-47.30
-47.32
-39.86
-26.23
-9.26
7.76
21.91
31.07
33.91
30.01
20.19
6.78
-6.38
-14.86
-15.14
-6.08
10.45
30.29
48.63
61.90
68.90
70.63
69.11
66.09
62.31
57.64
51.89
45.56
39.99
36.90
37.42
41.52
47.94
54.86
60.87
65.57
69.55
73.76
78.67
83.87
88.29
90.68
90.05
85.52
76.11
60.73
38.85
11.42
-18.55
-46.43
-67.53
-78.91
-80.68
-75.81
-68.63
-62.71
-59.16
-56.36
-51.03
-40.21
-23.11
-1.99
18.43
32.82
37.30
31.02
16.30
-2.58
-21.24
-36.77
-48.30
-56.66
-63.21
-68.88
-73.61
-76.47
-76.29
-72.41
-65.23
-56.32
-47.86
-41.73
-38.81
-38.61
-39.71
-40.54
-40.12
-38.40
-35.89
-33.17
-30.43
-27.30
-22.93
-16.26
-6.48
6.46
21.27
35.22
44.69
46.34
38.46
22.03
0.81
-19.60
-33.51
-36.98
-29.14
-12.31
8.98
29.68
45.87
55.66
58.92
56.36
48.51
35.47
17.36
-4.76
-28.38
-49.94
-66.00
-74.53
-75.57
-71.00
-63.53
-55.43
-47.75
-40.16
-31.49
-20.72
-7.85
5.57
16.72
22.44
20.49
10.57
-5.37
-23.63
-39.88
-50.24
-52.20
-45.12
-30.55
-11.97
5.86
18.14
21.47
15.23
2.18
-12.05
-20.69
-18.16
-2.26
24.90
57.57
88.34
110.48
119.81
115.17
97.93
71.03
38.02
2.70
-31.13
-59.99
-81.15
-93.27
-96.54
-92.33
-82.59
-69.33
-54.38
-39.32
-25.34
-13.03
-2.45
6.59
14.09
19.43
21.42
19.13
12.58
3.13
-6.78
-14.70
-19.13
-19.96
-18.41
-16.56
-16.29
-18.66
-23.35
-28.17
-30.03
-25.59
-12.32
10.28
39.84
71.85
100.48
119.88
126.23
117.51
94.29
59.78
18.97
-23.02
-61.59
-93.82
-118.28
-133.48
-139.19
-136.17
-126.02
-111.42
-95.85
-81.80
-70.58
-62.13
-54.76
-48.85
-47.66
-56.33
-72.80
-93.02
-110.14
-116.58
-114.14
-96.80
-60.64
-7.89
57.75
125.25
182.10
219.82
236.10
235.67
223.02
205.54
190.04
178.60
167.28
150.55
129.22
104.54
80.01
60.15
47.42
41.05
38.52
36.93
33.95
28.38
19.17
6.24
-9.26
-25.60
-41.06
-54.01
-63.26
-67.98
-67.77
-63.43
-56.03
-46.71
-36.69
-27.55
-20.76
-17.22
-16.65
-17.73
-19.22
-20.25
-20.91
-22.21
-25.59
-32.00
-41.23
-51.66
-60.93
-66.96
-68.32
-64.61
-56.17
-44.06
-29.82
-15.35
-2.59
6.91
12.52
14.79
15.22
15.59
17.16
20.22
24.19
28.16
31.48
34.01
36.01
37.70
39.00
39.50
38.71
36.41
32.67
27.78
21.99
15.49
8.43
1.03
-6.35
-13.33
-19.66
-25.28
-30.25
-34.53
-37.82
-39.69
-39.78
-38.15
-35.25
-31.78
-28.21
-24.66
-20.87
-16.57
-11.81
-7.05
-2.99
-0.20
1.17
1.45
1.28
1.36
2.21
4.10
6.98
10.59
14.54
18.39
21.79
24.55
26.59
27.94
28.66
28.83
28.54
27.85
26.81
25.37
23.43
20.87
17.72
14.27
11.03
8.59
7.36
7.39
8.30
9.48
10.29
10.29
9.31
7.47
5.05
2.42
-0.08
-2.18
-3.68
-4.47
-4.50
-3.80
-2.45
-0.56
1.70
4.13
6.52
8.67
10.47
11.91
13.07
14.06
14.91
15.52
15.69
15.17
13.83
11.74
9.20
6.65
4.52
3.11
2.53
2.69
3.31
4.02
4.41
4.11
2.90
0.81
-1.85
-4.56
-6.69
-7.79
-7.66
-6.44
-4.56
-2.57
-0.99
-0.21
-0.40
-1.49
-3.13
-4.85
-6.14
-6.64
-6.25
-5.15
-3.70
-2.25
-1.07
-0.24
0.25
0.40
0.22
-0.30
-1.04
-1.70
-1.90
-1.28
0.25
2.47
4.82
6.69
7.71
7.92
7.80
8.06
9.33
11.81
15.12
18.48
20.95
21.84
20.89
18.30
14.56
10.21
5.67
1.23
-2.96
-6.75
-10.00
-12.55
-14.32
-15.30
-15.52
-15.04
-13.79
-11.70
-8.77
-5.26
-1.72
1.14
2.71
2.78
1.66
0.10
-1.04
-1.15
-0.13
1.69
3.72
5.44
6.56
7.08
7.11
6.75
6.05
5.05
3.84
2.66
1.81
1.56
2.00
3.01
4.23
5.21
5.59
5.19
4.03
2.32
0.37
-1.47
-2.85
-3.56
-3.48
-2.70
-1.49
-0.14
1.03
1.85
2.26
2.32
2.09
1.62
0.97
0.16
-0.72
-1.60
-2.38
-3.03
-3.55
-3.96
-4.30
-4.57
-4.75
-4.83
-4.80
-4.72
-4.71
-4.88
-5.29
-5.86
-6.42
-6.82
-6.99
-6.98
-6.93
-6.85
-6.63
-5.96
-4.55
-2.31
0.53
3.49
6.01
7.65
8.25
7.91
6.90
5.50
3.94
2.39
0.99
-0.11
-0.78
-0.91
-0.51
0.26
1.16
1.90
2.22
2.05
1.49
0.78
0.25
0.19
0.74
1.88
3.39
4.96
6.21
6.83
6.65
5.63
3.92
1.79
-0.46
-2.56
-4.37
-5.80
-6.79
-7.26
-7.09
-6.24
-4.81
-3.11
-1.53
-0.48
-0.18
-0.65
-1.70
-3.05
-4.38
-5.45
-6.09
-6.20
-5.84
-5.14
-4.30
-3.51
-2.88
-2.39
-1.95
-1.47
-0.93
-0.38
0.06
0.30
0.27
-0.09
-0.78
-1.77
-2.94
-4.05
-4.85
-5.15
-4.89
-4.21
-3.31
-2.39
-1.50
-0.54
0.64
2.10
3.70
5.12
5.96
5.94
5.01
3.34
1.29
-0.78
-2.54
-3.79
-4.45
-4.52
-4.05
-3.21
-2.17
-1.18
-0.42
-0.02
-0.04
-0.49
-1.35
-2.53
-3.88
-5.17
-6.11
-6.49
-6.28
-5.63
-4.78
-3.96
-3.23
-2.52
-1.75
-0.90
-0.14
0.32
0.31
-0.16
-0.86
-1.44
-1.60
-1.18
-0.27
0.86
1.86
2.44
2.40
1.73
0.55
-0.92
-2.49
-3.97
-5.24
-6.18
-6.66
-6.52
-5.69
-4.23
-2.38
-0.52
1.03
2.13
2.81
3.23
3.54
3.76
3.75
3.39
2.64
1.65
0.67
-0.07
-0.45
-0.53
-0.48
-0.49
-0.64
-0.88
-1.06
-0.94
-0.33
0.87
2.59
4.59
6.55
8.11
8.99
8.99
8.05
6.25
3.81
1.09
-1.43
-3.28
-4.11
-3.84
-2.65
-0.97
0.74
2.12
3.05
3.62
4.03
4.50
5.14
5.93
6.81
7.66
8.38
8.86
8.98
8.67
7.87
6.62
5.02
3.22
1.42
-0.25
-1.67
-2.83
-3.74
-4.47
-5.06
-5.45
-5.49
-4.99
-3.82
-2.00
0.20
2.38
4.12
5.17
5.48
5.19
4.49
3.54
2.37
1.00
-0.53
-2.13
-3.64
-4.90
-5.81
-6.40
-6.76
-7.00
-7.21
-7.38
-7.48
-7.42
-7.15
-6.68
-6.07
-5.40
-4.68
-3.97
-3.31
-2.81
-2.65
-2.99
-3.89
-5.19
-6.53
-7.38
-7.24
-5.83
-3.16
0.48
4.57
8.53
11.89
14.28
15.54
15.66
14.78
13.17
11.23
9.39
8.06
7.52
7.83
8.83
10.18
11.42
12.09
11.79
10.31
7.67
4.14
0.18
-3.72
-7.14
-9.80
-11.53
-12.25
-11.91
-10.57
-8.46
-5.96
-3.52
-1.43
0.28
1.85
3.52
5.35
7.12
8.48
9.19
9.37
9.42
9.73
10.43
11.25
11.64
11.09
9.43
6.94
4.18
1.79
0.16
-0.66
-0.88
-0.84
-0.81
-0.95
-1.27
-1.71
-2.18
-2.65
-3.06
-3.37
-3.57
-3.64
-3.61
-3.51
-3.35
-3.07
-2.63
-1.98
-1.21
-0.47
0.06
0.28
0.26
0.19
0.30
0.72
1.37
2.02
2.38
2.31
1.88
1.28
0.78
0.49
0.38
0.34
0.25
0.09
-0.01
0.12
0.54
1.21
1.95
2.50
2.70
2.49
1.97
1.37
0.94
0.87
1.23
1.96
2.87
3.71
4.23
4.30
3.93
3.23
2.41
1.63
0.97
0.46
0.05
-0.30
-0.62
-0.90
-1.16
-1.45
-1.82
-2.30
-2.85
-3.37
-3.74
-3.88
-3.79
-3.53
-3.22
-2.96
-2.83
-2.83
-2.89
-2.93
-2.90
-2.80
-2.71
-2.74
-2.98
-3.40
-3.85
-4.14
-4.07
-3.55
-2.63
-1.44
-0.16
1.09
2.18
3.05
3.61
3.82
3.71
3.37
2.95
2.61
2.44
2.44
2.50
2.53
2.46
2.31
2.13
1.94
1.68
1.21
0.41
-0.74
-2.12
-3.50
-4.64
-5.40
-5.71
-5.62
-5.17
-4.42
-3.37
-2.08
-0.66
0.71
1.86
2.70
3.26
3.66
4.03
4.45
4.86
5.10
5.01
4.47
3.49
2.23
0.90
-0.32
-1.33
-2.11
-2.66
-3.01
-3.16
-3.10
-2.88
-2.58
-2.30
-2.10
-2.02
-2.03
-2.04
-1.97
-1.75
-1.32
-0.67
0.15
1.08
2.07
3.02
3.87
4.55
5.02
5.28
5.37
5.41
5.51
5.76
6.15
6.59
7.00
7.34
7.69
8.15
8.75
9.39
9.81
9.71
8.84
7.11
4.65
1.74
-1.29
-4.11
-6.54
-8.51
-10.14
-11.55
-12.88
-14.16
-15.33
-16.27
-16.97
-17.52
-18.13
-19.00
-20.19
-21.64
-23.15
-24.48
-25.47
-26.04
-26.20
-26.03
-25.60
-24.92
-23.91
-22.38
-20.10
-16.93
-12.86
-8.20
-3.46
0.81
4.15
6.39
7.66
8.24
8.43
8.43
8.29
7.98
7.46
6.78
6.07
5.46
5.07
4.87
4.76
4.63
4.35
3.88
3.25
2.50
1.74
1.05
0.50
0.18
0.15
0.42
0.96
1.66
2.39
2.99
3.37
3.46
3.25
2.79
2.19
1.58
1.08
0.83
0.87
1.17
1.56
1.87
1.95
1.74
1.34
0.94
0.77
0.95
1.44
2.04
2.49
2.56
2.19
1.47
0.61
-0.18
-0.79
-1.24
-1.67
-2.21
-2.92
-3.75
-4.53
-5.12
-5.44
-5.56
-5.63
-5.85
-6.34
-7.04
-7.76
-8.18
-8.00
-7.07
-5.44
-3.45
-1.51
-0.03
0.75
0.84
0.45
-0.10
-0.56
-0.78
-0.74
-0.54
-0.29
-0.20
-0.49
-1.40
-3.10
-5.63
-8.79
-12.17
-15.29
-17.69
-19.10
-19.46
-18.84
-17.41
-15.39
-12.97
-10.42
-8.01
-6.00
-4.59
-3.81
-3.55
-3.62
-3.75
-3.76
-3.55
-3.17
-2.75
-2.48
-2.54
-3.00
-3.76
-4.53
-4.94
-4.60
-3.32
-1.19
1.49
4.26
6.75
8.74
10.20
11.22
11.90
12.31
12.46
12.33
11.96
11.43
10.88
10.43
10.12
9.92
9.69
9.27
8.58
7.65
6.62
5.68
5.04
4.81
5.02
5.62
6.48
7.47
8.44
9.24
9.74
9.83
9.48
8.70
7.55
6.16
4.64
3.14
1.81
0.75
-0.06
-0.71
-1.33
-2.04
-2.81
-3.53
-3.99
-4.03
-3.62
-2.83
-1.84
-0.83
0.05
0.70
1.08
1.16
0.94
0.46
-0.17
-0.81
-1.31
-1.58
-1.63
-1.59
-1.60
-1.78
-2.14
-2.50
-2.63
-2.28
-1.37
-0.03
1.53
3.07
4.47
5.77
7.01
8.15
9.01
9.37
9.13
8.37
7.40
6.50
5.83
5.34
4.84
4.15
3.19
2.05
0.86
-0.26
-1.27
-2.11
-2.70
-2.92
-2.65
-1.87
-0.66
0.83
2.38
3.84
5.05
5.91
6.32
6.25
5.71
4.82
3.75
2.68
1.72
0.93
0.28
-0.26
-0.73
-1.14
-1.50
-1.80
-2.06
-2.26
-2.34
-2.20
-1.74
-0.90
0.27
1.68
3.15
4.53
5.69
6.55
7.08
7.27
7.14
6.77
6.26
5.78
5.47
5.40
5.51
5.63
5.52
4.99
4.01
2.73
1.46
0.51
0.15
0.44
1.25
2.34
3.43
4.35
5.01
5.44
5.69
5.78
5.65
5.21
4.40
3.22
1.77
0.20
-1.35
-2.76
-4.00
-5.05
-5.95
-6.74
-7.41
-7.99
-8.40
-8.59
-8.45
-7.94
-7.03
-5.76
-4.16
-2.30
-0.27
1.76
3.53
4.76
5.30
5.17
4.61
3.93
3.37
3.01
2.78
2.57
2.33
2.08
1.89
1.76
1.64
1.45
1.19
1.03
1.22
1.98
3.36
5.16
7.00
8.48
9.32
9.49
9.13
8.49
7.77
7.08
6.39
5.65
4.85
3.98
3.10
2.25
1.40
0.54
-0.36
-1.22
-1.92
-2.32
-2.31
-1.86
-1.02
0.08
1.32
2.57
3.70
4.60
5.20
5.44
5.31
4.89
4.25
3.49
2.71
1.99
1.42
1.06
0.93
0.95
0.99
0.88
0.52
-0.08
-0.75
-1.25
-1.35
-0.92
0.03
1.39
2.96
4.49
5.78
6.66
7.07
7.04
6.73
6.36
6.09
6.02
6.09
6.14
6.00
5.52
4.64
3.42
1.97
0.44
-1.01
-2.29
-3.33
-4.08
-4.52
-4.62
-4.37
-3.80
-2.98
-2.05
-1.21
-0.62
-0.39
-0.51
-0.87
-1.36
-1.90
-2.49
-3.16
-3.93
-4.78
-5.58
-6.22
-6.63
-6.84
-6.98
-7.17
-7.48
-7.87
-8.23
-8.48
-8.54
-8.43
-8.18
-7.80
-7.29
-6.65
-5.94
-5.22
-4.60
-4.15
-3.87
-3.73
-3.67
-3.62
-3.54
-3.42
-3.24
-3.04
-2.87
-2.80
-2.90
-3.19
-3.65
-4.20
-4.68
-4.97
-4.92
-4.48
-3.67
-2.59
-1.41
-0.31
0.57
1.15
1.43
1.44
1.24
0.91
0.54
