1515722753.00
64.000000
-0.00
-0.00
-0.00
-0.00
-0.00
-0.00
-0.00
-0.00
-0.00
-0.00
0.00
0.01
0.01
-0.00
-0.03
-0.05
-0.05
0.00
0.13
0.36
0.66
1.01
1.37
1.72
2.06
2.40
2.79
3.24
3.80
4.42
5.06
5.66
6.20
6.68
7.15
7.68
8.31
9.14
10.09
11.04
11.88
12.56
13.14
13.76
14.65
15.96
17.91
20.32
22.90
25.38
27.58
29.57
31.68
34.32
37.81
42.54
48.15
54.10
59.83
64.97
69.58
74.14
79.34
85.71
93.76
103.00
112.62
121.73
129.77
136.75
143.30
150.75
157.77
166.64
177.95
191.79
206.97
220.57
228.25
225.36
208.53
176.87
132.76
80.05
23.07
-34.94
-92.43
-149.16
-205.23
-260.37
-313.75
-363.88
-409.82
-450.88
-486.46
-515.71
-537.24
-549.32
-550.16
-538.68
-514.60
-479.11
-434.32
-382.87
-327.43
-270.28
-213.14
-157.27
-103.67
-53.16
-6.71
34.81
70.69
100.62
124.68
143.37
157.41
167.60
174.64
178.97
180.87
180.47
177.91
173.40
167.31
160.13
152.38
144.52
136.83
129.34
121.89
114.22
106.12
97.56
88.79
80.22
72.27
65.23
59.07
53.45
47.85
41.83
35.22
28.27
21.53
15.58
10.80
7.20
4.40
1.85
-1.00
-4.61
-9.28
-15.06
-21.44
-27.16
-30.26
-28.68
-21.21
-8.31
7.73
23.51
35.87
43.05
45.25
44.02
41.31
38.40
35.64
32.71
29.33
25.78
22.71
20.75
20.01
20.05
20.20
19.91
19.14
18.16
17.31
16.66
16.01
14.99
13.38
11.21
8.72
6.21
3.92
2.00
0.57
-0.22
-0.31
0.19
0.93
1.42
1.32
0.52
-0.71
-2.02
-2.98
-3.37
-3.12
-2.38
-1.38
-0.43
0.17
0.25
-0.22
-1.02
-1.76
-2.08
-1.71
-0.72
0.64
1.98
2.95
3.40
3.37
3.06
2.67
2.43
2.45
2.84
3.63
4.78
6.12
7.46
8.63
9.52
10.14
10.54
10.81
10.94
10.86
10.47
9.69
8.52
7.03
5.38
3.56
1.56
-0.61
-2.91
-5.25
-7.51
-9.56
-11.33
-12.75
-13.81
-14.49
-14.77
-14.62
-14.07
-13.22
-12.24
-11.27
-10.40
-9.66
-8.98
-8.29
-7.55
-6.81
-6.15
-5.63
-5.27
-5.00
-4.75
-4.45
-4.07
-3.63
-3.16
-2.72
-2.33
-2.00
-1.69
-1.33
-0.79
-0.03
0.95
1.98
2.84
3.31
3.27
2.78
2.03
1.27
0.70
0.41
0.37
0.51
0.76
1.11
1.57
2.12
2.72
3.29
3.71
3.93
3.97
3.88
3.75
3.67
3.69
3.76
3.79
3.64
3.25
2.61
1.78
0.84
-0.07
-0.85
-1.39
-1.64
-1.63
-1.47
-1.35
-1.41
-1.71
-2.18
-2.64
-2.90
-2.86
-2.52
-2.02
-1.54
-1.24
-1.18
-1.36
-1.64
-1.84
-1.74
-1.13
0.07
1.80
3.80
5.73
7.24
8.07
8.15
7.60
6.59
5.36
4.07
2.82
1.68
0.74
0.05
-0.35
-0.48
-0.41
-0.28
-0.20
-0.22
-0.34
-0.49
-0.60
-0.61
-0.50
-0.30
-0.07
0.13
0.20
0.11
-0.14
-0.47
-0.80
-0.99
-0.98
-0.74
-0.35
0.03
0.20
0.01
-0.60
-1.58
-2.76
-3.92
-4.83
-5.32
-5.36
-5.01
-4.45
-3.91
-3.59
-3.58
-3.79
-3.95
-3.76
-2.97
-1.55
0.31
2.24
3.88
4.99
5.49
5.46
5.05
4.40
3.63
2.80
1.97
1.20
0.51
-0.07
-0.55
-0.90
-1.07
-1.01
-0.68
-0.15
0.49
1.09
1.52
1.72
1.71
1.54
1.27
0.95
0.63
0.34
0.09
-0.15
-0.43
-0.82
-1.32
-1.86
-2.33
-2.64
-2.74
-2.70
-2.60
-2.53
-2.52
-2.55
-2.59
-2.66
-2.82
-3.09
-3.47
-3.93
-4.33
-4.51
-4.24
-3.35
-1.69
0.66
3.47
6.29
8.60
10.02
10.38
9.81
8.55
6.93
5.15
3.29
1.38
-0.54
-2.32
-3.71
-4.46
-4.43
-3.65
-2.42
-1.12
-0.14
0.30
0.24
-0.11
-0.45
-0.57
-0.43
-0.16
0.04
0.03
-0.26
-0.72
-1.24
-1.70
-2.06
-2.33
-2.55
-2.74
-2.87
-2.94
-2.93
-2.88
-2.86
-2.90
-3.02
-3.11
-3.11
-2.94
-2.65
-2.34
-2.16
-2.16
-2.32
-2.48
-2.40
-1.89
-0.82
0.76
2.61
4.41
5.79
6.49
6.40
5.66
4.52
3.29
2.17
1.27
0.53
-0.08
-0.60
-0.98
-1.13
-1.00
-0.60
-0.07
0.45
0.87
1.15
1.35
1.50
1.57
1.50
1.20
0.66
-0.07
-0.86
-1.56
-2.07
-2.36
-2.48
-2.52
-2.58
-2.73
-2.98
-3.26
-3.49
-3.53
-3.31
-2.86
-2.32
-1.88
-1.70
-1.86
-2.29
-2.89
-3.50
-3.99
-4.22
-4.06
-3.42
-2.24
-0.60
1.28
3.05
4.39
5.03
4.92
4.20
3.13
1.98
0.97
0.21
-0.33
-0.71
-0.99
-1.17
-1.18
-0.97
-0.50
0.18
0.95
1.68
2.26
2.65
2.85
2.96
3.04
3.20
3.49
3.95
4.62
5.48
6.50
7.61
8.70
9.63
10.28
10.58
10.55
10.28
9.90
9.46
8.94
8.23
7.20
5.81
4.16
2.44
0.83
-0.65
-2.23
-4.28
-7.13
-10.86
-15.22
-19.64
-23.49
-26.31
-27.92
-28.43
-28.06
-27.04
-25.50
-23.50
-21.12
-18.54
-15.95
-13.58
-11.54
-9.87
-8.49
-7.33
-6.34
-5.50
-4.79
-4.11
-3.33
-2.25
-0.72
1.24
3.48
5.67
7.50
8.78
9.47
9.74
9.82
9.91
10.10
10.39
10.70
10.89
10.82
10.37
9.49
8.24
6.82
5.49
4.48
3.92
3.75
3.74
3.56
2.93
1.66
-0.24
-2.60
-5.12
-7.49
-9.44
-10.85
-11.77
-12.30
-12.53
-12.46
-11.99
-11.02
-9.59
-7.86
-6.07
-4.48
-3.21
-2.24
-1.50
-0.92
-0.48
-0.19
-0.04
0.02
0.08
0.21
0.44
0.79
1.21
1.65
2.06
2.38
2.57
2.63
2.60
2.50
2.33
2.08
1.76
1.46
1.40
1.83
2.95
4.69
6.77
8.76
10.23
10.93
10.86
10.17
9.09
7.82
6.48
5.17
3.94
2.86
1.93
1.15
0.50
0.01
-0.26
-0.24
0.07
0.57
1.06
1.37
1.46
1.43
1.44
1.59
1.83
2.01
1.96
1.60
1.01
0.38
-0.10
-0.37
-0.45
-0.48
-0.54
-0.67
-0.78
-0.81
-0.71
-0.50
-0.27
-0.02
0.26
0.70
1.42
2.50
3.86
5.28
6.48
7.21
7.36
6.98
6.20
5.14
3.91
2.57
1.23
0.04
-0.78
-1.06
-0.80
-0.14
0.63
1.27
1.68
1.91
2.08
2.30
2.55
2.68
2.54
2.06
1.29
0.44
-0.27
-0.66
-0.69
-0.50
-0.30
-0.29
-0.55
-1.05
-1.64
-2.17
-2.59
-2.96
-3.39
-3.98
-4.71
-5.45
-6.02
-6.25
-6.07
-5.48
-4.54
-3.35
-2.04
-0.77
0.30
1.02
1.38
1.46
1.41
1.37
1.33
1.19
0.79
0.04
-0.98
-2.01
-2.76
-3.01
-2.72
-2.02
-1.09
-0.14
0.73
1.46
1.98
2.18
1.98
1.34
0.41
-0.56
-1.34
-1.76
-1.86
-1.78
-1.71
-1.76
-1.96
-2.23
-2.51
-2.78
-3.08
-3.46
-3.95
-4.55
-5.15
-5.68
-6.01
-6.06
-5.75
-5.06
-4.02
-2.78
-1.57
-0.61
-0.10
-0.10
-0.57
-1.33
-2.20
-3.02
-3.69
-4.14
-4.37
-4.34
-4.09
-3.67
-3.18
-2.71
-2.29
-1.84
-1.18
-0.09
1.57
3.72
6.11
8.30
9.82
10.36
9.83
8.46
6.66
4.87
3.46
2.54
2.07
1.88
1.76
1.61
1.38
1.08
0.75
0.42
0.11
-0.13
-0.27
-0.24
-0.01
0.40
0.94
1.53
2.07
2.40
2.37
1.87
0.91
-0.41
-1.89
-3.32
-4.60
-5.77
-6.90
-8.02
-9.05
-9.78
-10.03
-9.72
-8.92
-7.87
-6.82
-5.95
-5.37
-5.06
-4.95
-4.88
-4.73
-4.39
-3.83
-3.13
-2.46
-1.99
-1.81
-1.90
-2.15
-2.38
-2.44
-2.15
-1.35
0.17
2.60
6.03
10.35
15.24
20.14
24.40
27.41
28.78
28.42
26.61
23.83
20.68
17.64
15.00
12.80
10.85
8.91
6.71
4.13
1.20
-1.89
-4.89
-7.62
-10.01
-12.15
-14.15
-16.08
-17.85
-19.22
-19.96
-19.91
-19.12
-17.82
-16.21
-14.45
-12.52
-10.40
-8.05
-5.60
-3.31
-1.50
-0.44
-0.21
-0.72
-1.70
-2.80
-3.72
-4.28
-4.39
-4.07
-3.35
-2.28
-0.95
0.56
2.05
3.34
4.25
4.70
4.72
4.43
4.10
3.98
4.28
5.05
6.17
7.36
8.30
8.75
8.64
8.06
7.17
6.13
5.06
4.07
3.30
2.90
2.95
3.38
3.96
4.42
4.58
4.42
4.09
3.76
3.53
3.38
3.20
2.88
2.42
1.89
1.36
0.90
0.50
0.12
-0.29
-0.75
-1.22
-1.65
-1.94
-2.03
-1.90
-1.61
-1.29
-1.05
-0.95
-1.02
-1.23
-1.59
-2.12
-2.79
-3.51
-4.04
-4.13
-3.59
-2.43
-0.90
0.62
1.77
2.32
2.27
1.74
0.98
0.16
-0.57
-1.16
-1.63
-2.01
-2.35
-2.63
-2.77
-2.67
-2.25
-1.57
-0.76
-0.08
0.29
0.21
-0.25
-0.93
-1.62
-2.18
-2.56
-2.81
-3.01
-3.24
-3.53
-3.83
-4.06
-4.06
-3.72
-3.03
-2.07
-1.04
-0.18
0.30
0.29
-0.18
-1.05
-2.15
-3.34
-4.37
-5.00
-4.99
-4.21
-2.74
-0.92
0.82
2.07
2.57
2.33
1.57
0.59
-0.31
-0.95
-1.25
-1.22
-0.89
-0.29
0.54
1.56
2.68
3.81
4.89
5.87
6.73
7.45
7.97
8.18
7.91
7.09
5.71
3.97
2.20
0.78
-0.01
-0.06
0.47
1.18
1.59
1.29
0.12
-1.67
-3.56
-4.93
-5.39
-4.89
-3.74
-2.42
-1.35
-0.67
-0.23
0.34
1.43
3.25
5.75
8.61
11.43
13.88
15.91
17.67
19.38
21.10
22.57
23.26
22.51
19.88
15.41
9.66
3.63
-1.60
-5.26
-7.08
-7.46
-7.34
-8.08
-11.17
-17.92
-29.08
-44.42
-62.55
-81.03
-97.07
-108.42
-114.18
-115.09
-113.14
-110.59
-109.08
-109.02
-109.79
-110.40
-110.16
-109.09
-107.77
-106.83
-106.41
-106.08
-105.05
-102.65
-98.82
-94.23
-90.01
-87.25
-86.44
-87.17
-88.26
-88.13
-85.34
-79.04
-69.09
-56.07
-40.96
-24.86
-8.77
6.60
20.73
33.25
43.83
52.10
57.78
60.77
61.39
60.34
58.60
57.11
56.50
56.93
58.13
59.66
61.08
62.16
62.81
63.01
62.71
61.74
59.97
57.34
53.91
49.89
45.49
40.87
36.06
31.02
25.71
20.16
14.45
8.74
3.20
-2.03
-6.93
-11.60
-16.26
-21.19
-26.55
-32.30
-37.94
-42.60
-45.12
-44.36
-39.61
-30.74
-18.36
-3.54
12.35
28.04
42.46
54.84
64.72
71.85
76.24
78.03
77.53
75.16
71.47
67.06
62.63
58.76
55.89
54.18
53.49
53.50
53.78
54.00
53.91
53.39
52.38
50.85
48.83
46.39
43.62
40.64
37.50
34.21
30.70
26.93
22.87
18.61
14.31
10.16
6.28
2.76
-0.52
-3.82
-7.51
-11.89
-16.98
-22.29
-26.91
-29.72
-29.76
-26.61
-20.54
-12.37
-3.23
5.84
14.04
20.90
26.17
29.75
31.61
31.78
30.39
27.70
24.07
20.00
16.06
12.79
10.65
9.85
10.30
11.67
13.46
15.14
16.27
16.51
15.70
13.78
10.87
7.19
3.12
-0.98
-4.82
-8.28
-11.44
-14.44
-17.42
-20.39
-23.27
-25.94
-28.39
-30.75
-33.31
-36.38
-40.07
-44.17
-48.07
-50.91
-51.75
-49.90
-45.09
-37.59
-28.13
-17.64
-7.06
2.89
11.80
19.49
25.97
31.24
35.38
38.47
40.68
42.26
43.51
44.67
45.87
47.08
48.16
48.93
49.28
49.19
48.67
47.80
46.58
44.97
42.89
40.26
37.04
33.22
28.89
24.22
19.41
14.71
10.31
6.30
2.62
-0.91
-4.56
-8.56
-13.04
-17.87
-22.65
-26.74
-29.38
-29.87
-27.84
-23.33
-16.80
-9.05
-0.97
6.68
13.33
18.62
22.35
24.39
24.74
23.56
21.25
18.42
15.78
13.93
13.17
13.48
14.50
15.80
17.00
17.96
18.69
19.29
19.79
20.01
19.67
18.44
16.17
12.95
9.11
5.10
1.32
-2.01
-4.91
-7.56
-10.29
-13.42
-17.12
-21.32
-25.67
-29.49
-31.98
-32.36
-30.18
-25.38
-18.39
-10.02
-1.23
7.05
14.10
19.48
22.98
24.63
24.61
23.25
20.97
18.29
15.71
13.70
12.55
12.34
12.97
14.14
15.54
16.90
18.06
18.92
19.35
19.20
18.22
16.22
13.19
9.34
5.09
0.93
-2.77
-5.84
-8.36
-10.60
-12.88
-15.55
-18.80
-22.59
-26.62
-30.26
-32.66
-32.98
-30.65
-25.61
-18.34
-9.75
-0.87
7.39
14.41
19.89
23.72
25.85
26.30
25.17
22.78
19.70
16.62
14.28
13.16
13.38
14.66
16.47
18.21
19.43
19.93
19.72
18.95
17.78
16.26
14.31
11.85
8.82
5.32
1.58
-2.06
-5.31
-8.01
-10.20
-12.10
-14.04
-16.35
-19.25
-22.77
-26.70
-30.57
-33.67
-35.21
-34.46
-31.02
-25.00
-16.99
-7.97
0.98
8.87
15.05
19.19
21.24
21.40
20.04
17.63
14.73
11.89
9.64
8.31
8.07
8.83
10.31
12.11
13.76
14.91
15.31
14.88
13.68
11.84
9.49
6.71
3.58
0.21
-3.24
-6.50
-9.30
-11.42
-12.77
-13.46
-13.73
-13.95
-14.42
-15.40
-17.00
-19.26
-22.08
-25.22
-28.25
-30.48
-31.07
-29.27
-24.66
-17.40
-8.29
1.43
10.37
17.39
21.84
23.65
23.20
21.14
18.17
14.92
11.89
9.46
7.88
7.32
7.84
9.36
11.61
14.22
16.67
18.47
19.24
18.85
17.40
15.21
12.62
9.91
7.15
4.25
1.10
-2.29
-5.76
-8.96
-11.59
-13.47
-14.70
-15.56
-16.39
-17.46
-18.89
-20.70
-22.90
-25.48
-28.34
-31.19
-33.43
-34.29
-32.99
-29.08
-22.62
-14.21
-4.87
4.25
12.19
18.34
22.47
24.63
25.02
23.85
21.40
18.10
14.55
11.51
9.71
9.64
11.30
14.20
17.54
20.43
22.26
22.81
22.22
20.86
19.08
17.11
15.05
12.92
10.74
8.68
6.96
5.85
5.47
5.80
6.59
7.51
8.23
8.49
8.20
7.27
5.59
3.00
-0.62
-5.14
-10.01
-14.27
-16.80
-16.75
-13.93
-8.92
-2.82
3.12
7.99
11.28
12.83
12.64
10.69
7.06
2.09
-3.42
-8.42
-11.88
-13.22
-12.51
-10.39
-7.71
-5.12
-2.81
-0.50
2.30
6.01
10.71
16.05
21.36
25.82
28.71
29.54
28.13
24.68
19.74
14.22
9.21
5.62
3.75
3.03
2.09
-0.68
-6.31
-14.69
-24.57
-34.05
-41.50
-46.14
-48.18
-48.25
-46.80
-43.54
-37.70
-28.56
-16.21
-1.82
12.64
25.01
33.83
38.67
40.13
39.35
37.36
34.73
31.54
27.67
23.22
18.70
14.93
12.61
11.96
12.54
13.43
13.64
12.57
10.20
7.10
4.06
1.77
0.54
0.24
0.43
0.56
0.22
-0.79
-2.40
-4.41
-6.50
-8.46
-10.22
-11.85
-13.51
-15.36
-17.52
-20.14
-23.39
-27.37
-32.01
-36.84
-41.01
-43.48
-43.39
-40.48
-35.19
-28.60
-21.96
-16.35
-12.35
-10.05
-9.25
-9.59
-10.75
-12.40
-14.23
-15.91
-17.10
-17.56
-17.14
-15.87
-13.85
-11.31
-8.58
-6.02
-3.97
-2.60
-1.97
-1.93
-2.30
-2.89
-3.65
-4.65
-5.98
-7.70
-9.71
-11.85
-13.90
-15.77
-17.47
-19.11
-20.81
-22.65
-24.65
-26.81
-29.22
-31.98
-35.11
-38.40
-41.29
-43.01
-42.75
-40.05
-34.95
-28.04
-20.24
-12.55
-5.79
-0.47
3.19
5.17
5.50
4.32
1.77
-1.88
-6.25
-10.82
-14.97
-18.10
-19.79
-19.97
-18.92
-17.24
-15.63
-14.66
-14.66
-15.56
-17.05
-18.68
-20.01
-20.73
-20.71
-19.98
-18.75
-17.32
-16.08
-15.40
-15.54
-16.55
-18.32
-20.59
-23.08
-25.61
-28.13
-30.70
-33.36
-36.05
-38.49
-40.19
-40.58
-39.17
-35.66
-30.07
-22.74
-14.28
-5.35
3.32
11.17
17.75
22.81
26.24
28.12
28.64
28.14
27.04
25.80
24.86
24.58
25.15
26.55
28.54
30.75
32.85
34.58
35.83
36.57
36.80
36.49
35.59
34.08
31.97
29.35
26.34
23.05
19.60
16.15
12.84
9.79
7.00
4.36
1.64
-1.40
-4.84
-8.61
-12.42
-15.83
-18.35
-19.53
-18.98
-16.52
-12.18
-6.21
0.94
8.73
16.60
24.06
30.65
35.96
39.70
41.70
42.03
40.99
39.11
37.10
35.73
35.85
38.11
42.84
49.74
57.83
65.59
71.42
74.17
73.50
69.96
64.67
58.84
53.38
48.64
44.51
40.56
36.30
31.28
25.24
18.09
10.09
1.68
-6.54
-14.01
-20.30
-25.25
-28.94
-31.76
-34.27
-37.06
-40.48
-44.38
-48.03
-50.26
-49.93
-46.47
-40.18
-32.29
-24.47
-18.25
-14.53
-13.42
-14.45
-16.96
-20.37
-24.30
-28.46
-32.42
-35.67
-37.64
-37.95
-36.50
-33.39
-28.89
-23.29
-16.94
-10.30
-3.98
1.32
5.09
7.21
8.10
8.56
9.53
11.68
15.27
20.09
25.65
31.39
36.76
41.33
44.66
46.36
46.07
43.64
39.25
33.54
27.56
22.55
19.57
19.15
21.09
24.56
28.43
31.67
33.65
34.18
33.35
31.35
28.29
24.29
19.65
14.97
11.08
8.80
8.57
10.18
12.82
15.27
16.36
15.30
11.96
6.80
0.72
-5.32
-10.57
-14.63
-17.46
-19.29
-20.51
-21.62
-23.14
-25.61
-29.43
-34.73
-41.23
-48.21
-54.73
-59.92
-63.21
-64.46
-63.85
-61.61
-57.89
-52.74
-46.29
-38.87
-31.11
-23.71
-17.16
-11.56
-6.64
-2.06
2.20
5.59
7.12
5.84
1.39
-5.64
-13.74
-20.91
-25.38
-26.17
-23.47
-18.50
-13.06
-8.98
-7.51
-9.08
-13.19
-18.71
-24.15
-28.08
-29.48
-27.91
-23.65
-17.57
-10.98
-5.31
-1.75
-0.89
-2.57
-5.95
-9.87
-13.23
-15.28
-15.68
-14.42
-11.66
-7.65
-2.81
2.27
6.81
10.06
11.57
11.41
10.12
8.49
7.14
6.34
5.94
5.59
5.01
4.09
2.92
1.66
0.45
-0.69
-1.76
-2.75
-3.65
-4.37
-4.86
-5.06
-4.93
-4.41
-3.45
-2.06
-0.34
1.47
3.05
4.13
4.63
4.63
4.39
4.12
3.87
3.41
2.28
-0.01
-3.72
-8.61
-13.91
-18.54
-21.49
-22.27
-21.03
-18.45
-15.36
-12.43
-9.90
-7.78
-6.08
-4.99
-4.94
-6.23
-8.80
-12.00
-14.82
-16.29
-15.88
-13.73
-10.49
-7.01
-3.90
-1.44
0.48
2.00
3.16
3.73
3.36
1.79
-1.01
-4.82
-9.18
-13.65
-17.81
-21.37
-24.08
-25.83
-26.64
-26.80
-26.77
-27.09
-28.09
-29.71
-31.37
-32.22
-31.38
-28.29
-22.86
-15.46
-6.76
2.41
11.25
19.01
25.13
29.22
31.20
31.27
29.81
27.28
24.03
20.30
16.19
11.72
6.87
1.64
-4.04
-10.16
-16.63
-23.23
-29.52
-35.01
-39.26
-42.12
-43.83
-44.97
-46.30
-48.49
-51.85
-56.17
-60.82
-64.92
-67.69
-68.67
-67.76
-65.23
-61.46
-56.97
-52.28
-48.08
-45.08
-43.89
-44.63
-46.70
-48.79
-49.18
-46.37
-39.56
-28.96
-15.57
-0.82
13.94
27.68
39.74
49.79
57.60
63.10
66.37
67.76
67.84
67.36
66.99
67.21
68.13
69.56
71.07
72.10
72.10
70.64
67.54
62.90
57.12
50.81
44.62
39.06
34.35
30.42
27.06
24.03
21.25
18.79
16.82
15.47
14.74
14.54
14.71
15.16
15.91
17.03
18.47
19.86
20.63
20.12
18.01
14.42
9.86
4.97
0.22
-4.21
-8.22
-11.47
-13.21
-12.53
-8.80
-2.20
6.16
14.54
21.26
25.29
26.54
25.63
23.43
20.64
17.61
14.47
11.36
8.68
6.94
6.64
7.92
10.50
13.77
17.05
19.86
22.04
23.71
25.09
26.29
27.26
27.83
27.80
27.12
25.89
24.42
23.06
22.09
21.68
21.72
21.94
21.90
21.11
19.16
15.94
11.78
7.54
4.51
4.12
7.45
14.86
25.84
39.09
52.98
65.89
76.53
84.03
87.90
87.95
84.31
77.46
68.24
57.81
47.41
38.04
30.31
24.33
19.89
16.59
14.16
12.55
11.94
12.60
14.74
18.37
23.18
28.64
34.06
38.78
42.22
44.02
44.04
42.34
39.11
34.54
28.70
21.47
12.57
1.73
-11.18
-25.90
-41.77
-57.85
-73.13
-86.83
-98.57
-108.44
-116.84
-124.30
-131.14
-137.34
-142.28
-144.89
-143.79
-137.76
-126.18
-109.42
-88.80
-66.33
-44.18
-24.03
-6.82
7.36
18.95
28.60
36.89
44.14
50.46
55.72
59.69
62.04
62.50
60.92
57.28
51.77
44.73
36.58
27.75
18.60
9.43
0.39
-8.43
-16.96
-25.07
-32.44
-38.48
-42.42
-43.46
-41.10
-35.34
-26.84
-16.78
-6.56
2.50
9.47
13.76
15.18
13.84
10.29
5.66
1.64
0.24
3.29
11.86
25.86
44.01
64.25
84.27
102.13
116.48
126.67
132.53
134.24
132.16
126.81
118.91
109.32
98.99
88.75
79.16
70.34
62.03
53.76
45.08
35.75
25.87
15.74
5.75
-3.81
-12.80
-21.17
-28.84
-35.61
-41.18
-45.30
-47.88
-49.08
-49.27
-48.87
-48.27
-47.72
-47.41
-47.47
-48.00
-49.04
-50.41
-51.80
-52.75
-52.91
-52.15
-50.60
-48.58
-46.38
-44.10
-41.58
-38.55
-34.75
-30.15
-24.94
-19.50
-14.24
-9.50
-5.48
-2.30
-0.05
1.15
1.24
0.25
-1.60
-3.92
-6.25
-8.27
-9.87
-11.22
-12.58
-14.18
-16.10
-18.27
-20.58
-22.94
-25.38
-27.98
-30.79
-33.82
-36.98
-40.14
-43.21
-46.15
-48.95
-51.62
-54.22
-56.77
-59.32
-61.88
-64.45
-66.98
-69.35
-71.43
-73.08
-74.22
-74.83
-75.02
-74.94
-74.81
-74.80
-75.01
-75.38
-75.71
-75.81
-75.50
-74.80
-73.90
-73.07
-72.58
-72.54
-72.84
-73.04
-72.45
-70.12
-65.20
-57.09
-45.87
-32.38
-18.05
-4.54
6.77
15.16
20.60
23.58
24.77
24.70
23.70
22.00
19.82
17.48
15.27
13.35
11.67
10.03
8.12
5.68
2.54
-1.27
-5.40
-9.18
-11.58
-11.54
-8.29
-1.70
7.55
18.18
28.67
37.78
44.79
49.54
52.29
53.41
53.25
52.12
50.37
48.46
46.96
46.36
46.91
48.48
50.57
52.41
53.25
52.59
50.35
46.90
42.82
38.63
34.50
30.20
25.23
19.11
11.74
3.50
-4.77
-12.06
-17.54
-20.83
-22.08
-21.81
-20.74
-19.50
-18.62
-18.40
-18.93
-19.88
-20.52
-19.71
-16.14
-8.83
2.50
17.09
33.28
49.01
62.47
72.53
78.99
82.28
83.05
81.81
78.76
73.96
67.51
59.75
51.26
42.67
34.48
26.95
20.17
14.18
9.08
5.11
2.44
1.06
0.66
0.65
0.32
-0.93
-3.42
-7.14
-11.75
-16.73
-21.53
-25.70
-29.02
-31.57
-33.74
-36.10
-39.27
-43.68
-49.36
-55.76
-61.77
-65.90
-66.73
-63.43
-56.14
-46.08
-35.20
-25.55
-18.59
-14.75
-13.53
-13.81
-14.47
-14.69
-14.15
-12.83
-10.79
-8.10
-4.72
-0.60
4.25
9.79
15.97
22.72
29.92
37.32
44.49
50.93
56.17
59.90
62.09
62.96
62.87
62.18
61.18
60.01
58.70
57.12
55.04
52.13
48.09
42.80
36.45
29.50
22.46
15.64
8.95
1.97
-5.72
-14.10
-22.44
-29.27
-32.71
-31.18
-23.90
-11.29
5.03
22.75
39.44
53.15
62.71
67.64
67.90
63.59
54.88
42.27
26.82
10.26
-5.27
-17.83
-26.24
-30.52
-31.59
-30.81
-29.30
-27.55
-25.47
-22.70
-19.11
-14.99
-11.04
-8.05
-6.64
-6.97
-8.81
-11.66
-14.95
-18.19
-21.01
-23.13
-24.42
-24.86
-24.60
-24.01
-23.67
-24.18
-26.00
-29.18
-33.23
-37.12
-39.51
-39.19
-35.47
-28.42
-18.85
-7.96
3.04
13.23
22.07
29.27
34.62
37.92
39.04
38.05
35.32
31.50
27.34
23.48
20.29
17.83
15.97
14.45
13.08
11.79
10.66
9.82
9.35
9.14
8.91
8.28
6.88
4.59
1.55
-1.91
-5.36
-8.51
-11.26
-13.77
-16.29
-19.11
-22.51
-26.68
-31.70
-37.39
-43.17
-48.02
-50.69
-50.08
-45.62
-37.63
-27.14
-15.65
-4.57
5.11
12.93
18.87
23.04
25.61
26.71
26.51
25.31
23.51
21.54
19.81
18.60
17.98
17.86
18.02
18.20
18.21
17.99
17.59
17.12
16.57
15.83
14.64
12.73
10.01
6.58
2.77
-1.05
-4.63
-7.86
-10.81
-13.60
-16.32
-19.01
-21.78
-24.78
-28.28
-32.36
-36.76
-40.73
-43.14
-42.84
-39.13
-32.04
-22.42
-11.61
-1.00
8.29
15.70
21.15
24.84
27.09
28.13
28.12
27.18
25.46
23.26
20.96
18.96
17.55
16.86
16.83
17.25
17.86
18.40
18.65
18.41
17.54
15.98
13.79
11.12
8.21
5.24
2.33
-0.53
-3.39
-6.33
-9.32
-12.30
-15.16
-17.81
-20.23
-22.46
-24.61
-26.84
-29.39
-32.50
-36.25
-40.42
-44.40
-47.17
-47.65
-45.00
-38.97
-30.02
-19.21
-7.87
2.78
11.88
19.00
24.11
27.39
29.08
29.48
28.82
27.32
25.26
22.96
20.77
19.07
18.09
17.94
18.52
19.62
20.93
22.13
22.95
23.17
22.64
21.31
19.25
16.62
13.69
10.77
8.09
5.73
3.56
1.32
-1.32
-4.51
-8.21
-12.11
-15.85
-19.10
-21.76
-23.97
-26.09
-28.49
-31.48
-35.07
-38.91
-42.28
-44.18
-43.65
-40.08
-33.44
-24.38
-13.96
-3.41
6.21
14.14
20.00
23.69
25.32
25.11
23.42
20.70
17.44
14.19
11.46
9.64
8.95
9.38
10.69
12.48
14.29
15.81
16.92
17.65
18.08
18.20
17.86
16.76
14.62
11.34
7.05
2.20
-2.65
-6.90
-10.16
-12.33
-13.59
-14.38
-15.20
-16.53
-18.70
-21.78
-25.53
-29.31
-32.18
-33.07
-31.13
-26.03
-18.16
-8.53
1.52
10.71
18.15
23.45
26.58
27.69
26.97
24.58
20.85
16.24
11.42
7.09
3.86
2.03
1.57
2.13
3.25
4.47
5.47
6.11
6.35
6.17
5.49
4.17
2.09
-0.78
-4.27
-8.04
-11.68
-14.87
-17.45
-19.47
-21.16
-22.80
-24.69
-27.15
-30.40
-34.50
-39.17
-43.71
-47.04
-47.98
-45.64
-39.79
-30.98
-20.41
-9.50
0.57
9.02
15.55
20.16
22.95
24.04
23.58
21.78
19.03
15.79
12.59
9.95
8.25
7.72
8.27
9.62
11.29
12.81
13.84
14.27
14.16
13.60
12.63
11.15
9.05
6.24
2.79
-1.10
-5.09
-8.87
-12.20
-14.95
-17.18
-19.10
-20.96
-23.04
-25.59
-28.78
-32.63
-36.90
-41.05
-44.23
-45.43
-43.75
-38.75
-30.64
-20.31
-9.05
1.79
11.17
18.47
23.48
26.28
27.05
26.02
23.52
20.02
16.14
12.58
9.97
8.74
8.98
10.44
12.64
14.98
16.96
18.23
18.69
18.42
17.63
16.48
14.99
13.05
10.49
7.18
3.19
-1.20
-5.58
-9.54
-12.84
-15.42
-17.48
-19.35
-21.40
-24.01
-27.42
-31.63
-36.27
-40.56
-43.42
-43.77
-40.86
-34.60
-25.54
-14.81
-3.72
6.56
15.20
21.74
26.02
28.06
28.04
26.29
23.29
19.63
16.01
13.03
11.15
10.54
11.05
12.29
13.74
14.99
15.84
16.33
16.61
16.78
16.73
16.17
14.74
12.20
8.62
4.41
0.15
-3.61
-6.55
-8.64
-10.23
-11.78
-13.79
-16.60
-20.35
-24.87
-29.65
-33.89
-36.60
-36.83
-33.95
-27.88
-19.22
-9.05
1.30
10.63
18.10
23.33
26.29
27.16
26.23
23.85
20.46
16.59
12.85
9.86
8.07
7.61
8.31
9.71
11.32
12.70
13.65
14.14
14.26
14.04
13.41
12.19
10.17
7.26
3.59
-0.54
-4.62
-8.20
-11.00
-13.05
-14.70
-16.48
-18.93
-22.36
-26.68
-31.38
-35.60
-38.30
-38.54
-35.68
-29.65
-20.98
-10.72
-0.19
9.34
16.97
22.30
25.43
26.71
26.51
25.13
22.75
19.58
16.00
12.55
9.83
8.30
8.14
9.11
10.67
12.20
13.19
13.38
12.78
11.54
9.85
7.86
5.62
3.14
0.45
-2.42
-5.41
-8.56
-11.97
-15.66
-19.42
-22.65
-24.54
-24.34
-21.78
-17.30
-11.90
-6.71
-2.49
0.70
3.36
6.15
9.45
13.07
16.37
18.67
19.52
18.90
17.11
14.56
11.50
8.01
4.09
-0.15
-4.35
-7.86
-9.93
-9.91
-7.55
-3.08
2.75
8.94
14.49
18.72
21.40
22.74
23.19
23.16
22.86
22.27
21.21
19.53
17.25
14.56
11.75
9.03
6.44
3.80
0.82
-2.80
-7.27
-12.66
-18.87
-25.58
-32.25
-38.10
-42.19
-43.70
-42.09
-37.38
-30.10
-21.21
-11.82
-2.95
4.62
10.44
14.30
16.21
16.38
15.16
13.06
10.68
8.64
7.42
7.36
8.46
10.49
12.98
15.45
17.56
19.14
20.20
20.76
20.78
20.05
18.34
15.53
11.77
7.48
3.25
-0.40
-3.22
-5.33
-7.14
-9.17
-11.81
-15.25
-19.37
-23.78
-27.92
-31.09
-32.56
-31.74
-28.36
-22.58
-15.00
-6.53
1.89
9.45
15.66
20.24
23.08
24.15
23.49
21.32
18.11
14.58
11.51
9.49
8.76
9.15
10.24
11.54
12.69
13.51
14.00
14.19
14.03
13.36
11.99
9.76
6.69
3.04
-0.78
-4.26
-7.06
-9.09
-10.56
-11.92
-13.64
-16.12
-19.47
-23.52
-27.75
-31.42
-33.69
-33.73
-31.01
-25.41
-17.34
-7.67
2.49
11.96
19.82
25.52
28.90
30.13
29.63
27.90
25.47
22.86
20.53
18.84
17.99
17.98
18.56
19.30
19.76
19.61
18.78
17.44
15.82
14.12
12.34
10.33
7.93
5.02
1.67
-1.90
-5.39
-8.52
-11.11
-13.11
-14.64
-15.96
-17.44
-19.43
-22.17
-25.62
-29.31
-32.45
-34.03
-33.17
-29.43
-22.92
-14.39
-4.95
4.23
12.18
18.31
22.44
24.61
25.01
23.87
21.50
18.33
14.98
12.12
10.34
9.96
10.90
12.69
14.67
16.24
17.03
16.98
16.28
15.16
13.79
12.19
10.24
7.80
4.85
1.52
-1.91
-5.10
-7.82
-10.01
-11.83
-13.57
-15.60
-18.16
-21.32
-24.89
-28.39
-31.13
-32.31
-31.27
-27.64
-21.59
-13.79
-5.30
2.76
9.49
14.41
17.43
18.76
18.67
17.44
15.31
12.58
9.66
7.08
5.36
4.88
5.69
7.46
9.63
11.54
12.70
12.90
12.27
11.09
9.64
8.02
6.17
3.96
1.35
-1.53
-4.35
-6.81
-8.73
-10.21
-11.54
-13.10
-15.12
-17.69
-20.71
-24.00
-27.34
-30.44
-32.88
-34.07
-33.37
-30.28
-24.72
-17.15
-8.48
0.14
7.71
13.59
17.55
19.69
20.25
19.44
17.50
14.75
11.68
8.89
6.99
6.38
7.13
8.91
11.13
13.17
14.55
15.07
14.82
14.02
12.88
11.47
9.74
7.55
4.81
1.62
-1.75
-4.94
-7.60
-9.60
-11.01
-12.07
-13.13
-14.48
-16.35
-18.83
-21.83
-25.04
-27.88
-29.50
-28.94
-25.39
-18.47
-8.36
4.11
17.65
30.78
42.21
51.17
57.56
61.88
64.88
67.19
69.09
70.54
71.45
71.89
72.19
72.67
73.31
73.57
72.59
69.58
64.34
57.42
49.86
42.73
36.64
31.51
26.71
21.42
15.02
7.49
-0.60
-8.21
-14.30
-18.26
-20.29
-21.35
-22.78
-25.75
-30.76
-37.44
-44.77
-51.44
-56.29
-58.57
-57.99
-54.65
-48.98
-41.71
-33.89
-26.74
-21.44
-18.69
-18.58
-20.49
-23.46
-26.63
-29.59
-32.40
-35.35
-38.44
-41.19
-42.71
-42.21
-39.46
-35.04
-30.20
-26.19
-23.81
-23.08
-23.45
-24.18
-24.80
-25.19
-25.50
-25.87
-26.29
-26.66
-26.99
-27.53
-28.64
-30.56
-33.21
-36.21
-39.12
-41.70
-44.06
-46.37
-48.60
-50.29
-50.69
-49.10
-45.20
-39.14
-31.35
-22.33
-12.42
-1.94
8.71
18.98
28.24
36.15
42.74
48.50
54.08
59.96
66.20
72.45
78.18
82.82
85.99
87.57
87.69
86.64
84.93
83.09
81.61
80.66
79.83
78.13
74.26
67.21
56.68
43.34
28.53
13.71
0.01
-12.13
-22.68
-31.81
-39.59
-45.97
-50.94
-54.64
-57.36
-59.45
-61.11
-62.34
-63.03
-63.08
-62.47
-61.34
-59.91
-58.42
-56.99
-55.71
-54.50
-53.24
-51.85
-50.27
-48.61
-47.02
-45.64
-44.56
-43.80
-43.30
-42.90
-42.23
-40.69
-37.59
-32.30
-24.66
-15.12
-4.83
4.81
12.57
17.83
20.65
21.62
21.44
20.66
19.51
18.12
16.61
15.24
14.35
14.26
15.12
16.93
19.54
22.71
26.14
29.39
31.84
32.81
31.78
28.52
23.31
16.76
9.63
2.67
-3.63
-9.04
-13.59
-17.56
-21.36
-25.39
-29.90
-34.91
-40.20
-45.42
-50.16
-54.10
-56.91
-58.27
-57.95
-55.97
-52.78
-49.22
-46.23
-44.48
-44.07
-44.63
-45.67
-46.88
-48.34
-50.31
-53.01
-56.40
-60.20
-64.05
-67.53
-70.09
-70.86
-68.73
-62.66
-52.21
-37.98
-21.51
-4.86
10.25
22.89
33.03
41.20
47.87
53.20
57.06
59.39
60.42
60.72
60.95
61.48
62.21
62.68
62.44
61.29
59.38
57.05
54.51
51.67
48.13
43.42
37.23
29.70
21.37
13.15
5.99
0.51
-3.34
-6.43
-10.22
-16.22
-25.24
-36.78
-49.00
-59.21
-64.93
-64.73
-58.74
-48.36
-35.58
-22.28
-9.77
1.12
9.88
16.06
19.36
19.78
17.77
14.20
10.07
6.21
2.99
0.38
-1.83
-3.84
-5.71
-7.33
-8.55
-9.25
-9.44
-9.28
-8.93
-8.52
-8.10
-7.58
-6.79
-5.51
-3.63
-1.19
1.55
4.09
5.83
6.35
5.67
4.36
3.54
4.52
8.40
15.70
26.20
39.00
52.86
66.55
79.07
89.77
98.27
104.45
108.33
110.06
109.91
108.23
105.43
101.90
98.06
94.27
90.87
88.05
85.86
84.14
82.55
80.70
78.21
74.78
70.18
64.21
56.78
47.90
37.77
26.79
15.50
4.41
-6.10
-15.86
-24.84
-32.99
-40.11
-45.76
-49.38
-50.46
-48.80
-44.60
-38.48
-31.31
-24.01
-17.32
-11.72
-7.39
-4.29
-2.31
-1.31
-1.27
-2.26
-4.36
-7.60
-11.82
-16.71
-21.83
-26.73
-31.08
-34.68
-37.49
-39.54
-40.94
-41.83
-42.42
-42.88
-43.35
-43.85
-44.30
-44.63
-44.91
-45.39
-46.45
-48.42
-51.32
-54.71
-57.69
-59.15
-58.06
-53.90
-46.72
-37.17
-26.20
-14.77
-3.72
6.34
14.96
21.79
26.59
29.28
30.02
29.22
27.47
25.36
23.40
21.82
20.65
19.67
18.58
17.07
14.90
11.96
8.26
3.90
-0.94
-6.07
-11.30
-16.46
-21.43
-26.13
-30.52
-34.57
-38.17
-41.16
-43.35
-44.62
-45.00
-44.65
-43.90
-43.09
-42.53
-42.35
-42.45
-42.43
-41.65
-39.39
-35.09
-28.57
-20.16
-10.54
-0.61
8.84
17.28
24.41
30.12
34.37
37.15
38.56
38.85
38.38
37.55
36.67
35.94
35.40
35.05
34.90
34.99
35.36
36.05
36.98
38.01
38.96
39.64
39.93
39.72
38.88
37.26
34.70
31.11
26.55
21.24
15.58
10.01
4.85
0.24
-3.89
-7.73
-11.51
-15.49
-19.83
-24.62
-29.65
-34.37
-37.91
-39.22
-37.47
-32.39
-24.41
-14.57
-4.17
5.64
14.09
20.87
26.02
29.72
32.16
33.50
33.87
33.41
32.28
30.70
28.86
26.99
25.20
23.56
22.00
20.45
18.90
17.47
16.36
15.71
15.48
15.37
14.93
13.69
11.41
8.16
4.25
0.15
-3.74
-7.18
-10.11
-12.69
-15.14
-17.80
-20.99
-24.92
-29.55
-34.41
-38.65
-41.15
-40.84
-37.09
-29.90
-19.96
-8.46
3.31
14.21
23.50
30.83
36.10
39.39
40.85
40.68
39.14
36.58
33.42
30.00
26.63
23.45
20.47
17.65
14.93
12.32
9.92
7.87
6.28
5.16
4.34
3.57
2.56
1.13
-0.72
-2.83
-4.96
-6.91
-8.60
-10.10
-11.58
-13.26
-15.39
-18.17
-21.67
-25.73
-29.83
-33.16
-34.73
-33.71
-29.71
-22.93
-14.08
-4.17
5.76
14.85
22.51
28.43
32.52
34.85
35.64
35.19
33.82
31.82
29.43
26.85
24.18
21.48
18.76
16.01
13.31
10.80
8.69
7.14
6.18
5.65
5.19
4.40
2.92
0.63
-2.41
-5.87
-9.36
-12.52
-15.16
-17.36
-19.39
-21.72
-24.73
-28.56
-32.91
-37.07
-39.98
-40.65
-38.40
-33.17
-25.49
-16.37
-6.96
1.73
8.99
14.55
18.42
20.86
22.23
22.88
23.12
23.17
23.13
22.99
22.63
21.83
20.36
18.19
15.49
12.73
10.49
9.21
8.98
9.44
9.94
9.82
8.67
6.45
3.47
0.06
-3.49
-7.10
-10.83
-14.82
-19.22
-24.11
-29.39
-34.68
-39.27
-42.28
-42.82
-40.36
-34.93
-27.16
-18.05
-8.76
-0.30
6.66
11.81
15.17
17.00
17.62
17.34
16.40
14.89
12.87
10.45
7.85
5.43
3.52
2.38
1.98
2.11
2.38
2.41
1.98
1.00
-0.43
-2.15
-4.04
-6.06
-8.22
-10.60
-13.20
-16.09
-19.34
-23.01
-27.03
-31.05
-34.39
-36.11
-35.39
-31.76
-25.44
-17.20
-8.17
0.55
8.15
14.20
18.58
21.32
22.48
22.17
20.57
17.96
14.77
11.45
8.42
5.96
4.20
3.15
2.70
2.73
3.04
3.41
3.62
3.42
2.67
1.30
-0.60
-2.90
-5.44
-8.15
-11.01
-14.09
-17.51
-21.33
-25.49
-29.71
-33.44
-35.94
-36.47
-34.44
-29.66
-22.47
-13.67
-4.32
4.49
11.94
17.58
21.36
23.46
24.17
23.71
22.25
19.92
16.96
13.67
10.48
7.76
5.78
4.62
4.19
4.27
4.64
5.05
5.24
4.99
4.14
2.65
0.59
-1.85
-4.44
-6.99
-9.42
-11.80
-14.34
-17.30
-20.88
-25.00
-29.25
-32.81
-34.71
-34.09
-30.50
-24.11
-15.65
-6.19
3.16
11.50
18.22
23.00
25.68
26.32
25.10
22.39
18.76
14.81
11.16
8.27
6.39
5.54
5.52
6.01
6.69
7.33
7.82
8.11
8.14
7.80
6.94
5.43
3.29
0.67
-2.13
-4.78
-7.11
-9.16
-11.20
-13.62
-16.76
-20.67
-25.02
-29.03
-31.72
-32.15
-29.77
-24.60
-17.27
-8.75
-0.09
7.83
14.43
19.38
22.57
23.99
23.76
22.08
19.32
15.92
12.34
8.97
6.12
3.92
2.44
1.62
1.36
1.49
1.81
2.12
2.18
1.83
0.95
-0.43
-2.21
-4.16
-6.10
-7.90
-9.61
-11.41
-13.60
-16.42
-19.98
-24.06
-28.12
-31.29
-32.65
-31.41
-27.24
-20.33
-11.44
-1.69
7.70
15.72
21.71
25.47
27.16
27.15
25.82
23.48
20.35
16.63
12.66
8.93
5.98
4.25
3.85
4.53
5.76
6.96
7.65
7.63
6.89
5.50
3.59
1.20
-1.57
-4.62
-7.80
-10.99
-14.16
-17.44
-21.03
-25.11
-29.58
-33.98
-37.53
-39.29
-38.49
-34.76
-28.30
-19.80
-10.26
-0.77
7.75
14.66
19.60
22.46
23.32
22.44
20.17
17.00
13.48
10.19
7.63
6.11
5.70
6.20
7.29
8.63
9.97
11.15
12.04
12.47
12.24
11.12
9.06
6.23
2.92
-0.49
-3.74
-6.72
-9.48
-12.15
-14.95
-18.03
-21.47
-25.13
-28.59
-31.10
-31.81
-30.01
-25.45
-18.42
-9.75
-0.51
8.25
15.70
21.32
24.87
26.33
25.86
23.81
20.71
17.18
13.87
11.34
9.92
9.64
10.28
11.43
12.72
13.84
14.67
15.19
15.39
15.15
14.32
12.73
10.35
7.33
3.98
0.63
-2.47
-5.19
-7.62
-9.91
-12.29
-15.01
-18.24
-21.98
-25.95
-29.51
-31.78
-31.88
-29.23
-23.76
-16.01
-6.93
2.31
10.72
17.55
22.35
24.98
25.48
24.09
21.24
17.56
13.76
10.55
8.43
7.61
7.99
9.24
10.87
12.43
13.58
14.14
14.09
13.52
12.55
11.24
9.61
7.59
5.13
2.26
-0.88
-4.02
-6.92
-9.43
-11.64
-13.79
-16.25
-19.32
-23.11
-27.34
-31.37
-34.33
-35.30
-33.63
-29.14
-22.17
-13.53
-4.26
4.61
12.23
18.07
21.86
23.55
23.30
21.42
18.40
14.90
11.60
9.12
7.82
7.80
8.80
10.42
12.21
13.86
15.25
16.35
17.11
17.41
17.02
15.71
13.38
10.18
6.42
2.57
-0.90
-3.68
-5.66
-7.00
-8.06
-9.37
-11.43
-14.63
-19.01
-24.20
-29.36
-33.37
-35.14
-33.91
-29.57
-22.63
-14.09
-5.11
3.28
10.34
15.66
19.09
20.60
20.29
18.42
15.46
12.04
8.82
6.35
4.94
4.64
5.28
6.58
8.23
9.96
11.50
12.59
12.99
12.53
11.14
8.89
6.01
2.81
-0.37
-3.26
-5.70
-7.70
-9.45
-11.28
-13.54
-16.47
-20.08
-24.00
-27.49
-29.65
-29.67
-27.09
-21.97
-14.89
-6.78
1.37
8.71
14.70
19.02
21.56
22.32
21.43
19.16
15.98
12.49
9.29
6.86
5.49
5.20
5.78
6.90
8.19
9.37
10.27
10.80
10.90
10.53
9.56
7.92
5.61
2.77
-0.34
-3.42
-6.21
-8.63
-10.82
-13.06
-15.73
-19.08
-23.12
-27.48
-31.44
-34.03
-34.33
-31.78
-26.40
-18.80
-10.02
-1.19
6.79
13.33
18.20
21.32
22.66
22.25
20.22
16.95
13.10
9.50
6.87
5.63
5.79
6.98
8.63
10.27
11.61
12.55
13.12
13.32
13.07
12.24
10.71
8.48
5.68
2.58
-0.54
-3.45
-6.05
-8.37
-10.58
-12.90
-15.55
-18.71
-22.43
-26.52
-30.54
-33.73
-35.25
-34.30
-30.50
-24.04
-15.69
-6.56
2.20
9.75
15.68
19.95
22.67
23.96
23.88
22.55
20.28
17.57
15.09
13.40
12.81
13.30
14.52
15.99
17.29
18.09
18.28
17.81
16.70
14.96
12.63
9.76
6.47
3.00
-0.40
-3.46
-6.08
-8.26
-10.16
-11.98
-13.98
-16.37
-19.32
-22.96
-27.27
-31.95
-36.41
-39.78
-41.10
-39.69
-35.40
-28.73
-20.69
-12.46
-5.06
0.90
5.22
7.93
9.17
9.11
8.01
6.32
4.69
3.85
4.40
6.57
10.18
14.72
19.52
24.06
27.97
31.12
33.53
35.24
36.22
36.36
35.46
33.33
29.92
25.38
20.07
14.48
9.08
4.21
-0.06
-3.85
-7.43
-11.09
-15.10
-19.60
-24.61
-29.96
-35.27
-39.90
-43.10
-44.16
-42.64
-38.52
-32.21
-24.50
-16.34
-8.63
-2.10
2.78
5.80
6.98
6.53
4.88
2.56
0.21
-1.60
-2.44
-2.12
-0.75
1.33
3.67
5.84
7.56
8.72
9.37
9.63
9.58
9.25
8.54
7.36
5.63
3.41
0.90
-1.63
-3.91
-5.83
-7.42
-8.89
-10.47
-12.39
-14.74
-17.54
-20.66
-23.85
-26.66
-28.45
-28.55
-26.45
-22.01
-15.60
-7.98
-0.12
7.17
13.31
18.04
21.23
22.80
22.71
21.05
18.18
14.71
11.44
9.09
8.08
8.41
9.74
11.55
13.38
14.92
16.03
16.71
16.94
16.70
15.89
14.44
12.32
9.62
6.58
3.50
0.68
-1.70
-3.62
-5.29
-7.07
-9.36
-12.47
-16.45
-21.05
-25.67
-29.51
-31.68
-31.54
-28.81
-23.77
-17.10
-9.76
-2.68
3.41
8.09
11.16
12.60
12.49
11.03
8.59
5.70
3.02
1.15
0.50
1.18
3.02
5.71
8.93
12.47
16.18
19.94
23.53
26.65
28.93
30.10
30.13
29.28
28.03
26.94
26.45
26.78
27.91
29.59
31.50
33.25
34.38
34.52
33.39
31.07
28.06
25.19
23.36
23.13
24.48
26.82
29.30
31.21
32.36
32.92
33.21
33.39
33.26
32.50
30.87
28.41
25.46
22.39
19.48
16.79
14.28
11.92
9.70
7.61
5.54
3.29
0.68
-2.39
-5.87
-9.62
-13.51
-17.44
-21.25
-24.69
-27.40
-28.97
-29.14
-27.89
-25.44
-22.15
-18.38
-14.41
-10.45
-6.63
-3.11
-0.04
2.50
4.53
6.30
8.19
10.60
13.70
17.25
20.60
22.90
23.60
22.78
21.29
20.52
21.76
25.67
31.86
38.91
44.82
47.60
45.88
39.28
28.58
15.45
2.02
-9.76
-18.62
-24.22
-27.08
-28.15
-28.38
-28.38
-28.39
-28.43
-28.54
-28.80
-29.27
-29.90
-30.43
-30.52
-29.97
-28.83
-27.39
-26.09
-25.23
-24.89
-24.90
-24.97
-24.80
-24.22
-23.18
-21.82
-20.32
-18.90
-17.75
-16.94
-16.43
-16.06
-15.62
-14.98
-14.15
-13.30
-12.67
-12.47
-12.71
-13.23
-13.75
-14.00
-13.86
-13.33
-12.57
-11.79
-11.14
-10.73
-10.57
-10.61
-10.77
-10.99
-11.22
-11.45
-11.72
-12.08
-12.60
-13.27
-14.06
-14.88
-15.65
-16.26
-16.65
-16.75
-16.50
-15.93
-15.08
-14.05
-12.96
-11.92
-11.01
-10.32
-9.92
-9.88
-10.20
-10.78
-11.40
-11.77
-11.64
-10.97
-9.98
-9.14
-9.00
-10.05
-12.46
-16.04
-20.28
-24.51
-28.13
-30.69
-31.97
-31.81
-30.04
-26.30
-20.23
-11.56
-0.34
12.88
27.15
41.07
52.86
60.57
62.46
57.59
46.51
31.41
15.70
2.87
-4.65
-6.35
-3.50
1.69
7.15
11.68
15.00
17.17
18.05
17.21
14.21
9.16
2.98
-2.85
-6.83
-8.14
-6.87
-3.97
-0.78
1.50
2.29
1.71
0.50
-0.38
-0.10
1.70
4.81
8.53
12.02
14.60
15.97
16.22
15.74
14.95
14.28
14.08
14.66
16.19
18.57
21.41
23.98
25.52
25.60
24.37
22.55
21.08
20.59
20.95
21.25
20.15
16.51
9.92
1.01
-8.83
-17.97
-25.15
-29.80
-32.06
-32.48
-31.70
-30.27
-28.58
-26.99
-25.85
-25.47
-25.99
-27.19
-28.52
-29.21
-28.62
-26.46
-22.93
-18.63
-14.34
-10.74
-8.27
-6.97
-6.62
-6.76
-6.90
-6.66
-5.82
-4.38
-2.50
-0.42
1.61
3.42
4.94
6.22
7.35
8.46
9.55
10.47
10.89
10.32
8.35
4.73
-0.38
-6.48
-12.86
-18.80
-23.84
-27.69
-30.26
-31.45
-31.19
-29.50
-26.69
-23.47
-20.95
-20.46
-23.25
-30.17
-41.51
-57.12
-76.53
-99.15
-124.16
-150.28
-175.64
-197.91
-214.86
-225.04
-228.16
-225.06
-217.11
-205.47
-190.76
-173.11
-152.79
-130.81
-109.01
-89.69
-74.87
-65.49
-61.13
-60.13
-60.25
-59.34
-55.88
-49.27
-39.63
-27.53
-13.70
1.11
16.07
30.17
42.27
51.31
56.74
58.75
58.29
56.71
55.35
55.13
56.36
58.90
62.36
66.30
70.31
74.13
77.54
80.40
82.62
84.07
84.63
84.10
82.38
79.49
75.63
71.15
66.36
61.38
56.14
50.41
44.03
37.07
29.85
22.82
16.46
11.19
7.38
5.47
5.91
9.14
15.41
24.59
36.10
49.01
62.20
74.57
85.10
92.91
97.37
98.16
95.51
90.29
83.90
78.00
73.98
72.58
73.57
75.92
78.26
79.38
78.70
76.40
73.23
70.14
67.78
66.33
65.45
64.51
62.90
60.25
56.43
51.50
45.48
38.43
30.51
22.16
14.08
7.01
1.48
-2.40
-4.77
-5.73
-5.02
-2.07
3.71
12.44
23.52
35.76
47.83
58.65
67.68
74.68
79.40
81.36
79.89
74.42
64.83
51.56
35.51
17.79
-0.57
-18.64
-35.65
-50.91
-63.77
-73.77
-80.72
-84.75
-86.26
-85.74
-83.73
-80.71
-77.13
-73.49
-70.29
-67.88
-66.42
-65.77
-65.64
-65.67
-65.64
-65.48
-65.23
-64.92
-64.56
-64.19
-63.95
-64.17
-65.17
-66.96
-68.92
-69.79
-67.98
-62.12
-51.69
-37.29
-20.47
-3.25
12.54
25.69
35.78
42.94
47.59
50.14
50.93
50.27
48.62
46.58
44.80
43.85
43.95
44.97
46.50
48.05
49.25
49.94
50.15
49.97
49.40
48.33
46.63
44.21
41.12
37.57
33.84
30.15
26.59
23.12
19.62
15.96
12.15
8.28
4.56
1.21
-1.66
-4.11
-6.40
-8.93
-12.12
-16.29
-21.45
-27.15
-32.45
-36.08
-36.80
-33.82
-27.12
-17.57
-6.60
4.22
13.68
21.15
26.57
30.18
32.27
32.96
32.30
30.45
27.76
24.88
22.54
21.32
21.47
22.82
24.92
27.21
29.20
30.65
31.46
31.62
31.11
29.82
27.70
24.75
21.16
17.21
13.27
9.61
6.38
3.59
1.12
-1.16
-3.36
-5.56
-7.84
-10.30
-13.06
-16.23
-19.82
-23.69
-27.58
-31.06
-33.64
-34.78
-34.00
-30.93
-25.40
-17.58
-8.02
2.35
12.36
20.88
27.04
30.38
30.87
28.85
24.90
19.76
14.22
9.04
4.93
2.37
1.57
2.40
4.43
7.08
9.70
11.77
12.91
12.95
11.88
9.86
7.16
4.08
0.90
-2.23
-5.29
-8.33
-11.38
-14.36
-17.09
-19.30
-20.77
-21.44
-21.49
-21.32
-21.50
-22.53
-24.70
-27.88
-31.43
-34.30
-35.31
-33.46
-28.32
-20.16
-9.93
1.06
11.48
20.29
26.91
31.20
33.24
33.30
31.72
28.93
25.53
22.26
19.81
18.72
19.17
20.92
23.44
26.09
28.43
30.30
31.85
33.35
34.99
36.69
38.10
38.71
38.04
35.85
32.18
27.36
21.85
16.10
10.47
5.16
0.25
-4.26
-8.42
-12.37
-16.30
-20.39
-24.71
-29.02
-32.76
-35.09
-35.16
-32.45
-27.01
-19.51
-11.04
-2.66
4.79
10.94
15.61
18.70
19.96
19.15
16.29
11.86
6.81
2.27
-0.88
-2.36
-2.48
-1.91
-1.25
-0.78
-0.35
0.32
1.39
2.74
4.01
4.89
5.22
4.99
4.21
2.76
0.41
-3.05
-7.59
-12.82
-18.19
-23.18
-27.57
-31.53
-35.44
-39.56
-43.76
-47.42
-49.61
-49.37
-46.07
-39.70
-30.84
-20.58
-10.13
-0.49
7.80
14.55
19.76
23.34
25.05
24.63
22.19
18.33
14.13
10.80
9.20
9.50
11.26
13.67
15.94
17.66
18.69
19.09
18.86
17.92
16.08
13.26
9.51
4.99
-0.04
-5.39
-10.86
-16.37
-21.88
-27.44
-33.04
-38.56
-43.59
-47.39
-49.07
-47.81
-43.23
-35.49
-25.34
-13.86
-2.25
8.31
16.80
22.38
24.49
23.04
18.53
11.94
4.60
-2.18
-7.41
-10.58
-11.70
-11.15
-9.54
-7.53
-5.72
-4.52
-4.15
-4.61
-5.68
-7.06
-8.39
-9.38
-9.87
-9.90
-9.71
-9.71
-10.34
-11.96
-14.68
-18.20
-21.82
-24.51
-25.11
-22.74
-17.10
-8.71
1.20
11.16
19.84
26.51
31.03
33.62
34.57
33.98
31.85
28.27
23.67
18.76
14.42
11.27
9.54
8.96
8.98
9.00
8.62
7.67
6.15
4.10
1.57
-1.42
-4.82
-8.52
-12.30
-15.89
-19.03
-21.68
-24.03
-26.53
-29.67
-33.63
-38.05
-41.90
-43.81
-42.56
-37.64
-29.50
-19.44
-9.10
0.11
7.36
12.47
15.68
17.28
17.50
16.44
14.27
11.32
8.09
5.18
3.10
2.17
2.40
3.57
5.28
7.07
8.49
9.19
8.97
7.81
5.85
3.33
0.52
-2.38
-5.26
-8.11
-11.00
-14.08
-17.51
-21.44
-25.92
-30.72
-35.25
-38.59
-39.75
-37.93
-32.91
-25.18
-15.83
-6.21
2.47
9.42
14.38
17.44
18.88
19.00
18.06
16.32
14.14
11.88
9.92
8.52
7.74
7.48
7.51
7.65
7.78
7.88
7.95
7.88
7.46
6.46
4.69
2.16
-0.93
-4.24
-7.43
-10.25
-12.68
-14.90
-17.26
-20.21
-24.06
-28.83
-34.04
-38.70
-41.55
-41.45
-37.84
-30.94
-21.72
-11.53
-1.64
6.95
13.74
18.55
21.39
22.36
21.72
19.86
17.37
14.90
13.03
12.06
12.04
12.76
13.90
15.17
16.33
17.29
17.99
18.38
18.37
17.83
16.67
14.90
12.60
9.97
7.26
4.67
2.36
0.36
-1.45
-3.36
-5.71
-8.79
-12.64
-16.87
-20.65
-22.89
-22.62
-19.29
-13.06
-4.71
4.57
13.59
21.42
27.47
31.49
33.46
33.48
31.80
28.85
25.18
21.44
18.24
15.97
14.75
14.44
14.72
15.22
15.60
15.68
15.34
14.56
13.35
11.69
9.58
7.07
4.32
1.51
-1.18
-3.63
-5.85
-7.94
-10.08
-12.43
-15.15
-18.23
-21.47
-24.35
-26.14
-26.07
-23.56
-18.54
-11.52
-3.51
4.34
11.02
15.91
18.85
19.98
19.54
17.82
15.13
11.91
8.70
6.09
4.52
4.13
4.75
5.96
7.31
8.47
9.32
9.87
10.15
10.14
9.70
8.68
6.99
4.70
2.00
-0.77
-3.33
-5.51
-7.32
-8.93
-10.61
-12.58
-14.98
-17.70
-20.38
-22.45
-23.24
-22.17
-18.96
-13.78
-7.18
-0.03
6.80
12.57
16.81
19.29
19.91
18.76
16.07
12.29
8.11
4.31
1.58
0.35
0.63
2.05
4.01
5.87
7.17
7.73
7.64
7.12
6.42
5.65
4.72
3.48
1.74
-0.55
-3.26
-6.14
-8.83
-11.06
-12.66
-13.68
-14.33
-14.94
-15.87
-17.39
-19.55
-22.09
-24.45
-25.85
-25.58
-23.16
-18.60
-12.39
-5.34
1.63
7.75
12.53
15.78
17.43
17.53
16.23
13.79
10.67
7.52
4.98
3.59
3.57
4.81
6.88
9.20
11.29
12.78
13.58
13.74
13.44
12.80
11.87
10.62
8.96
6.90
4.53
2.05
-0.31
-2.36
-4.05
-5.42
-6.62
-7.82
-9.15
-10.74
-12.60
-14.71
-16.90
-18.87
-20.18
-20.35
-18.98
-15.90
-11.31
-5.76
0.06
5.43
9.80
12.88
14.58
14.92
13.99
11.91
8.96
5.56
2.33
-0.19
-1.65
-2.00
-1.52
-0.59
0.43
1.38
2.34
3.44
4.81
6.39
7.93
9.06
9.35
8.50
6.47
3.51
0.14
-2.97
-5.26
-6.42
-6.47
-5.69
-4.48
-3.25
-2.33
-1.90
-2.03
-2.57
-3.13
-3.12
-1.92
0.91
5.38
11.01
16.96
22.31
26.31
28.55
28.96
27.64
24.81
20.72
15.76
10.43
5.42
1.44
-1.01
-1.70
-0.79
1.32
4.11
7.14
10.07
12.69
14.87
16.46
17.29
17.13
15.76
13.03
9.00
3.96
-1.56
-6.89
-11.50
-15.18
-18.09
-20.69
-23.51
-26.86
-30.76
-35.00
-39.20
-42.92
-45.65
-46.84
-45.94
-42.60
-36.91
-29.47
-21.27
-13.45
-6.96
-2.36
0.14
0.54
-1.06
-4.44
-9.27
-14.98
-20.81
-25.93
-29.68
-31.66
-31.84
-30.52
-28.29
-25.80
-23.65
-22.20
-21.51
-21.45
-21.76
-22.23
-22.75
-23.27
-23.75
-24.13
-24.38
-24.55
-24.79
-25.27
-26.08
-27.15
-28.29
-29.36
-30.39
-31.61
-33.35
-35.79
-38.73
-41.52
-43.25
-43.03
-40.30
-35.01
-27.57
-18.73
-9.38
-0.41
7.40
13.47
17.41
19.10
18.64
16.39
12.94
9.04
5.49
3.01
2.03
2.60
4.38
6.77
9.19
11.21
12.74
13.90
14.87
15.72
16.33
16.42
15.68
13.96
11.30
8.00
4.47
1.11
-1.80
-4.23
-6.29
-8.28
-10.51
-13.28
-16.74
-20.74
-24.76
-27.95
-29.36
-28.17
-24.06
-17.31
-8.75
0.52
9.41
17.10
23.08
27.12
29.16
29.24
27.55
24.45
20.52
16.45
12.94
10.56
9.60
10.04
11.60
13.81
16.20
18.40
20.21
21.54
22.37
22.60
22.07
20.57
17.98
14.39
10.13
5.69
1.53
-2.02
-4.90
-7.28
-9.45
-11.81
-14.71
-18.40
-22.88
-27.75
-32.21
-35.15
-35.46
-32.39
-25.86
-16.55
-5.70
5.21
14.90
22.52
27.74
30.68
31.71
31.23
29.58
27.02
23.87
20.55
17.61
15.63
14.96
15.62
17.27
19.33
21.27
22.75
23.62
23.87
23.50
22.39
20.39
17.39
13.38
8.59
3.40
-1.76
-6.44
-10.40
-13.58
-16.15
-18.47
-21.00
-24.14
-28.15
-33.05
-38.52
-44.01
-48.68
-51.62
-52.00
-49.30
-43.49
-35.11
-25.08
-14.48
-4.27
4.88
12.64
18.84
23.44
26.40
27.81
28.02
27.62
27.36
27.87
29.37
31.65
34.19
36.46
38.17
39.39
40.37
41.28
42.08
42.42
41.83
39.89
36.47
31.73
26.09
20.07
14.17
8.68
3.72
-0.82
-5.14
-9.47
-13.99
-18.81
-23.93
-29.20
-34.21
-38.29
-40.65
-40.57
-37.73
-32.36
-25.26
-17.50
-10.16
-4.06
0.39
3.15
4.49
4.83
4.68
4.50
4.63
5.31
6.66
8.72
11.43
14.62
17.98
21.07
23.47
24.90
25.29
24.82
23.77
22.31
20.45
18.01
14.77
10.68
5.96
1.09
-3.25
-6.51
-8.38
-8.95
-8.67
-8.19
-8.21
-9.24
-11.44
-14.50
-17.68
-19.97
-20.38
-18.24
-13.43
-6.43
1.83
10.21
17.64
23.32
26.79
27.92
26.90
24.18
20.43
16.48
13.10
10.93
10.27
11.05
12.92
15.35
17.82
19.97
21.59
22.64
23.10
22.96
22.18
20.77
18.80
16.41
13.77
11.00
8.21
5.43
2.75
0.26
-1.94
-3.82
-5.51
-7.20
-9.13
-11.50
-14.47
-18.16
-22.64
-27.80
-33.20
-37.97
-40.98
-41.12
-37.76
-31.06
-22.00
-12.05
-2.72
4.92
10.43
13.92
15.80
16.51
16.31
15.38
13.89
12.15
10.66
10.10
11.09
14.03
18.87
25.11
31.85
38.12
43.12
46.56
48.72
50.37
52.43
55.68
60.52
66.86
74.06
80.96
86.01
87.53
84.25
75.70
62.51
46.21
28.73
11.72
-3.90
-17.89
-30.43
-41.62
-51.26
-58.99
-64.45
-67.47
-68.00
-66.04
-61.61
-54.92
-46.59
-37.71
-29.54
-23.18
-19.23
-17.70
-18.28
-20.66
-24.60
-29.90
-36.05
-42.08
-46.63
-48.41
-46.71
-41.66
-34.24
-25.81
-17.68
-10.67
-5.05
-0.74
2.44
4.47
5.14
4.25
1.84
-1.68
-5.56
-9.03
-11.60
-13.26
-14.47
-15.86
-17.92
-20.76
-24.14
-27.64
-30.94
-33.99
-36.90
-39.74
-42.39
-44.38
-45.04
-43.78
-40.31
-34.86
-28.06
-20.84
-14.15
-8.72
-5.05
-3.36
-3.75
-6.15
-10.40
-16.05
-22.36
-28.26
-32.62
-34.46
-33.27
-29.15
-22.77
-15.09
-7.12
0.29
6.61
11.65
15.45
18.21
20.21
21.71
22.88
23.80
24.39
24.44
23.72
21.99
19.20
15.60
11.71
8.11
5.25
3.21
1.54
-0.51
-3.66
-8.17
-13.50
-18.37
-21.12
-20.27
-15.04
-5.70
6.55
19.93
32.61
43.09
50.46
54.38
54.96
52.62
47.93
41.62
34.42
27.12
20.45
15.02
11.19
9.04
8.32
8.51
9.09
9.61
9.89
9.98
10.09
10.47
11.21
12.26
13.43
14.47
15.13
15.27
14.91
14.28
13.73
13.67
14.40
15.96
18.10
20.26
21.71
21.70
19.63
15.19
8.58
0.51
-7.79
-14.89
-19.46
-20.76
-18.87
-14.61
-9.31
-4.23
-0.27
2.29
3.60
4.03
3.84
3.15
1.94
0.29
-1.60
-3.35
-4.58
-5.06
-4.77
-3.89
-2.70
-1.42
-0.17
1.05
2.26
3.47
4.64
5.74
6.72
7.60
8.50
9.55
10.94
12.79
15.14
17.93
21.03
24.27
27.46
30.37
32.71
34.18
34.53
33.75
32.15
30.39
29.27
29.50
31.39
34.82
39.25
43.99
48.45
52.23
55.16
57.19
58.32
58.52
57.79
56.12
53.59
50.31
46.54
42.63
39.05
36.25
34.49
33.70
33.35
32.60
30.46
26.14
19.40
10.65
1.00
-8.08
-15.18
-19.34
-20.30
-18.46
-14.73
-10.19
-5.82
-2.38
-0.29
0.23
-0.79
-3.16
-6.60
-10.85
-15.78
-21.34
-27.53
-34.26
-41.21
-47.88
-53.62
-57.78
-59.89
-59.78
-57.66
-54.06
-49.72
-45.35
-41.45
-38.15
-35.27
-32.49
-29.50
-26.18
-22.63
-19.05
-15.68
-12.74
-10.39
-8.78
-8.00
-8.04
-8.78
-9.92
-11.08
-11.93
-12.31
-12.25
-11.93
-11.60
-11.41
-11.45
-11.68
-12.05
-12.51
-13.01
-13.46
-13.70
-13.56
-12.93
-11.88
-10.61
-9.41
-8.57
-8.21
-8.27
-8.57
-8.93
-9.20
-9.36
-9.51
-9.72
-10.05
-10.46
-10.80
-10.94
-10.76
-10.28
-9.63
-9.00
-8.59
-8.49
-8.67
-9.04
-9.48
-9.90
-10.29
-10.65
-10.98
-11.24
-11.39
-11.37
-11.19
-10.86
-10.43
-9.95
-9.51
-9.19
-9.07
-9.19
-9.49
-9.79
-9.86
-9.49
-8.62
-7.35
-5.96
-4.72
-3.88
-3.51
-3.54
-3.83
-4.22
-4.61
-4.99
-5.41
-5.90
-6.47
-7.02
-7.41
-7.45
-7.04
-6.22
-5.10
-3.87
-2.69
-1.65
-0.78
-0.05
0.56
1.08
1.46
1.69
1.75
1.65
1.46
1.24
1.04
0.87
0.69
0.41
0.00
-0.55
-1.17
-1.77
-2.30
-2.74
-3.11
-3.44
-3.66
-3.70
-3.49
-3.05
-2.49
-1.97
-1.62
-1.51
-1.57
-1.72
-1.87
-2.00
-2.14
-2.34
-2.60
-2.87
-3.03
-2.98
-2.66
-2.11
-1.45
-0.86
-0.46
-0.33
-0.42
-0.61
-0.74
-0.68
-0.42
-0.03
0.33
0.48
0.32
-0.12
-0.70
-1.22
-1.54
-1.65
-1.63
-1.63
-1.76
-2.05
-2.42
-2.77
-3.06
-3.24
-3.30
-3.21
-2.95
-2.52
-2.01
-1.58
-1.37
-1.43
-1.64
-1.84
-1.85
-1.63
-1.28
-1.00
-0.90
-1.05
-1.36
-1.72
-2.02
-2.20
-2.27
-2.26
-2.21
-2.12
-1.99
-1.78
-1.43
-0.90
-0.19
0.61
1.40
2.08
2.63
3.07
3.44
3.76
3.95
3.89
3.48
2.68
1.57
0.31
-0.89
-1.87
-2.51
-2.75
-2.55
-1.90
-0.85
0.50
1.93
3.21
4.09
4.43
4.21
3.51
2.49
1.29
0.06
-1.11
-2.07
-2.69
-2.84
-2.51
-1.78
-0.83
0.11
0.87
1.32
1.40
1.14
0.63
0.00
-0.60
-1.08
-1.42
-1.67
-1.89
-2.09
-2.18
-2.05
-1.62
-0.94
-0.17
0.48
0.88
1.01
0.97
0.84
0.66
0.45
0.23
0.09
0.17
0.58
1.28
2.11
2.80
3.09
2.84
2.07
0.99
-0.16
-1.11
-1.71
-1.90
-1.74
-1.32
-0.74
-0.04
0.77
1.73
2.80
3.92
5.00
5.95
6.75
7.45
8.05
8.50
8.64
8.29
7.33
5.81
3.90
1.89
-0.00
-1.63
-3.01
-4.20
-5.31
-6.42
-7.55
-8.73
-9.88
-10.87
-11.48
-11.45
-10.57
-8.74
-6.06
-2.79
0.70
3.95
6.53
8.00
7.99
6.35
3.22
-0.86
-5.09
-8.58
-10.71
-11.38
-11.07
-10.58
-10.74
-12.01
-14.41
-17.55
-20.83
-23.70
-25.74
-26.65
-26.17
-24.01
-19.93
-13.84
-5.94
3.19
12.67
21.42
28.43
32.91
34.46
33.10
29.26
23.63
16.99
10.10
3.54
-2.22
-6.88
-10.18
-11.93
-12.08
-10.77
-8.47
-5.83
-3.53
-2.06
-1.48
-1.46
-1.46
-1.01
0.09
1.67
3.28
4.30
4.07
1.96
-2.46
-9.27
-18.02
-27.61
-36.51
-43.16
-46.45
-46.07
-42.45
-36.51
-29.10
-20.80
-11.82
-2.32
7.28
16.05
22.77
26.24
25.80
21.67
14.91
7.19
0.24
-4.61
-6.73
-6.18
-3.56
0.32
4.72
9.07
13.00
16.29
18.79
20.41
21.21
21.45
21.56
22.18
23.89
27.10
31.94
38.15
45.18
52.33
58.92
64.45
68.74
71.93
74.44
76.73
79.06
81.37
83.12
83.37
80.94
74.74
64.02
48.74
29.66
8.29
-13.49
-33.93
-51.83
-66.83
-79.22
-89.55
-98.13
-104.81
-109.05
-110.32
-108.46
-103.92
-97.63
-90.61
-83.65
-77.06
-70.73
-64.38
-57.78
-50.82
-43.56
-36.00
-28.10
-19.77
-11.00
-2.00
6.78
14.72
21.17
25.71
28.15
28.62
27.49
25.22
22.32
19.26
16.43
14.18
12.72
12.17
12.41
13.07
13.61
13.34
11.64
8.19
3.11
-2.94
-8.89
-13.51
-15.78
-15.20
-11.99
-6.99
-1.48
3.24
6.18
6.87
5.36
2.14
-2.09
-6.51
-10.33
-12.82
-13.40
-11.79
-8.11
-2.96
2.73
7.90
11.76
13.94
14.62
14.24
13.35
12.29
11.24
10.29
9.60
9.49
10.34
12.39
15.54
19.33
22.99
25.72
26.95
26.47
24.60
22.08
19.90
19.08
20.31
23.73
28.74
34.08
38.06
39.00
35.69
27.81
16.09
2.18
-11.75
-23.64
-31.98
-36.15
-36.39
-33.52
-28.61
-22.66
-16.48
-10.73
-5.86
-2.17
0.30
1.79
2.73
3.62
4.84
6.52
8.63
10.96
13.33
15.56
17.52
19.13
20.27
20.88
20.94
20.48
19.61
18.47
17.29
16.32
15.81
15.96
16.85
18.42
20.48
22.81
25.19
27.44
29.30
30.36
30.07
27.83
23.18
16.02
6.78
-3.62
-13.96
-22.99
-29.72
-33.61
-34.61
-33.04
-29.50
-24.71
-19.50
-14.73
-11.15
-9.30
-9.33
-10.96
-13.56
-16.40
-18.84
-20.56
-21.51
-21.85
-21.74
-21.30
-20.59
-19.66
-18.64
-17.74
-17.22
-17.24
-17.83
-18.80
-19.79
-20.34
-20.02
-18.57
-15.91
-12.28
-8.19
-4.42
-1.79
-0.94
-2.08
-4.81
-8.24
-11.22
-12.75
-12.27
-9.77
-5.71
-0.78
4.29
9.03
13.21
16.90
20.35
23.81
27.33
30.58
32.79
32.97
30.27
24.43
15.94
5.99
-4.03
-12.97
-20.31
-26.25
-31.54
-37.30
-44.77
-55.24
-69.77
-88.91
-112.30
-138.63
-165.73
-191.14
-212.60
-228.52
-238.03
-240.88
-237.23
-227.47
-212.11
-191.74
-167.01
-138.60
-107.40
-74.71
-42.27
-12.15
13.62
33.56
47.04
54.33
56.31
54.13
49.01
42.14
34.62
27.48
21.49
17.06
14.16
12.50
11.69
11.37
11.30
11.17
10.55
8.85
5.48
0.11
-7.02
-15.05
-22.50
-27.61
-28.78
-24.99
-16.09
-2.91
12.97
29.52
44.76
57.17
65.87
70.75
72.22
71.06
68.16
64.30
60.12
56.13
52.74
50.34
49.21
49.45
50.86
52.98
55.21
56.99
57.92
57.82
56.68
54.58
51.63
47.93
43.58
38.70
33.42
27.90
22.36
17.07
12.36
8.54
5.76
3.98
2.89
1.97
0.59
-1.81
-5.59
-10.65
-16.33
-21.37
-24.10
-22.90
-16.68
-5.31
10.23
28.20
46.52
63.45
77.87
89.44
98.29
104.80
109.31
112.16
113.71
114.44
114.89
115.42
115.98
116.24
115.48
112.84
107.73
100.16
90.67
80.32
70.06
60.50
52.06
44.81
38.51
32.70
26.85
20.47
13.51
6.23
-0.73
-6.11
-8.87
-8.76
-6.51
-3.48
-1.26
-0.76
-2.37
-5.95
-9.34
-10.17
-6.77
1.44
14.10
29.81
47.48
65.45
81.65
97.00
112.40
127.36
140.00
148.49
151.44
150.90
149.49
149.27
155.67
171.90
196.83
225.46
252.06
271.30
283.35
289.67
291.74
296.55
309.75
332.50
361.30
391.22
416.60
437.51
454.72
432.62
352.50
222.07
72.86
-62.16
-151.95
-208.04
-243.56
-268.00
-287.29
-301.14
-306.55
-303.63
-296.52
-290.49
-290.99
-296.94
-305.94
-315.81
-320.50
-315.44
-300.30
-278.88
-256.37
-238.36
-225.69
-218.26
-215.95
-215.57
-213.80
-208.92
-201.04
-190.90
-179.83
-166.98
-151.82
-134.84
-116.00
-95.86
-75.98
-58.31
-44.16
-34.08
-26.97
-21.88
-18.69
-17.27
-17.30
-17.98
-18.07
-16.20
-11.78
-4.98
2.92
10.19
15.51
18.59
20.03
20.84
21.69
22.51
22.31
19.52
12.63
0.98
-14.71
-32.15
-48.11
-59.37
-63.92
-61.69
-54.60
-45.84
-38.83
-36.17
-38.92
-46.51
-56.91
-67.26
-74.61
-76.68
-72.56
-62.85
-49.39
-34.48
-19.97
-6.71
5.49
17.47
29.97
43.13
56.31
68.29
77.70
83.45
85.08
82.97
78.26
72.56
67.38
63.51
60.61
57.35
52.04
43.50
31.82
18.50
5.86
-3.92
-9.86
-12.63
-14.33
-17.63
-24.71
-36.44
-52.07
-69.45
-85.64
-97.54
-102.61
-99.19
-86.99
-67.24
-42.73
-17.42
4.46
19.67
27.14
28.43
27.12
27.32
31.93
41.53
54.38
67.46
77.89
83.99
85.52
83.24
78.16
71.04
62.43
52.88
43.21
34.51
27.85
23.95
22.85
23.91
26.06
28.14
29.36
29.60
29.38
29.49
30.33
31.47
31.69
29.39
23.49
14.01
2.23
-9.83
-20.17
-27.40
-31.03
-31.14
-28.09
-22.26
-14.20
-4.92
3.91
10.12
11.80
8.07
-0.22
-10.57
-19.64
-24.44
-23.38
-16.82
-6.72
4.20
13.50
19.66
22.38
22.32
20.75
19.09
18.54
19.78
22.74
26.66
30.47
33.28
34.72
34.99
34.42
33.11
30.70
26.68
20.86
13.74
6.31
-0.44
-6.02
-10.74
-15.35
-20.58
-26.81
-34.07
-42.37
-52.02
-63.48
-77.00
-92.00
-106.91
-119.40
-127.06
-128.11
-121.95
-109.14
-91.18
-69.98
-47.44
-25.17
-4.33
14.33
30.46
43.99
55.08
63.93
70.71
75.54
78.41
79.36
78.43
75.73
71.33
65.25
57.53
48.33
38.07
27.43
17.09
7.50
-1.51
-10.55
-20.38
-31.38
-43.17
-54.74
-64.84
-72.62
-77.95
-81.44
-83.97
-86.23
-88.35
-90.04
-90.88
-90.77
-89.97
-88.97
-88.23
-87.86
-87.66
-87.17
-85.79
-82.92
-78.00
-70.63
-60.79
-48.91
-35.85
-22.71
-10.53
-0.00
8.50
14.88
19.13
21.34
21.82
21.16
20.26
20.03
21.07
23.40
26.45
29.38
31.41
32.18
31.84
30.87
29.77
28.83
27.98
26.87
25.10
22.43
18.93
14.88
10.72
6.80
3.34
0.33
-2.38
-5.16
-8.44
-12.66
-18.00
-24.20
-30.40
-35.30
-37.48
-35.88
-30.24
-21.20
-10.02
1.76
12.83
22.30
29.72
34.95
38.01
39.00
38.10
35.69
32.35
28.72
25.47
23.07
21.72
21.33
21.62
22.18
22.65
22.81
22.59
22.05
21.31
20.35
19.04
17.14
14.40
10.71
6.21
1.31
-3.47
-7.64
-10.92
-13.35
-15.30
-17.34
-20.04
-23.82
-28.78
-34.59
-40.49
-45.38
-48.08
-47.62
-43.56
-36.14
-26.23
-15.08
-3.93
6.23
14.85
21.71
26.82
30.26
32.10
32.41
31.37
29.33
26.80
24.42
22.75
22.14
22.56
23.67
24.94
25.92
26.39
26.42
26.14
25.63
24.71
23.04
20.30
16.39
11.61
6.49
1.65
-2.45
-5.65
-8.13
-10.26
-12.52
-15.31
-18.92
-23.50
-28.90
-34.62
-39.79
-43.29
-44.01
-41.23
-34.90
-25.69
-14.81
-3.62
6.70
15.42
22.26
27.25
30.54
32.28
32.59
31.69
29.93
27.84
26.00
24.91
24.82
25.61
26.90
28.16
28.95
29.10
28.70
27.98
27.15
26.25
25.09
23.38
20.88
17.50
13.39
8.86
4.33
0.14
-3.49
-6.52
-9.13
-11.63
-14.44
-17.99
-22.54
-28.00
-33.82
-38.98
-42.19
-42.35
-38.89
-32.01
-22.60
-11.98
-1.46
7.99
15.86
21.97
26.38
29.18
30.45
30.32
29.07
27.10
24.95
23.17
22.20
22.21
23.09
24.48
25.86
26.81
27.06
26.59
25.54
24.09
22.38
20.43
18.19
15.60
12.62
9.26
5.63
1.86
-1.87
-5.39
-8.57
-11.38
-13.86
-16.18
-18.63
-21.55
-25.27
-29.86
-35.05
-40.09
-43.83
-45.08
-42.93
-37.16
-28.29
-17.53
-6.29
4.14
12.92
19.70
24.48
27.47
28.91
29.05
28.18
26.68
25.00
23.60
22.83
22.85
23.57
24.73
25.99
27.01
27.57
27.55
26.93
25.73
24.03
21.91
19.46
16.77
13.88
10.79
7.51
4.07
0.55
-2.91
-6.17
-9.12
-11.74
-14.09
-16.33
-18.69
-21.48
-25.03
-29.54
-34.89
-40.50
-45.30
-47.99
-47.44
-43.10
-35.27
-25.02
-13.84
-3.17
6.00
13.25
18.61
22.28
24.46
25.29
24.95
23.77
22.25
20.94
20.26
20.37
21.14
22.26
23.37
24.23
24.71
24.77
24.37
23.50
22.11
20.23
17.93
15.36
12.65
9.94
7.26
4.57
1.78
-1.18
-4.28
-7.42
-10.38
-13.02
-15.30
-17.38
-19.60
-22.38
-26.06
-30.74
-36.10
-41.37
-45.46
-47.19
-45.65
-40.53
-32.27
-21.93
-10.91
-0.53
8.30
15.15
20.01
23.10
24.69
25.02
24.38
23.08
21.55
20.22
19.47
19.51
20.34
21.78
23.48
25.09
26.31
26.93
26.91
26.30
25.17
23.62
21.68
19.37
16.75
13.90
10.93
7.92
4.93
1.96
-1.03
-4.03
-6.97
-9.79
-12.43
-14.94
-17.44
-20.16
-23.37
-27.27
-31.86
-36.77
-41.23
-44.15
-44.44
-41.37
-34.90
-25.78
-15.29
-4.84
4.41
11.81
17.23
20.84
22.90
23.62
23.19
21.83
19.89
17.82
16.15
15.31
15.51
16.66
18.43
20.32
21.83
22.59
22.47
21.56
20.06
18.16
15.98
13.53
10.75
7.66
4.32
0.91
-2.39
-5.44
-8.23
-10.81
-13.27
-15.64
-17.90
-20.07
-22.30
-24.90
-28.23
-32.41
-37.11
-41.46
-44.23
-44.24
-40.81
-34.10
-25.02
-14.94
-5.24
3.07
9.52
14.04
16.85
18.17
18.19
17.09
15.07
12.47
9.75
7.43
5.94
5.54
6.17
7.50
9.03
10.20
10.65
10.28
9.21
7.72
6.04
4.27
2.37
0.23
-2.25
-4.99
-7.79
-10.43
-12.74
-14.66
-16.33
-17.90
-19.52
-21.28
-23.26
-25.63
-28.58
-32.29
-36.61
-40.93
-44.19
-45.15
-42.85
-37.00
-28.20
-17.73
-7.09
2.44
10.19
16.05
20.25
23.14
24.88
25.54
25.17
23.99
22.38
20.86
19.88
19.73
20.39
21.61
23.00
24.13
24.69
24.54
23.70
22.29
20.46
18.29
15.80
12.98
9.84
6.46
2.99
-0.38
-3.47
-6.20
-8.59
-10.76
-12.90
-15.20
-17.79
-20.74
-24.09
-27.86
-32.04
-36.45
-40.61
-43.72
-44.77
-42.91
-37.77
-29.69
-19.69
-9.11
0.74
9.01
15.33
19.74
22.52
23.93
24.22
23.65
22.56
21.34
20.35
19.85
19.88
20.32
20.96
21.61
22.17
22.59
22.85
22.83
22.38
21.35
19.67
17.41
14.73
11.88
9.04
6.29
3.62
0.93
-1.90
-4.90
-8.00
-11.00
-13.72
-16.04
-18.04
-19.97
-22.26
-25.33
-29.43
-34.46
-39.81
-44.46
-47.16
-46.83
-42.93
-35.66
-25.96
-15.19
-4.72
4.37
11.51
16.57
19.74
21.31
21.64
21.08
20.01
18.89
18.10
17.95
18.53
19.70
21.19
22.65
23.86
24.72
25.29
25.58
25.55
25.01
23.72
21.57
18.66
15.31
11.94
8.91
6.27
3.84
1.31
-1.59
-4.88
-8.30
-11.48
-14.10
-16.10
-17.70
-19.32
-21.39
-24.27
-28.10
-32.78
-37.89
-42.68
-46.15
-47.22
-45.08
-39.55
-31.12
-20.89
-10.22
-0.36
7.86
14.07
18.26
20.61
21.42
21.01
19.81
18.29
16.98
16.29
16.44
17.44
19.04
20.91
22.71
24.20
25.28
25.92
26.08
25.69
24.63
22.82
20.34
17.46
14.51
11.80
9.44
7.31
5.15
2.72
-0.05
-3.02
-5.97
-8.64
-10.95
-12.96
-14.89
-17.02
-19.63
-22.92
-26.98
-31.64
-36.35
-40.24
-42.23
-41.38
-37.30
-30.27
-21.28
-11.66
-2.70
4.71
10.20
13.85
15.96
16.78
16.50
15.27
13.32
11.07
9.05
7.80
7.65
8.56
10.17
11.90
13.21
13.80
13.72
13.22
12.61
12.03
11.38
10.35
8.62
6.03
2.69
-1.02
-4.61
-7.65
-9.90
-11.44
-12.54
-13.62
-15.12
-17.31
-20.33
-24.08
-28.18
-31.94
-34.55
-35.14
-33.17
-28.50
-21.58
-13.27
-4.60
3.45
10.22
15.35
18.72
20.38
20.48
19.27
17.15
14.63
12.26
10.53
9.72
9.84
10.70
11.91
13.06
13.83
14.09
13.85
13.23
12.30
11.03
9.26
6.79
3.55
-0.29
-4.33
-8.09
-11.24
-13.70
-15.68
-17.53
-19.62
-22.19
-25.36
-29.14
-33.41
-37.76
-41.44
-43.49
-42.94
-39.24
-32.51
-23.59
-13.78
-4.36
3.72
10.04
14.65
17.75
19.56
20.18
19.70
18.30
16.41
14.60
13.48
13.38
14.31
15.86
17.41
18.43
18.63
18.10
17.12
15.97
14.81
13.56
11.97
9.80
6.97
3.55
-0.17
-3.82
-7.08
-9.79
-12.00
-13.99
-16.09
-18.67
-21.92
-25.88
-30.28
-34.62
-38.15
-40.02
-39.46
-36.07
-29.97
-21.87
-12.85
-4.06
3.65
9.84
14.49
17.79
19.98
21.19
21.50
21.06
20.13
19.10
18.38
18.30
18.94
20.10
21.41
22.46
22.96
22.79
22.04
20.88
19.43
17.76
15.82
13.56
10.97
8.14
5.17
2.21
-0.62
-3.24
-5.67
-7.93
-10.10
-12.24
-14.44
-16.82
-19.54
-22.77
-26.61
-30.88
-35.04
-38.24
-39.50
-38.04
-33.63
-26.67
-18.05
-8.93
-0.36
6.91
12.54
16.48
18.91
20.11
20.39
20.10
19.53
18.97
18.66
18.74
19.28
20.21
21.32
22.31
22.87
22.82
22.12
20.93
19.44
17.82
16.12
14.29
12.22
9.86
7.21
4.37
1.48
-1.30
-3.85
-6.07
-7.95
-9.54
-10.99
-12.53
-14.42
-16.89
-20.12
-24.11
-28.61
-33.03
-36.49
-37.98
-36.72
-32.44
-25.54
-16.96
-7.89
0.62
7.91
13.71
18.00
20.83
22.28
22.47
21.68
20.36
19.04
18.17
17.99
18.46
19.35
20.35
21.20
21.79
22.04
21.90
21.27
20.08
18.28
15.95
13.28
10.52
7.89
5.49
3.32
1.30
-0.70
-2.79
-5.05
-7.51
-10.10
-12.70
-15.13
-17.27
-19.16
-21.04
-23.34
-26.52
-30.74
-35.72
-40.55
-43.99
-44.84
-42.37
-36.64
-28.48
-19.14
-9.91
-1.70
5.07
10.36
14.31
17.05
18.69
19.37
19.36
19.04
18.80
18.91
19.43
20.24
21.10
21.77
22.13
22.16
21.95
21.65
21.33
21.00
20.53
19.74
18.45
16.60
14.29
11.78
9.38
7.36
5.80
4.59
3.41
1.95
0.00
-2.45
-5.19
-7.90
-10.30
-12.33
-14.14
-16.09
-18.61
-22.01
-26.41
-31.67
-37.30
-42.57
-46.53
-48.21
-46.95
-42.55
-35.42
-26.47
-16.86
-7.67
0.30
6.67
11.44
14.79
16.99
18.32
19.06
19.50
19.96
20.73
21.98
23.69
25.66
27.58
29.12
30.07
30.43
30.33
29.98
29.53
28.99
28.26
27.18
25.59
23.49
20.98
18.28
15.64
13.19
10.92
8.63
6.03
2.90
-0.79
-4.87
-9.00
-12.83
-16.19
-19.14
-21.97
-25.11
-28.91
-33.52
-38.74
-43.95
-48.23
-50.50
-49.95
-46.22
-39.65
-31.14
-21.89
-13.01
-5.26
1.06
5.93
9.45
11.65
12.53
12.16
10.86
9.13
7.57
6.70
6.73
7.62
9.08
10.77
12.39
13.72
14.64
15.06
14.93
14.26
13.15
11.76
10.22
8.54
6.67
4.50
2.01
-0.67
-3.30
-5.63
-7.50
-8.94
-10.21
-11.61
-13.43
-15.86
-18.93
-22.58
-26.56
-30.48
-33.69
-35.44
-35.02
-32.01
-26.48
-19.03
-10.59
-2.25
5.13
10.96
15.05
17.47
18.44
18.29
17.37
16.02
14.57
13.32
12.51
12.29
12.69
13.63
14.89
16.20
17.27
17.88
17.91
17.35
16.30
14.87
13.17
11.22
9.04
6.64
4.02
1.28
-1.50
-4.22
-6.85
-9.39
-11.81
-14.12
-16.28
-18.32
-20.35
-22.63
-25.46
-29.09
-33.46
-38.12
-42.16
-44.45
-44.01
-40.29
-33.49
-24.47
-14.48
-4.81
3.57
10.20
15.02
18.23
20.11
20.87
20.71
19.82
18.52
17.18
16.22
15.94
16.45
17.61
19.11
20.55
21.61
22.14
22.17
21.80
21.14
20.18
18.83
17.03
14.77
12.15
9.35
6.50
3.68
0.91
-1.81
-4.45
-6.91
-9.09
-10.95
-12.57
-14.17
-16.08
-18.61
-22.01
-26.25
-30.91
-35.19
-38.01
-38.35
-35.59
-29.80
-21.68
-12.42
-3.26
4.83
11.29
16.02
19.18
20.99
21.70
21.47
20.50
19.08
17.57
16.37
15.78
15.96
16.81
18.05
19.38
20.55
21.39
21.83
21.80
21.25
20.16
18.52
16.44
14.08
11.59
9.03
6.43
3.77
1.07
-1.60
-4.16
-6.55
-8.78
-10.91
-13.00
-15.12
-17.36
-19.84
-22.69
-25.92
-29.27
-32.14
-33.68
-33.03
-29.69
-23.72
-15.78
-6.90
1.82
9.50
15.66
20.14
23.02
24.46
24.61
23.67
21.92
19.75
17.66
16.10
15.32
15.39
16.08
17.05
17.94
18.49
18.59
18.23
17.44
16.22
14.50
12.22
9.36
5.98
2.26
-1.55
-5.19
-8.41
-11.08
-13.23
-15.00
-16.66
-18.49
-20.74
-23.58
-26.97
-30.65
-34.07
-36.52
-37.28
-35.77
-31.79
-25.56
-17.71
-9.10
-0.66
6.84
12.87
17.17
19.67
20.48
19.80
17.98
15.47
12.83
10.64
9.34
9.10
9.82
11.09
12.46
13.53
14.14
14.34
14.27
14.05
13.62
12.77
11.23
8.78
5.42
1.40
-2.84
-6.82
-10.13
-12.63
-14.42
-15.80
-17.21
-19.07
-21.70
-25.19
-29.29
-33.40
-36.59
-37.85
-36.45
-32.18
-25.48
-17.33
-8.89
-1.19
5.17
10.02
13.43
15.56
16.51
16.30
15.06
13.10
10.93
9.14
8.19
8.28
9.29
10.85
12.50
13.87
14.77
15.16
15.11
14.68
13.86
12.58
10.72
8.22
5.14
1.65
-1.94
-5.35
-8.37
-10.95
-13.23
-15.41
-17.77
-20.53
-23.84
-27.67
-31.79
-35.65
-38.43
-39.26
-37.47
-32.92
-26.04
-17.75
-9.14
-1.11
5.80
11.40
15.73
18.83
20.69
21.33
20.87
19.64
18.14
16.89
16.31
16.56
17.56
19.04
20.64
22.00
22.93
23.37
23.40
23.11
22.57
21.72
20.41
18.54
16.13
13.40
10.73
8.51
7.01
6.23
5.93
5.73
5.26
4.24
2.58
0.35
-2.17
-4.51
-6.04
-6.06
-4.05
0.18
6.45
14.28
23.09
32.30
41.43
49.90
56.80
60.84
60.60
55.21
45.08
32.12
19.36
9.93
5.80
7.11
12.08
17.82
21.36
20.65
14.96
4.87
-7.99
-21.26
-32.30
-38.72
-39.21
-34.15
-25.74
-17.38
-12.32
-12.46
-17.75
-26.35
-35.76
-43.96
-50.22
-55.01
-59.31
-63.79
-68.30
-71.94
-73.72
-73.10
-70.38
-66.37
-61.97
-57.63
-53.35
-49.01
-44.84
-41.63
-40.38
-41.59
-44.75
-48.25
-49.96
-48.01
-41.50
-30.69
-16.75
-1.34
13.83
27.16
37.28
43.23
44.65
42.02
36.57
29.96
23.67
18.43
14.09
9.79
4.54
-2.25
-10.45
-19.25
-27.57
-34.50
-39.67
-43.23
-45.70
-47.63
-49.31
-50.69
-51.38
-50.78
-48.31
-43.50
-36.20
-26.67
-15.57
-3.87
7.38
17.31
25.43
31.55
35.79
38.38
39.55
39.62
39.05
38.43
38.35
39.13
40.65
42.39
43.68
44.14
43.88
43.36
43.11
43.28
43.48
42.99
41.19
37.89
33.54
28.97
24.93
21.75
19.10
16.10
11.69
4.95
-4.54
-16.60
-30.46
-44.98
-58.74
-70.32
-78.41
-81.99
-80.50
-73.99
-63.22
-49.61
-34.87
-20.61
-7.89
2.89
11.91
19.56
26.11
31.63
35.97
39.04
40.83
41.47
41.08
39.75
37.62
35.03
32.58
31.04
31.01
32.70
35.73
39.27
42.43
44.51
45.25
44.79
43.58
42.31
41.74
42.68
45.74
51.09
58.20
65.91
72.66
77.05
78.28
76.40
72.20
66.92
61.83
57.91
55.58
54.70
54.53
53.95
51.76
47.12
39.81
30.33
19.69
9.06
-0.65
-8.88
-15.48
-20.46
-23.96
-26.18
-27.49
-28.33
-29.15
-30.22
-31.47
-32.55
-33.05
-32.75
-31.82
-30.78
-30.32
-30.91
-32.64
-35.19
-37.98
-40.52
-42.54
-44.02
-45.17
-46.23
-47.39
-48.77
-50.47
-52.50
-54.86
-57.51
-60.34
-63.21
-65.99
-68.49
-70.40
-71.21
-70.24
-66.83
-60.60
-51.54
-40.16
-27.20
-13.44
0.49
14.15
27.20
39.33
50.20
59.61
67.58
74.41
80.68
87.07
94.18
102.36
111.52
120.98
129.42
135.10
136.37
132.23
122.81
109.32
93.52
76.96
60.26
43.02
24.31
3.43
-19.40
-42.93
-65.26
-84.56
-99.64
-110.25
-116.83
-120.22
-121.33
-121.05
-120.28
-119.86
-120.40
-121.91
-123.54
-123.66
-120.34
-112.12
-98.64
-80.91
-60.96
-41.19
-23.60
-9.41
0.96
7.63
11.01
11.70
10.48
8.35
6.39
5.49
6.08
8.02
10.77
13.69
16.28
18.35
19.86
20.80
21.11
20.71
19.56
17.68
15.13
11.95
8.09
3.57
-1.48
-6.72
-11.77
-16.42
-20.85
-25.64
-31.42
-38.44
-46.17
-53.34
-58.26
-59.54
-56.66
-50.09
-41.12
-31.23
-21.64
-13.00
-5.51
0.84
6.01
9.74
11.80
12.07
10.82
8.59
6.10
3.92
2.35
1.36
0.68
0.03
-0.73
-1.53
-2.15
-2.45
-2.41
-2.27
-2.39
-3.11
-4.57
-6.64
-8.99
-11.15
-12.69
-13.35
-13.00
-11.70
-9.72
-7.48
-5.61
-4.77
-5.49
-7.82
-11.19
-14.54
-16.54
-16.18
-13.05
-7.52
-0.49
6.93
13.82
19.63
24.13
27.25
28.99
29.35
28.44
26.54
24.17
22.03
20.76
20.83
22.34
25.06
28.51
32.19
35.67
38.72
41.24
43.22
44.60
45.34
45.44
44.99
44.19
43.25
42.27
41.19
39.75
37.63
34.51
30.19
24.59
17.82
10.22
2.43
-4.55
-9.53
-11.43
-9.67
-4.35
3.70
13.18
22.72
31.22
37.96
42.63
45.19
45.73
44.44
41.61
37.67
33.16
28.74
25.05
22.56
21.43
21.40
21.98
22.65
23.21
23.79
24.67
25.92
27.04
27.05
24.83
19.75
12.09
2.99
-5.99
-13.55
-19.11
-22.92
-25.74
-28.42
-31.53
-35.19
-39.11
-42.64
-44.99
-45.36
-43.15
-38.16
-30.66
-21.38
-11.32
-1.50
7.24
14.33
19.57
23.02
24.94
25.68
25.60
24.98
23.99
22.71
21.17
19.45
17.67
16.01
14.61
13.53
12.70
11.90
10.90
9.50
7.61
5.26
2.60
-0.23
-3.09
-5.96
-8.89
-11.98
-15.41
-19.35
-23.95
-29.16
-34.59
-39.50
-42.89
-43.74
-41.41
-35.88
-27.77
-18.20
-8.39
0.65
8.32
14.42
19.03
22.33
24.45
25.54
25.68
25.05
23.85
22.37
20.88
19.65
18.82
18.40
18.22
17.95
17.23
15.71
13.20
9.70
5.42
0.64
-4.31
-9.14
-13.63
-17.63
-21.11
-24.19
-27.16
-30.35
-33.96
-37.75
-41.00
-42.66
-41.63
-37.30
-29.78
-19.97
-9.24
0.97
9.62
16.19
20.73
23.55
25.04
25.45
24.91
23.50
21.38
18.84
16.28
14.03
12.26
10.89
9.64
8.22
6.40
4.12
1.43
-1.61
-4.93
-8.51
-12.28
-16.04
-19.50
-22.41
-24.65
-26.41
-28.08
-30.12
-32.74
-35.63
-38.02
-38.82
-37.06
-32.34
-25.00
-16.02
-6.70
1.82
8.79
14.00
17.61
19.89
21.10
21.42
21.04
20.22
19.24
18.32
17.55
16.88
16.29
15.81
15.63
15.90
16.64
17.55
18.12
17.89
16.70
14.79
12.66
10.74
9.08
7.28
4.60
0.41
-5.49
-12.63
-19.96
-26.15
-29.99
-30.78
-28.46
-23.59
-17.09
-9.96
-2.99
3.24
8.47
12.60
15.63
17.65
18.70
18.80
17.85
15.77
12.54
8.42
3.96
-0.07
-2.95
-4.29
-4.19
-3.18
-1.91
-0.95
-0.50
-0.52
-0.85
-1.42
-2.34
-3.84
-6.10
-9.15
-12.71
-16.31
-19.29
-20.98
-20.81
-18.46
-13.94
-7.62
-0.17
7.60
14.89
21.06
25.62
28.30
28.91
27.45
24.15
19.54
14.43
9.74
6.27
4.41
4.09
4.76
5.69
6.18
5.77
4.36
2.07
-0.83
-4.08
-7.49
-10.94
-14.38
-17.83
-21.41
-25.27
-29.52
-33.99
-38.19
-41.35
-42.55
-41.13
-36.90
-30.32
-22.27
-13.86
-6.09
0.37
5.17
8.26
9.73
9.77
8.66
6.79
4.61
2.62
1.27
0.81
1.27
2.42
3.87
5.22
6.17
6.62
6.61
6.26
5.68
4.90
3.86
2.49
0.70
-1.65
-4.66
-8.39
-12.60
-16.74
-19.98
-21.36
-20.21
-16.43
-10.57
-3.67
3.06
8.65
12.64
14.99
15.98
15.92
15.01
13.38
11.18
8.64
6.16
4.14
2.88
2.52
2.98
4.02
5.36
6.69
7.70
8.15
7.87
6.84
5.21
3.26
1.26
-0.56
-2.15
-3.56
-4.93
-6.45
-8.30
-10.54
-13.05
-15.40
-16.92
-16.86
-14.61
-9.99
-3.34
4.50
12.45
19.50
24.96
28.54
30.33
30.66
29.94
28.57
26.86
25.07
23.40
22.00
20.92
20.09
19.36
18.58
17.67
16.66
15.65
14.73
13.82
12.70
11.01
8.48
5.03
0.84
-3.71
-8.21
-12.34
-16.02
-19.41
-22.86
-26.78
-31.37
-36.53
-41.75
-46.17
-48.81
-48.88
-46.07
-40.69
-33.62
-26.06
-19.10
-13.49
-9.42
-6.65
-4.71
-3.09
-1.45
0.43
2.60
4.98
7.37
9.49
11.03
11.76
11.66
10.93
9.97
9.14
8.57
8.09
7.28
5.66
2.97
-0.61
-4.56
-8.19
-10.89
-12.44
-13.07
-13.40
-14.11
-15.77
-18.63
-22.56
-27.10
-31.47
-34.75
-35.98
-34.46
-29.97
-22.88
-14.16
-5.05
3.29
10.11
15.19
18.79
21.40
23.42
25.10
26.47
27.46
28.05
28.36
28.54
28.75
29.01
29.13
28.82
27.84
26.12
23.79
21.20
18.67
16.43
14.49
12.69
10.85
8.83
6.68
4.52
2.52
0.73
-0.94
-2.68
-4.68
-7.05
-9.79
-12.86
-16.26
-19.97
-23.93
-27.82
-30.99
-32.61
-31.93
-28.63
-23.02
-15.96
-8.53
-1.64
4.24
9.04
12.94
16.04
18.29
19.52
19.63
18.79
17.43
16.12
15.31
15.25
15.85
16.80
17.72
18.31
18.40
17.94
17.00
15.65
13.96
11.99
9.77
7.39
4.99
2.68
0.56
-1.35
-3.12
-4.86
-6.68
-8.65
-10.72
-12.84
-14.91
-16.90
-18.91
-21.18
-24.01
-27.56
-31.69
-35.78
-38.85
-39.82
-37.89
-32.92
-25.53
-16.90
-8.33
-0.84
5.09
9.50
12.70
15.00
16.54
17.32
17.33
16.68
15.67
14.70
14.13
14.17
14.80
15.83
16.98
17.98
18.63
18.82
18.50
17.66
16.35
14.65
12.66
10.54
8.47
6.60
4.96
3.45
1.81
-0.26
-2.97
-6.33
-10.15
-14.06
-17.72
-20.96
-23.86
-26.79
-30.18
-34.43
-39.59
-45.25
-50.50
-54.15
-55.07
-52.61
-46.88
-38.72
-29.44
-20.36
-12.39
-5.91
-0.83
3.09
6.05
8.07
9.15
9.38
9.09
8.78
8.91
9.77
11.29
13.16
14.91
16.11
16.49
15.99
14.73
12.95
10.94
8.90
6.94
5.01
2.95
0.60
-2.09
-4.99
-7.81
-10.21
-11.96
-13.07
-13.77
-14.44
-15.48
-17.20
-19.73
-22.99
-26.61
-29.94
-32.16
-32.42
-30.17
-25.30
-18.18
-9.64
-0.64
7.97
15.56
21.84
26.72
30.24
32.44
33.37
33.16
31.96
30.12
28.07
26.28
25.12
24.71
24.87
25.21
25.21
24.44
22.72
20.12
16.93
13.48
10.05
6.76
3.63
0.58
-2.43
-5.43
-8.36
-11.14
-13.63
-15.77
-17.50
-18.84
-19.98
-21.20
-22.92
-25.60
-29.62
-35.08
-41.62
-48.39
-54.11
-57.44
-57.38
-53.65
-46.78
-37.94
-28.54
-19.69
-12.01
-5.52
0.05
4.98
9.29
12.79
15.23
16.53
16.86
16.63
16.33
16.34
16.83
17.73
18.88
20.05
21.05
21.76
22.13
22.14
21.76
20.95
19.63
17.70
15.08
11.82
8.08
4.16
0.38
-3.05
-6.00
-8.50
-10.67
-12.73
-14.93
-17.60
-21.00
-25.16
-29.70
-33.76
-36.15
-35.72
-31.79
-24.41
-14.43
-3.17
7.95
17.79
25.70
31.51
35.34
37.42
38.04
37.45
35.96
33.94
31.82
30.00
28.81
28.38
28.62
29.16
29.50
29.18
27.91
25.70
22.84
19.80
16.95
14.46
12.23
9.98
7.43
4.46
1.15
-2.24
-5.42
-8.15
-10.37
-12.16
-13.72
-15.32
-17.23
-19.68
-22.83
-26.69
-31.01
-35.24
-38.47
-39.68
-37.95
-32.80
-24.50
-13.94
-2.49
8.42
17.71
24.82
29.69
32.61
33.97
34.11
33.37
32.02
30.43
29.00
28.09
27.92
28.48
29.49
30.50
31.02
30.72
29.54
27.63
25.31
22.88
20.48
18.07
15.46
12.42
8.76
4.51
-0.15
-4.91
-9.45
-13.55
-17.17
-20.38
-23.37
-26.30
-29.36
-32.73
-36.56
-40.84
-45.23
-48.99
-51.02
-50.25
-46.02
-38.41
-28.36
-17.31
-6.75
2.25
9.23
14.25
17.61
19.60
20.39
20.18
19.27
18.19
17.60
17.99
19.50
21.79
24.21
26.03
26.76
26.35
25.09
23.48
21.93
20.58
19.28
17.72
15.59
12.73
9.28
5.58
2.06
-0.93
-3.32
-5.27
-7.24
-9.76
-13.25
-17.90
-23.55
-29.65
-35.39
-39.78
-41.88
-41.01
-37.04
-30.43
-22.19
-13.60
-5.88
0.13
4.13
6.28
6.98
6.66
5.65
4.22
2.66
1.32
0.62
0.85
2.10
4.11
6.38
8.32
9.42
9.50
8.70
7.37
5.88
4.41
2.81
0.72
-2.22
-6.09
-10.62
-15.25
-19.34
-22.49
-24.65
-26.09
-27.24
-28.51
-30.18
-32.41
-35.25
-38.59
-42.05
-44.92
-46.24
-45.02
-40.60
-32.97
-22.79
-11.30
0.08
10.13
18.13
23.91
27.70
29.95
31.05
31.30
30.89
30.07
29.20
28.72
28.97
30.05
31.70
33.36
34.43
34.50
33.51
31.73
29.56
27.32
25.08
22.71
19.98
16.68
12.82
8.60
4.38
0.56
-2.59
-4.99
-6.81
-8.37
-10.06
-12.22
-15.11
-18.82
-23.26
-28.06
-32.52
-35.63
-36.37
-33.98
-28.30
-19.92
-10.05
-0.11
8.67
15.52
20.25
22.99
24.10
23.89
22.64
20.67
18.40
16.36
15.07
14.92
15.99
18.02
20.45
22.67
24.18
24.75
24.42
23.38
21.82
19.87
17.60
15.10
12.51
10.02
7.80
5.92
4.37
3.04
1.85
0.71
-0.44
-1.73
-3.32
-5.46
-8.32
-12.01
-16.55
-21.70
-27.01
-31.71
-34.83
-35.39
-32.75
-26.85
-18.34
-8.42
1.51
10.28
17.18
22.02
24.92
26.16
26.00
24.69
22.64
20.41
18.70
18.10
18.89
20.84
23.32
25.49
26.66
26.49
25.07
22.83
20.29
17.82
15.49
13.18
10.60
7.61
4.26
0.84
-2.28
-4.85
-6.87
-8.58
-10.34
-12.50
-15.26
-18.66
-22.62
-26.85
-30.84
-33.81
-34.85
-33.20
-28.55
-21.28
-12.43
-3.41
4.49
10.39
13.98
15.40
15.01
13.13
10.04
6.04
1.54
-2.91
-6.71
-9.45
-11.02
-11.70
-11.93
-12.13
-12.51
-12.99
-13.33
-13.28
-12.82
-12.12
-11.53
-11.42
-12.07
-13.52
-15.57
-17.87
-19.96
-21.50
-22.39
-22.83
-23.23
-24.08
-25.76
-28.32
-31.47
-34.49
-36.47
-36.46
-33.78
-28.24
-20.18
-10.51
-0.38
9.05
16.85
22.49
25.81
26.96
26.27
24.19
21.26
18.09
15.31
13.49
12.99
13.84
15.70
17.95
19.91
21.08
21.26
20.54
19.22
17.54
15.62
13.42
10.82
7.78
4.45
1.11
-1.90
-4.35
-6.20
-7.66
-9.06
-10.80
-13.15
-16.27
-20.12
-24.42
-28.66
-32.07
-33.74
-32.90
-29.14
-22.69
-14.38
-5.41
3.00
9.95
15.02
18.17
19.55
19.34
17.72
14.98
11.61
8.29
5.77
4.55
4.78
6.16
8.09
9.87
10.98
11.20
10.61
9.50
8.18
6.80
5.36
3.70
1.65
-0.82
-3.55
-6.24
-8.53
-10.20
-11.24
-11.90
-12.54
-13.54
-15.14
-17.46
-20.51
-24.13
-28.04
-31.72
-34.47
-35.49
-34.19
-30.40
-24.52
-17.40
-10.05
-3.35
2.15
6.23
8.85
10.03
9.81
8.29
5.83
2.99
0.51
-0.99
-1.15
0.02
2.12
4.58
6.85
8.54
9.53
9.88
9.77
9.34
8.59
7.46
5.82
3.66
1.12
-1.52
-3.92
-5.78
-6.95
-7.50
-7.68
-7.88
-8.53
-10.00
-12.41
-15.63
-19.15
-22.13
-23.59
-22.69
-18.99
-12.61
-4.24
5.04
14.07
21.81
27.53
30.77
31.32
29.27
25.00
19.25
13.10
7.72
4.06
2.63
3.30
5.46
8.27
11.00
13.16
14.59
15.35
15.54
15.15
14.10
12.30
9.71
6.47
2.86
-0.80
-4.19
-7.14
-9.56
-11.45
-12.92
-14.17
-15.54
-17.42
-20.03
-23.21
-26.31
-28.29
-28.09
-25.07
-19.25
-11.38
-2.62
5.81
12.98
18.33
21.62
22.83
22.03
19.49
15.75
11.63
8.04
5.77
5.21
6.26
8.36
10.75
12.76
14.04
14.54
14.48
14.12
13.55
12.69
11.29
9.16
6.30
2.93
-0.55
-3.71
-6.31
-8.34
-10.03
-11.77
-13.88
-16.64
-20.09
-24.02
-27.97
-31.14
-32.67
-31.79
-28.15
-22.01
-14.18
-5.84
1.89
8.17
12.61
15.17
15.94
15.10
12.84
9.52
5.70
2.11
-0.53
-1.72
-1.36
0.22
2.44
4.64
6.37
7.45
8.01
8.25
8.28
7.99
7.03
5.07
2.03
-1.80
-5.80
-9.26
-11.71
-13.10
-13.77
-14.30
-15.26
-17.04
-19.73
-23.12
-26.73
-29.81
-31.44
-30.78
-27.29
-21.04
-12.71
-3.44
5.51
13.14
18.89
22.67
24.64
25.01
23.94
21.57
18.15
14.14
10.18
6.94
4.93
4.29
4.83
6.12
7.69
9.13
10.16
10.55
10.12
8.72
6.32
3.07
-0.67
-4.45
-7.84
-10.59
-12.67
-14.27
-15.75
-17.54
-20.06
-23.55
-27.99
-32.87
-37.25
-39.93
-39.82
-36.31
-29.52
-20.35
-10.18
-0.44
7.72
13.70
17.39
19.03
19.04
17.85
15.96
13.85
12.03
10.91
10.72
11.41
12.74
14.38
16.05
17.55
18.78
19.59
19.77
19.06
17.25
14.36
10.64
6.55
2.57
-0.95
-3.90
-6.43
-8.89
-11.77
-15.50
-20.37
-26.27
-32.58
-38.20
-41.69
-41.79
-37.83
-30.06
-19.57
-8.01
2.96
12.11
18.86
23.18
25.36
25.74
24.68
22.56
19.88
17.30
15.46
14.84
15.51
17.16
19.19
20.96
22.04
22.31
21.93
21.18
20.19
18.93
17.13
14.55
11.10
6.97
2.62
-1.46
-4.91
-7.68
-10.01
-12.29
-14.90
-18.13
-22.04
-26.46
-30.93
-34.68
-36.68
-35.96
-31.91
-24.61
-14.94
-4.36
5.62
13.86
19.89
23.84
26.15
27.22
27.25
26.31
24.58
22.48
20.67
19.88
20.58
22.77
25.97
29.33
32.00
33.26
32.78
30.55
26.90
22.34
17.49
12.90
8.98
5.83
3.36
1.28
-0.68
-2.72
-4.87
-7.09
-9.30
-11.49
-13.69
-16.01
-18.62
-21.72
-25.51
-29.97
-34.73
-38.92
-41.32
-40.71
-36.37
-28.44
-17.93
-6.46
4.36
13.32
19.89
24.10
26.24
26.60
25.39
22.85
19.37
15.56
12.15
9.76
8.72
8.97
10.18
11.84
13.47
14.70
15.38
15.46
15.05
14.22
13.05
11.51
9.54
7.11
4.30
1.34
-1.48
-3.84
-5.58
-6.71
-7.40
-7.94
-8.62
-9.75
-11.62
-14.37
-17.90
-21.72
-24.94
-26.41
-25.10
-20.48
-12.78
-2.99
7.43
16.97
24.50
29.52
32.10
32.66
31.81
30.10
27.98
25.77
23.66
21.67
19.71
17.61
15.34
12.98
10.76
8.98
7.80
7.19
6.94
6.76
6.33
5.47
4.02
1.92
-0.84
-4.24
-8.11
-12.18
-16.09
-19.47
-22.09
-23.98
-25.40
-26.82
-28.77
-31.68
-35.74
-40.76
-46.08
-50.62
-53.06
-52.22
-47.44
-38.85
-27.43
-14.74
-2.35
8.51
17.26
23.92
28.80
32.30
34.67
36.08
36.70
36.80
36.69
36.70
37.03
37.72
38.63
39.52
40.22
40.62
40.76
40.73
40.61
40.38
39.87
38.83
36.99
34.24
30.62
26.35
21.79
17.29
13.18
9.69
6.94
4.95
3.54
2.41
1.12
-0.77
-3.60
-7.50
-12.28
-17.51
-22.51
-26.45
-28.55
-28.16
-24.98
-19.15
-11.26
-2.27
6.77
14.95
21.63
26.50
29.50
30.71
30.27
28.37
25.27
21.28
16.70
11.82
6.90
2.16
-2.17
-5.87
-8.74
-10.72
-11.91
-12.55
-12.98
-13.47
-14.14
-14.93
-15.69
-16.31
-16.83
-17.44
-18.41
-19.93
-22.00
-24.35
-26.61
-28.41
-29.57
-30.24
-30.75
-31.56
-33.02
-35.27
-38.12
-41.10
-43.46
-44.29
-42.80
-38.51
-31.50
-22.47
-12.53
-2.93
5.36
11.81
16.36
19.23
20.66
20.86
20.00
18.35
16.34
14.47
13.19
12.73
13.02
13.80
14.78
15.77
16.72
17.66
18.58
19.45
20.19
20.69
20.82
20.35
18.92
16.14
11.76
5.84
-1.09
-8.15
-14.41
-19.20
-22.35
-24.19
-25.37
-26.57
-28.31
-30.82
-33.95
-37.21
-39.74
-40.53
-38.63
-33.57
-25.56
-15.56
-4.99
4.65
12.23
17.22
19.66
20.03
18.96
17.03
14.75
12.45
10.41
8.83
7.87
7.59
7.95
8.74
9.58
10.05
9.83
8.88
7.37
5.66
4.03
2.61
1.30
-0.19
-2.13
-4.73
-8.01
-11.86
-16.01
-20.17
-24.01
-27.31
-29.96
-32.04
-33.75
-35.47
-37.57
-40.34
-43.85
-47.74
-51.18
-53.03
-52.12
-47.76
-40.02
-29.76
-18.41
-7.39
2.30
10.32
16.84
22.18
26.58
29.94
32.01
32.62
31.88
30.26
28.45
27.12
26.69
27.24
28.62
30.46
32.24
33.22
32.50
29.25
23.11
14.46
4.48
-5.20
-13.18
-18.85
-22.55
-25.17
-27.55
-30.01
-32.24
-33.68
-34.09
-33.81
-33.68
-34.67
-37.33
-41.53
-46.48
-50.96
-53.82
-54.20
-51.74
-46.52
-38.92
-29.55
-19.17
-8.64
1.15
9.42
15.70
19.91
22.37
23.60
24.13
24.31
24.29
24.15
23.96
23.84
23.86
23.88
23.55
22.48
20.40
17.40
13.95
10.67
8.09
6.33
5.13
4.00
2.47
0.39
-2.06
-4.51
-6.51
-7.80
-8.34
-8.37
-8.31
-8.70
-10.07
-12.91
-17.62
-24.32
-32.65
-41.63
-49.71
-55.10
-56.33
-52.83
-45.10
-34.64
-23.35
-12.91
-4.31
2.20
6.91
10.20
12.37
13.48
13.54
12.67
11.19
9.57
8.29
7.68
7.81
8.46
9.20
9.58
9.28
8.22
6.49
4.23
1.57
-1.45
-4.78
-8.35
-11.95
-15.36
-18.36
-20.79
-22.54
-23.54
-23.73
-23.10
-21.75
-19.93
-18.11
-16.90
-16.88
-18.50
-21.82
-26.39
-31.26
-35.18
-36.99
-35.98
-32.16
-26.20
-19.24
-12.40
-6.53
-2.06
1.00
2.84
3.73
3.87
3.48
2.79
2.11
1.87
2.53
4.41
7.61
11.87
16.65
21.27
25.16
28.03
29.85
30.75
30.89
30.36
29.18
27.37
25.11
22.66
20.32
18.27
16.47
14.64
12.39
9.35
5.28
0.11
-6.07
-13.09
-20.66
-28.31
-35.32
-40.75
-43.59
-43.10
-39.03
-31.85
-22.59
-12.54
-2.87
5.67
12.88
18.89
23.92
28.04
31.12
32.97
33.59
33.26
32.63
32.45
33.33
35.53
38.86
42.80
46.67
49.84
51.83
52.35
51.27
48.63
44.60
39.55
33.98
28.56
23.95
20.68
19.03
18.94
20.08
21.95
24.01
25.85
27.18
27.80
27.56
26.40
24.37
21.78
19.09
16.87
15.58
15.49
16.58
18.58
21.02
23.29
24.71
24.68
22.81
19.13
14.17
8.80
4.06
0.77
-0.65
-0.24
1.58
4.27
7.32
10.41
13.31
15.92
18.10
19.74
20.73
21.05
20.77
20.08
19.15
18.12
16.98
15.61
13.82
11.46
8.47
4.90
0.85
-3.57
-8.33
-13.39
-18.61
-23.67
-28.02
-31.00
-32.05
-30.86
-27.55
-22.65
-16.89
-11.12
-6.04
-2.18
0.21
1.11
0.75
-0.49
-2.10
-3.62
-4.69
-5.09
-4.76
-3.75
-2.20
-0.25
2.06
4.75
7.88
11.42
15.09
18.32
20.34
20.44
18.20
13.68
7.37
0.09
-7.30
-14.02
-19.57
-23.73
-26.59
-28.58
-30.28
-32.22
-34.56
-36.93
-38.55
-38.46
-35.94
-30.76
-23.26
-14.27
-4.85
3.89
11.06
16.15
19.06
20.14
19.96
19.11
18.04
16.91
15.75
14.56
13.54
12.98
13.20
14.34
16.28
18.67
21.14
23.42
25.35
26.87
27.88
28.21
27.68
26.14
23.61
20.29
16.48
12.46
8.40
4.28
-0.06
-4.79
-9.98
-15.39
-20.44
-24.27
-25.94
-24.79
-20.67
-14.11
-6.11
2.08
9.35
14.94
18.57
20.34
20.62
19.87
18.51
16.83
15.05
13.36
11.96
11.02
10.51
10.08
9.15
7.18
4.04
0.23
-3.28
-5.47
-5.83
-4.60
-2.67
-1.08
-0.54
-1.17
-2.66
-4.57
-6.62
-8.70
-10.79
-12.85
-14.80
-16.59
-18.24
-19.82
-21.36
-22.67
-23.34
-22.81
-20.59
-16.40
-10.33
-2.86
5.27
13.15
19.90
24.82
27.50
27.94
26.44
23.57
19.96
16.19
12.77
10.02
8.15
7.16
6.90
7.10
7.38
7.45
7.10
6.26
4.99
3.39
1.58
-0.30
-2.16
-3.95
-5.65
-7.33
-9.16
-11.26
-13.71
-16.28
-18.47
-19.57
-18.89
-16.07
-11.26
-5.17
1.13
6.55
10.23
11.84
11.47
9.57
6.64
3.13
-0.63
-4.46
-8.22
-11.78
-15.04
-17.86
-20.14
-21.78
-22.75
-23.09
-22.91
-22.38
-21.78
-21.38
-21.44
-22.18
-23.68
-25.89
-28.59
-31.47
-34.14
-36.23
-37.45
-37.74
-37.23
-36.25
-35.17
-34.15
-33.01
-31.20
-28.00
-22.83
-15.56
-6.66
2.95
12.16
20.06
26.16
30.39
32.98
34.29
34.66
34.33
33.47
32.17
30.51
28.61
26.64
24.87
23.62
23.14
23.60
24.97
27.02
29.36
31.54
33.07
33.51
32.55
30.16
26.61
22.37
17.94
13.51
8.84
3.22
-4.17
-13.90
-25.86
-39.14
-52.08
-62.77
-69.51
-71.28
-67.98
-60.39
-49.92
-38.20
-26.70
-16.51
-8.24
-2.13
1.81
3.73
3.87
2.61
0.43
-2.10
-4.42
-6.13
-7.00
-7.05
-6.50
-5.71
-5.05
-4.83
-5.26
-6.38
-8.12
-10.34
-12.89
-15.65
-18.53
-21.42
-24.26
-26.91
-29.26
-31.14
-32.31
-32.42
-31.03
-27.70
-22.19
-14.51
-5.08
5.34
15.89
25.75
34.30
41.16
46.15
49.16
50.12
49.05
46.06
41.43
35.60
29.10
22.41
15.89
9.69
3.85
-1.65
-6.75
-11.23
-14.82
-17.24
-18.33
-18.17
-17.00
-15.13
-12.77
-9.96
-6.68
-3.12
0.16
2.17
1.72
-2.11
-9.57
-19.97
-31.80
-43.05
-51.87
-56.87
-57.47
-53.83
-46.69
-37.18
-26.70
-16.72
-8.57
-2.97
0.28
2.33
4.90
9.40
16.25
24.56
32.61
38.68
41.90
42.53
41.60
40.06
38.19
35.51
31.23
25.03
17.46
9.85
3.81
0.54
0.38
2.80
6.61
10.49
13.33
14.49
13.91
11.96
9.32
6.69
4.61
3.25
2.32
1.22
-0.77
-4.09
-8.56
-13.40
-17.36
-19.14
-17.87
-13.31
-5.98
3.08
12.56
21.12
27.63
31.25
31.52
28.40
22.28
13.96
4.52
-4.82
-12.89
-18.78
-22.02
-22.64
-21.22
-18.77
-16.48
-15.31
-15.88
-18.29
-22.36
-27.70
-33.84
-40.08
-45.52
-49.08
-49.92
-47.79
-43.23
-37.26
-30.79
-23.97
-16.05
-5.96
6.83
21.58
36.29
48.46
56.20
58.96
57.59
53.63
48.37
42.38
35.52
27.59
18.92
10.67
4.50
1.86
3.34
8.35
15.32
22.35
27.84
30.87
31.20
29.02
24.56
17.96
9.37
-0.88
-11.99
-22.82
-32.08
-38.77
-42.29
-42.53
-39.66
-34.16
-26.76
-18.62
-11.13
-5.54
-2.38
-1.15
-0.46
1.25
4.87
10.04
15.28
18.68
18.78
15.23
8.77
0.78
-7.24
-14.16
-19.20
-21.88
-21.92
-19.17
-13.74
-6.13
2.72
11.45
18.46
22.18
21.58
16.49
7.81
-2.72
-13.03
-21.37
-26.81
-29.32
-29.55
-28.39
-26.67
-25.00
-23.77
-23.22
-23.41
-24.06
-24.40
-23.28
-19.51
-12.39
-2.16
9.89
21.75
31.38
37.32
39.18
37.47
33.34
27.98
22.26
16.62
11.16
5.88
0.83
-3.97
-8.57
-13.18
-18.11
-23.46
-28.80
-33.09
-34.80
-32.51
-25.52
-14.25
-0.21
14.54
27.99
38.83
46.46
50.89
52.35
51.17
47.65
42.25
35.53
28.16
20.75
13.75
7.46
2.08
-2.24
-5.43
-7.54
-8.81
-9.55
-10.06
-10.52
-10.98
-11.49
-12.13
-13.11
-14.64
-16.85
-19.77
-23.27
-27.16
-31.15
-34.85
-37.71
-39.04
-38.15
-34.60
-28.31
-19.65
-9.28
1.95
13.15
23.45
32.07
38.36
42.02
43.11
42.10
39.67
36.56
33.28
30.10
27.15
24.47
22.13
20.23
18.81
17.78
16.99
16.23
15.30
14.12
12.63
10.87
8.87
6.68
4.28
1.52
-1.91
-6.37
-12.09
-18.94
-26.23
-32.78
-37.27
-38.66
-36.59
-31.51
-24.42
-16.51
-8.74
-1.65
4.57
9.96
14.66
18.84
22.77
26.74
30.98
35.40
39.55
42.72
44.26
43.88
41.88
38.94
35.87
33.23
31.18
29.53
28.00
26.44
24.93
23.67
22.85
22.50
22.49
22.66
22.92
23.31
23.90
24.71
25.56
26.08
25.80
24.34
21.58
17.74
13.28
8.73
4.44
0.51
-3.21
-6.94
-10.81
-14.81
-18.86
-22.85
-26.82
-30.87
-35.11
-39.50
-43.80
-47.55
-50.21
-51.27
-50.44
-47.75
-43.49
-38.17
-32.33
-26.43
-20.84
-15.90
-11.92
-9.16
-7.66
-7.15
-7.02
-6.54
-5.18
-2.87
-0.04
2.65
4.69
5.95
6.65
7.16
7.68
8.21
8.64
8.97
9.45
10.49
12.45
15.38
19.02
22.93
26.73
30.17
33.24
35.92
38.12
39.69
40.55
40.82
40.82
41.05
41.87
43.36
45.25
46.98
47.89
47.39
45.10
40.94
35.08
27.98
20.19
12.33
4.91
-1.71
-7.45
-12.47
-17.09
-21.69
-26.52
-31.59
-36.67
-41.35
-45.20
-47.93
-49.46
-49.93
-49.59
-48.70
-47.48
-46.07
-44.59
-43.07
-41.54
-39.97
-38.35
-36.69
-35.07
-33.62
-32.45
-31.59
-31.01
-30.57
-30.10
-29.46
-28.55
-27.40
-26.20
-25.18
-24.60
-24.50
-24.63
-24.48
-23.41
-20.92
-16.87
-11.54
-5.53
0.41
5.61
9.57
12.02
12.91
12.37
10.68
8.22
5.42
2.67
0.23
-1.80
-3.42
-4.71
-5.76
-6.65
-7.43
-8.13
-8.75
-9.28
-9.71
-10.01
-10.21
-10.36
-10.55
-10.90
-11.51
-12.48
-13.85
-15.56
-17.42
-19.02
-19.84
-19.29
-16.98
-12.86
-7.33
-1.16
4.75
9.63
13.08
15.04
15.76
15.55
14.70
13.40
11.85
10.25
8.88
8.00
7.73
8.04
8.68
9.28
9.51
9.18
8.30
7.05
5.73
4.67
4.10
4.20
4.94
6.19
7.60
8.75
9.14
8.39
6.33
3.08
-0.93
-5.09
-8.74
-11.31
-12.50
-12.27
-10.85
-8.65
-6.17
-3.85
-1.96
-0.63
0.21
0.67
0.87
0.85
0.60
0.12
-0.55
-1.36
-2.26
-3.17
-4.03
-4.77
-5.31
-5.61
-5.75
-5.85
-6.12
-6.67
-7.50
-8.49
-9.50
-10.43
-11.28
-12.11
-13.00
-13.98
-15.03
-16.11
-17.12
-17.87
-18.02
-17.17
-15.01
-11.50
-6.99
-2.16
2.17
5.38
7.18
7.70
7.29
6.40
5.36
4.29
3.19
2.05
0.89
-0.11
-0.75
-0.85
-0.43
0.29
0.96
1.27
1.11
0.62
0.07
-0.27
-0.38
-0.44
-0.77
-1.57
-2.85
-4.43
-6.03
-7.49
-8.73
-9.66
-10.15
-9.88
-8.52
-5.94
-2.35
1.63
5.23
7.85
9.30
9.83
9.92
9.99
10.12
10.05
9.42
8.03
6.06
3.97
2.33
1.45
1.24
1.30
1.08
0.25
-1.22
-3.04
-4.88
-6.43
-7.67
-8.75
-9.92
-11.37
-13.20
-15.35
-17.63
-19.70
-21.13
-21.42
-20.16
-17.19
-12.70
-7.24
-1.59
3.49
7.44
10.09
11.56
12.12
12.01
11.36
10.22
8.70
6.99
5.43
4.34
3.91
4.08
4.56
4.90
4.72
3.84
2.40
0.75
-0.65
-1.45
-1.56
-1.21
-0.80
-0.83
-1.65
-3.40
-5.92
-8.83
-11.49
-13.17
-13.18
-11.11
-7.01
-1.45
4.63
10.18
14.45
17.17
18.52
18.96
18.92
18.60
17.98
16.97
15.60
14.04
12.56
11.35
10.38
9.48
8.39
6.99
5.40
3.90
2.84
2.39
2.47
2.82
3.09
3.02
2.51
1.61
0.42
-0.91
-2.15
-2.90
-2.59
-0.66
3.32
9.33
16.85
25.02
32.83
39.35
43.89
46.07
45.71
42.98
38.34
32.54
26.54
21.23
17.27
14.88
13.94
14.04
14.67
15.34
15.63
15.19
13.85
11.66
8.93
6.18
4.01
2.88
2.94
3.90
5.14
5.92
5.65
4.08
1.42
-1.84
-5.13
-8.01
-10.32
-12.18
-13.96
-16.25
-19.74
-25.13
-32.87
-42.96
-54.85
-67.59
-80.28
-92.51
-104.44
-116.67
-129.60
-142.94
-155.61
-165.94
-172.34
-173.85
-170.35
-162.55
-151.55
-138.50
-124.30
-109.56
-94.63
-79.80
-65.40
-51.94
-40.05
-30.48
-23.92
-20.81
-21.28
-25.08
-31.54
-39.53
-47.48
-53.47
-55.58
-52.29
-42.98
-28.21
-9.58
10.62
30.00
46.58
59.14
67.25
71.17
71.61
69.43
65.52
60.70
55.71
51.14
47.41
44.74
43.08
42.13
41.41
40.39
38.63
35.84
31.93
26.95
21.08
14.57
7.74
1.02
-5.16
-10.39
-14.45
-17.44
-19.85
-22.42
-25.84
-30.39
-35.61
-40.25
-42.67
-41.37
-35.54
-25.35
-11.88
3.36
18.87
33.52
46.57
57.58
66.21
72.24
75.67
76.82
76.49
75.73
75.62
76.95
79.94
84.28
89.26
94.09
98.23
101.55
104.27
106.72
109.10
111.24
112.71
112.98
111.69
108.80
104.53
99.21
93.06
86.11
78.30
69.54
59.80
49.21
37.94
26.24
14.44
3.01
-7.44
-16.21
-22.65
-26.25
-26.82
-24.45
-19.60
-13.06
-5.97
0.36
4.60
5.76
3.47
-1.86
-9.10
-16.81
-23.57
-28.38
-30.83
-31.02
-29.44
-26.66
-23.06
-18.67
-13.25
-6.53
1.30
9.41
16.33
20.45
20.65
16.81
9.75
0.81
-8.86
-18.72
-28.81
-39.39
-50.49
-61.75
-72.48
-82.06
-89.97
-95.77
-98.90
-98.55
-93.94
-84.63
-70.96
-54.03
-35.44
-16.82
0.55
15.82
28.46
37.98
43.90
45.90
44.11
39.31
32.82
26.23
20.82
17.19
15.15
13.93
12.57
10.38
7.22
3.55
0.33
-1.34
-0.41
3.80
11.49
22.32
35.37
49.27
62.40
73.10
80.00
82.23
79.49
72.17
61.16
47.73
33.30
19.27
6.83
-3.00
-9.42
-11.87
-10.14
-4.53
4.05
14.18
24.23
32.76
38.82
42.02
42.34
39.97
35.11
28.10
19.54
10.35
1.61
-5.69
-10.95
-14.07
-15.39
-15.44
-14.72
-13.44
-11.38
-7.81
-1.80
7.40
19.76
34.12
48.26
59.53
65.68
65.72
60.17
50.77
39.86
29.66
22.05
18.50
20.19
27.71
40.57
56.67
72.25
82.77
84.32
75.12
56.35
31.82
6.58
-14.79
-29.65
-37.80
-41.01
-41.96
-43.10
-46.00
-51.07
-57.82
-65.14
-71.73
-76.26
-77.57
-74.84
-67.61
-56.06
-41.02
-24.08
-7.34
6.95
16.89
21.45
20.77
16.15
9.65
3.48
-0.67
-2.02
-0.65
2.77
7.40
12.39
16.72
18.97
17.38
10.27
-3.19
-22.25
-44.40
-65.91
-82.85
-92.22
-92.74
-84.97
-70.97
-53.65
-36.04
-20.71
-9.27
-1.94
2.55
6.62
12.95
23.29
37.62
53.90
68.74
78.64
81.25
76.13
64.75
49.77
34.07
20.03
9.12
1.90
-1.82
-2.89
-2.64
-2.66
-4.30
-8.17
-13.82
-19.80
-24.07
-24.83
-21.21
-13.70
-4.16
4.73
10.30
10.73
5.70
-3.59
-14.79
-25.25
-32.89
-36.70
-36.86
-34.42
-30.65
-26.64
-22.99
-19.91
-17.39
-15.41
-14.04
-13.40
-13.43
-13.83
-13.90
-12.66
-9.12
-2.58
6.96
18.72
31.26
42.77
51.57
56.48
57.09
53.70
47.12
38.34
28.33
17.85
7.37
-2.81
-12.62
-22.15
-31.65
-41.43
-51.60
-61.85
-71.28
-78.51
-82.07
-80.95
-75.04
-65.22
-53.04
-40.11
-27.64
-16.10
-5.36
5.06
15.64
26.65
37.98
49.03
58.73
65.68
68.51
66.50
59.99
50.49
40.29
31.63
25.96
23.44
23.11
23.47
23.20
21.58
18.61
14.73
10.52
6.38
2.53
-0.97
-4.14
-7.06
-9.98
-13.24
-17.19
-21.88
-26.81
-30.90
-32.72
-30.94
-24.97
-15.18
-2.81
10.38
22.74
33.11
41.00
46.47
49.93
51.95
53.17
54.20
55.62
57.86
61.06
65.06
69.41
73.49
76.68
78.46
78.54
76.98
74.11
70.31
65.81
60.34
53.27
43.86
31.83
17.71
2.91
-10.74
-21.70
-29.27
-33.74
-36.09
-37.35
-38.11
-38.46
-38.22
-37.35
-36.09
-34.91
-34.10
-33.61
-32.99
-31.74
-29.58
-26.77
-23.91
-21.69
-20.53
-20.39
-20.93
-21.74
-22.52
-23.21
-23.85
-24.43
-24.86
-25.02
-24.86
-24.50
-24.10
-23.83
-23.66
-23.40
-22.82
-21.70
-20.06
-18.04
-15.93
-13.97
-12.32
-11.03
-10.08
-9.40
-8.92
-8.53
-8.13
-7.64
-7.02
-6.28
-5.47
-4.54
-3.39
-1.86
0.09
2.32
4.45
5.93
6.32
5.46
3.57
1.16
-1.23
-3.29
-5.00
-6.58
-8.33
-10.35
-12.57
-14.73
-16.60
-18.11
-19.39
-20.68
-22.23
-24.12
-26.24
-28.32
-30.00
-30.97
-31.06
-30.30
-28.95
-27.45
-26.36
-26.23
-27.49
-30.37
-34.78
-40.32
-46.29
-51.83
-56.10
-58.44
-58.54
-56.41
-52.20
-46.06
-38.03
-28.16
-16.71
-4.44
7.47
17.62
24.82
28.59
29.16
27.48
24.71
21.97
20.01
19.26
19.86
21.77
24.75
28.31
31.72
34.13
34.80
33.38
30.09
25.65
21.07
17.26
14.74
13.45
12.90
12.40
11.43
9.85
7.90
6.05
4.64
3.69
2.83
1.42
-1.18
-5.29
-10.76
-17.01
-23.15
-28.29
-31.78
-33.30
-32.93
-31.05
-28.19
-24.87
-21.52
-18.46
-15.99
-14.41
-13.98
-14.86
-16.87
-19.44
-21.69
-22.60
-21.43
-18.02
-12.94
-7.42
-2.99
-0.97
-2.05
-5.97
-11.62
-17.40
-21.74
-23.58
-22.69
-19.53
-15.01
-10.03
-5.19
-0.76
3.25
6.90
10.17
12.95
15.17
16.87
18.25
19.65
21.42
23.75
26.59
29.69
32.72
35.36
37.45
38.96
39.96
40.52
40.70
40.50
39.79
38.08
34.46
27.56
16.05
-0.69
-21.90
-45.26
-67.44
-85.22
-96.68
-102.06
-103.53
-104.43
-107.83
-115.29
-126.31
-138.45
-148.09
-151.46
-145.75
-129.89
-105.09
-74.67
-43.34
-16.10
3.17
12.81
14.02
10.39
6.69
6.96
13.14
24.41
37.53
48.04
52.05
47.78
36.15
20.54
4.85
-7.37
-13.92
-14.32
-9.62
-1.74
7.59
16.95
25.47
31.32
32.79
28.99
20.34
8.41
-4.51
-15.78
-23.66
-27.49
-29.53
-32.58
-38.40
-46.84
-56.41
-65.27
-71.53
-74.76
-75.52
-77.46
-84.18
-97.36
-116.10
-137.96
-160.35
-180.75
-198.28
-198.91
-175.43
-131.45
-79.83
-33.30
1.84
22.42
34.75
44.03
54.06
65.14
76.91
89.46
103.23
118.59
135.35
153.56
172.31
190.72
206.01
215.63
218.60
216.13
210.93
206.05
204.20
206.19
211.50
217.47
221.27
221.09
216.60
208.41
197.19
183.55
167.42
148.86
127.72
104.27
79.30
53.92
29.20
6.00
-14.82
-32.62
-46.84
-57.43
-64.88
-69.99
-73.61
-76.30
-78.22
-79.21
-79.11
-77.97
-76.15
-74.14
-72.37
-70.94
-69.62
-67.93
-65.42
-61.80
-57.06
-51.42
-45.26
-38.94
-32.76
-26.90
-21.41
-16.34
-11.77
-7.82
-4.61
-2.17
-0.44
0.79
1.77
2.71
3.71
4.73
5.68
6.47
7.10
7.57
7.90
8.10
8.16
8.05
7.80
7.41
6.93
6.38
5.74
5.01
4.17
3.24
2.22
1.17
0.15
-0.80
-1.62
-2.31
-2.89
-3.38
-3.80
-4.16
-4.44
-4.67
-4.87
-5.12
-5.45
-5.88
-6.41
-6.99
-7.54
-7.99
-8.28
-8.38
-8.27
-8.01
-7.68
-7.41
-7.26
-7.25
-7.30
-7.26
-7.01
-6.51
-5.78
-4.98
-4.29
-3.85
-3.74
-3.95
-4.38
-4.91
-5.45
-5.94
-6.37
-6.74
-7.07
-7.36
-7.60
-7.77
-7.82
-7.72
-7.40
-6.87
-6.16
-5.40
-4.77
-4.39
-4.30
-4.40
-4.54
-4.52
-4.25
-3.77
-3.21
-2.74
-2.47
-2.43
-2.51
-2.57
-2.53
-2.35
-2.11
-1.95
-1.95
-2.14
-2.46
-2.79
-3.06
-3.20
-3.27
-3.31
-3.40
-3.54
-3.71
-3.86
-3.90
-3.78
-3.52
-3.15
-2.77
-2.47
-2.27
-2.14
-2.03
-1.88
-1.69
-1.54
-1.49
-1.58
-1.77
-1.96
-2.05
-2.03
-1.95
-1.91
-1.99
-2.16
-2.35
-2.45
-2.37
-2.08
-1.63
-1.07
-0.49
0.00
0.28
0.22
-0.21
-0.93
-1.74
-2.39
-2.64
-2.40
-1.74
-0.90
-0.13
0.38
0.58
0.55
0.46
0.47
0.65
0.98
1.42
1.85
2.22
2.47
2.60
2.57
2.41
2.14
1.78
1.39
1.00
0.65
0.35
0.09
-0.18
-0.52
-0.99
-1.62
-2.36
-3.08
-3.61
-3.84
-3.73
-3.39
-2.95
-2.54
-2.20
-1.91
-1.65
-1.39
-1.17
-1.06
-1.09
-1.22
-1.37
-1.48
-1.52
-1.55
-1.63
-1.83
-2.12
-2.43
-2.74
-3.00
-3.23
-3.48
-3.76
-4.05
-4.28
-4.37
-4.26
-3.95
-3.53
-3.13
-2.83
-2.67
-2.59
-2.48
-2.20
-1.75
-1.18
-0.63
-0.23
-0.03
-0.01
-0.07
-0.17
-0.25
-0.30
-0.30
-0.23
-0.10
0.00
-0.02
-0.23
-0.64
-1.13
-1.57
-1.87
-2.01
-2.06
-2.11
-2.21
-2.36
-2.52
-2.62
-2.66
-2.66
-2.61
-2.52
-2.36
-2.12
-1.81
-1.47
-1.10
-0.72
-0.32
0.07
0.40
0.61
0.65
0.55
0.38
0.25
0.25
0.38
0.59
0.80
0.91
0.91
0.79
0.61
0.45
0.39
0.45
0.63
0.82
0.95
0.95
0.79
0.59
0.43
0.40
0.49
0.65
0.80
0.95
1.13
1.39
1.67
1.82
1.69
1.19
0.43
-0.35
-0.92
-1.14
-1.09
-0.95
-0.91
-1.05
-1.30
-1.53
-1.62
-1.53
-1.32
-1.08
-0.93
-0.93
-1.08
-1.30
-1.49
-1.54
-1.40
-1.12
-0.81
-0.59
-0.54
-0.63
-0.77
-0.88
-0.95
-1.05
-1.28
-1.69
-2.22
-2.72
-3.03
-3.04
-2.78
-2.38
-2.00
-1.76
-1.67
-1.70
-1.78
-1.90
-2.08
-2.37
-2.78
-3.27
-3.74
-4.09
-4.21
-4.08
-3.72
-3.23
-2.73
-2.34
-2.13
-2.09
-2.16
-2.24
-2.21
-2.04
-1.72
-1.28
-0.79
-0.30
0.12
0.43
0.59
0.59
0.44
0.21
-0.04
-0.24
-0.40
-0.52
-0.66
-0.88
-1.26
-1.85
-2.66
-3.62
-4.62
-5.48
-6.10
-6.46
-6.63
-6.78
-7.04
-7.45
-7.94
-8.38
-8.69
-8.87
-9.00
-9.14
-9.31
-9.41
-9.28
-8.80
-7.87
-6.46
-4.61
-2.40
0.04
2.52
4.82
6.74
8.15
9.07
9.66
10.14
10.79
11.77
13.16
14.86
16.71
18.57
20.37
22.20
24.25
26.71
29.69
33.09
36.61
39.77
42.11
43.32
43.28
42.14
40.19
37.73
35.01
32.09
28.93
25.38
21.31
16.68
11.56
6.08
0.39
-5.45
-11.43
-17.70
-24.42
-31.67
-39.36
-47.09
-54.25
-60.07
-63.99
-65.88
-66.20
-65.87
-65.89
-66.85
-68.64
-70.55
-71.78
-72.16
-72.54
-74.69
-80.63
-91.83
-108.49
-129.29
-151.63
-171.95
-186.38
-191.37
-184.72
-166.36
-138.86
-107.03
-76.53
-52.12
-36.13
-28.17
-25.82
-26.13
-26.93
-27.23
-26.94
-26.13
-24.55
-21.73
-17.44
-12.10
-6.74
-2.63
-0.65
-0.88
-2.62
-4.71
-6.06
-6.17
-5.24
-4.06
-3.71
-5.01
-8.23
-12.95
-18.21
-22.84
-25.84
-26.71
-25.58
-23.11
-20.32
-18.40
-18.34
-20.73
-25.48
-31.63
-37.42
-40.63
-39.20
-31.85
-18.47
-0.15
21.15
43.20
64.03
82.23
97.03
108.11
115.49
119.41
120.27
118.63
115.15
110.54
105.41
100.25
95.42
91.16
87.72
85.32
84.07
83.94
84.61
85.52
85.96
85.32
83.24
79.72
75.02
69.60
63.90
58.29
52.95
47.89
42.90
37.65
31.78
25.06
17.54
9.56
1.71
-5.37
-11.26
-15.92
-19.78
-23.63
-28.31
-34.36
-41.56
-48.79
-54.21
-55.78
-51.98
-42.35
-27.67
-9.67
9.58
28.27
45.22
59.85
71.98
81.62
88.78
93.59
96.28
97.19
96.65
94.83
91.73
87.32
81.68
75.13
68.13
61.10
54.28
47.64
41.04
34.43
27.92
21.74
16.09
10.93
5.98
0.88
-4.58
-10.25
-15.71
-20.39
-23.85
-26.02
-27.19
-27.94
-28.93
-30.68
-33.44
-37.10
-41.16
-44.80
-47.02
-46.88
-43.72
-37.31
-27.91
-16.22
-3.19
10.20
23.00
34.43
43.85
50.82
55.10
56.70
55.79
52.78
48.14
42.51
36.54
30.96
26.38
23.10
21.11
19.98
19.14
18.00
16.24
13.78
10.74
7.28
3.46
-0.76
-5.42
-10.49
-15.73
-20.76
-25.15
-28.53
-30.70
-31.73
-31.91
-31.72
-31.82
-32.85
-35.33
-39.41
-44.62
-49.87
-53.58
-54.17
-50.56
-42.58
-31.02
-17.35
-3.18
10.16
21.85
31.50
38.98
44.25
47.33
48.34
47.57
45.42
42.32
38.61
34.50
30.20
25.98
22.28
19.64
18.53
19.24
21.67
25.33
29.39
32.88
34.90
34.89
32.79
29.04
24.48
20.05
16.52
14.26
13.19
12.89
12.75
12.10
10.33
6.95
1.67
-5.39
-13.57
-21.61
-27.94
-31.08
-30.14
-25.21
-17.27
-7.89
1.27
8.94
14.40
17.39
17.95
16.20
12.34
6.68
-0.24
-7.73
-14.99
-21.33
-26.26
-29.54
-31.13
-31.11
-29.64
-26.93
-23.34
-19.32
-15.47
-12.36
-10.37
-9.61
-9.83
-10.41
-10.53
-9.38
-6.30
-0.93
6.68
16.04
26.30
36.26
44.66
50.38
52.73
51.64
47.64
41.63
34.58
27.26
20.13
13.45
7.46
2.51
-0.97
-2.63
-2.43
-0.68
1.94
4.65
6.70
7.55
6.96
4.90
1.60
-2.59
-7.18
-11.64
-15.50
-18.44
-20.44
-21.78
-23.06
-24.96
-28.06
-32.58
-38.30
-44.59
-50.59
-55.50
-58.81
-60.48
-60.93
-60.86
-60.97
-61.58
-62.39
-62.47
-60.50
-55.25
-46.02
-33.01
-17.29
-0.49
15.66
29.73
40.90
48.90
53.87
56.20
56.34
54.74
51.86
48.19
44.27
40.63
37.73
35.86
35.06
35.12
35.62
36.05
35.93
34.90
32.72
29.23
24.36
18.10
10.62
2.27
-6.44
-14.96
-22.88
-30.09
-36.74
-42.97
-48.63
-53.11
-55.40
-54.50
-49.84
-41.71
-31.21
-19.96
-9.61
-1.39
4.08
6.73
6.84
4.83
1.13
-3.72
-9.08
-14.26
-18.59
-21.64
-23.27
-23.64
-22.95
-21.34
-18.74
-14.98
-9.97
-3.86
2.91
9.68
15.77
20.58
23.72
25.02
24.44
22.01
17.85
12.24
5.67
-1.03
-6.73
-10.17
-10.25
-6.32
1.48
12.24
24.44
36.33
46.34
53.37
56.98
57.29
54.85
50.36
44.52
37.88
30.83
23.69
16.83
10.71
5.85
2.63
1.06
0.78
1.12
1.46
1.42
0.87
-0.17
-1.86
-4.62
-9.01
-15.46
-23.96
-34.01
-44.81
-55.66
-66.03
-75.52
-83.57
-89.17
-91.00
-87.82
-79.00
-64.92
-46.92
-26.92
-6.83
11.98
28.88
43.92
57.50
69.95
81.24
90.92
98.25
102.54
103.37
100.73
94.87
86.09
74.61
60.68
44.87
28.29
12.63
-0.25
-8.85
-12.55
-11.80
-7.98
-2.93
1.56
4.12
3.97
0.99
-4.38
-11.19
-18.17
-23.89
-27.16
-27.23
-24.07
-18.35
-11.21
-3.90
2.53
7.45
10.65
12.11
11.94
10.27
7.36
3.67
-0.15
-3.36
-5.44
-6.22
-5.96
-5.22
-4.63
-4.68
-5.64
-7.55
-10.35
-13.98
-18.38
-23.55
-29.39
-35.76
-42.44
-49.19
-55.84
-62.36
-68.72
-74.71
-79.68
-82.50
-81.70
-75.94
-64.65
-48.30
-28.52
-7.65
11.93
28.36
40.67
48.84
53.57
56.04
57.52
59.00
60.78
62.30
62.30
59.31
52.37
41.65
28.52
15.15
3.76
-4.16
-8.25
-9.21
-8.43
-7.39
-7.37
-9.22
-13.45
-20.24
-29.51
-40.78
-53.13
-65.17
-75.22
-81.70
-83.59
-80.76
-74.02
-64.81
-54.71
-44.92
-36.05
-28.13
-21.00
-14.55
-8.94
-4.55
-1.72
-0.55
-0.74
-1.66
-2.50
-2.62
-1.70
0.06
2.07
3.55
3.91
2.89
0.76
-1.82
-4.05
-5.33
-5.65
-5.72
-6.78
-10.15
-16.48
-25.33
-35.04
-43.26
-47.77
-47.31
-41.91
-32.67
-21.15
-8.67
3.88
16.04
27.38
37.32
45.19
50.51
53.21
53.68
52.67
51.00
49.23
47.66
46.21
44.63
42.55
39.61
35.60
30.53
24.67
18.48
12.45
6.91
1.89
-2.91
-7.96
-13.69
-20.31
-27.59
-34.86
-41.09
-45.18
-46.36
-44.44
-39.97
-33.94
-27.44
-21.23
-15.57
-10.33
-5.35
-0.67
3.35
6.27
7.82
8.11
7.49
6.37
4.94
3.10
0.63
-2.59
-6.40
-10.33
-13.76
-16.19
-17.42
-17.61
-17.15
-16.50
-16.03
-15.98
-16.50
-17.72
-19.84
-22.95
-26.92
-31.19
-34.78
-36.43
-34.99
-29.78
-20.84
-8.89
4.82
18.92
32.14
43.48
52.23
57.89
60.14
58.88
54.36
47.17
38.29
28.87
20.02
12.59
6.99
3.15
0.63
-1.19
-2.96
-5.16
-7.95
-11.17
-14.35
-16.94
-18.55
-19.22
-19.56
-20.57
-23.34
-28.63
-36.53
-46.34
-56.70
-65.88
-72.09
-73.86
-70.36
-61.60
-48.37
-32.11
-14.39
3.49
20.78
37.30
53.09
67.99
81.45
92.57
100.50
104.80
105.65
103.68
99.64
94.01
86.95
78.39
68.43
57.52
46.42
35.97
26.71
18.73
11.72
5.22
-1.13
-7.50
-13.89
-20.30
-26.70
-32.92
-38.53
-42.80
-44.83
-43.94
-39.97
-33.36
-25.11
-16.40
-8.29
-1.53
3.48
6.64
8.01
7.80
6.28
3.75
0.55
-2.99
-6.52
-9.64
-11.94
-13.09
-12.92
-11.47
-8.94
-5.64
-1.84
2.21
6.24
9.94
12.96
15.01
15.99
15.95
15.04
13.27
10.44
6.28
0.69
-5.88
-12.44
-17.57
-19.91
-18.70
-14.03
-6.74
1.88
10.58
18.38
24.64
29.05
31.50
32.02
30.84
28.33
24.97
21.23
17.51
14.11
11.28
9.22
8.03
7.60
7.55
7.27
6.18
3.89
0.42
-3.91
-8.62
-13.29
-17.72
-21.92
-26.12
-30.60
-35.62
-41.37
-47.79
-54.52
-60.86
-65.81
-68.32
-67.60
-63.37
-55.95
-46.19
-35.11
-23.64
-12.35
-1.47
8.99
18.99
28.31
36.51
43.08
47.65
50.12
50.66
49.65
47.44
44.36
40.62
36.41
31.93
27.42
23.11
19.18
15.82
13.12
11.14
9.76
8.78
7.89
6.80
5.35
3.51
1.36
-0.99
-3.42
-5.68
-7.41
-8.08
-7.22
-4.65
-0.63
4.12
8.66
12.19
14.26
14.90
14.46
13.39
11.96
10.17
7.81
4.62
0.53
-4.22
-9.08
-13.43
-16.76
-18.94
-20.13
-20.71
-21.05
-21.37
-21.71
-22.01
-22.19
-22.26
-22.27
-22.27
-22.36
-22.71
-23.57
-25.31
-28.19
-32.13
-36.55
-40.43
-42.50
-41.70
-37.57
-30.35
-20.88
-10.33
0.16
9.68
17.60
23.53
27.30
28.92
28.62
26.83
24.12
21.06
18.04
15.28
12.74
10.24
7.54
4.46
0.94
-2.93
-6.89
-10.59
-13.71
-16.01
-17.46
-18.22
-18.64
-19.18
-20.29
-22.23
-24.94
-28.01
-30.68
-32.05
-31.34
-28.12
-22.46
-14.90
-6.28
2.52
10.77
17.98
23.88
28.31
31.11
32.15
31.34
28.76
24.67
19.55
13.98
8.54
3.63
-0.54
-4.01
-6.95
-9.58
-12.03
-14.33
-16.38
-18.09
-19.39
-20.36
-21.12
-21.78
-22.41
-23.08
-23.94
-25.32
-27.61
-31.04
-35.35
-39.63
-42.49
-42.50
-38.72
-31.07
-20.40
-8.13
4.16
15.19
24.17
30.77
34.99
37.01
37.12
35.65
32.94
29.29
24.97
20.21
15.28
10.51
6.25
2.81
0.35
-1.15
-1.91
-2.22
-2.39
-2.71
-3.38
-4.55
-6.31
-8.66
-11.46
-14.48
-17.46
-20.23
-22.71
-24.84
-26.46
-27.20
-26.50
-23.86
-19.05
-12.31
-4.36
3.84
11.36
17.54
22.06
24.88
26.09
25.76
23.93
20.66
16.14
10.75
5.07
-0.22
-4.49
-7.42
-9.03
-9.68
-9.88
-10.10
-10.60
-11.39
-12.39
-13.46
-14.49
-15.42
-16.22
-16.94
-17.80
-19.13
-21.29
-24.35
-27.88
-30.91
-32.13
-30.42
-25.22
-16.89
-6.51
4.46
14.62
23.03
29.30
33.48
35.81
36.52
35.79
33.76
30.62
26.67
22.35
18.15
14.47
11.62
9.66
8.51
7.97
7.86
8.06
8.53
9.24
10.14
11.05
11.71
11.77
10.92
8.96
5.82
1.56
-3.57
-9.14
-14.53
-19.06
-22.09
-23.22
-22.37
-19.81
-16.01
-11.46
-6.58
-1.70
2.87
6.78
9.61
11.05
10.94
9.37
6.59
2.96
-1.20
-5.70
-10.31
-14.77
-18.73
-21.76
-23.50
-23.80
-22.75
-20.68
-18.06
-15.38
-13.04
-11.37
-10.56
-10.72
-11.81
-13.53
-15.26
-16.02
-14.62
-10.11
-2.13
8.82
21.54
34.52
46.53
57.00
65.97
73.85
80.96
87.40
93.08
98.03
102.59
107.28
112.43
117.73
122.04
123.73
121.46
114.86
104.91
93.60
83.15
75.06
69.55
65.66
61.78
56.50
49.05
39.45
28.30
16.36
4.35
-7.12
-17.58
-26.63
-34.06
-39.89
-44.39
-47.94
-50.89
-53.32
-55.07
-55.81
-55.34
-53.77
-51.61
-49.67
-48.75
-49.31
-51.27
-53.98
-56.58
-58.31
-58.92
-58.70
-58.35
-58.67
-60.06
-62.37
-64.90
-66.72
-67.15
-66.12
-64.23
-62.53
-62.09
-63.60
-67.09
-71.88
-76.72
-80.13
-80.77
-77.82
-71.25
-61.83
-50.91
-39.94
-30.08
-21.84
-15.13
-9.40
-4.01
1.54
7.35
13.18
18.50
22.70
25.39
26.52
26.42
25.59
24.42
23.03
21.29
19.04
16.33
13.53
11.12
9.35
8.02
6.36
3.37
-1.71
-8.95
-17.60
-26.27
-33.43
-38.04
-39.85
-39.42
-37.71
-35.52
-33.01
-29.67
-24.68
-17.55
-8.58
1.12
10.16
17.60
23.40
28.44
33.93
40.64
48.49
56.49
63.22
67.24
67.40
62.88
53.15
38.12
18.50
-3.95
-26.50
-46.15
-60.63
-69.18
-72.71
-73.11
-72.23
-70.98
-69.04
-65.38
-59.04
-49.82
-38.51
-26.50
-15.19
-5.57
2.05
7.87
12.28
15.67
18.29
20.27
21.71
22.76
23.60
24.38
25.17
25.92
26.45
26.57
26.19
25.45
24.71
24.37
24.51
24.60
23.58
20.12
13.33
3.23
-9.01
-21.37
-31.56
-37.81
-39.32
-36.30
-29.65
-20.54
-10.11
0.63
10.71
19.18
25.16
27.98
27.36
23.54
17.23
9.48
1.44
-5.89
-11.88
-16.36
-19.54
-21.87
-23.77
-25.42
-26.77
-27.63
-27.83
-27.46
-26.85
-26.49
-26.87
-28.22
-30.33
-32.52
-33.76
-32.91
-29.08
-21.90
-11.61
1.03
15.02
29.32
43.05
55.55
66.29
74.80
80.56
82.94
81.33
75.35
65.16
51.70
36.70
22.31
10.49
2.40
-1.97
-3.59
-3.88
-4.03
-4.63
-5.66
-6.87
-8.22
-10.06
-12.95
-17.22
-22.53
-27.70
-31.03
-30.88
-26.36
-17.67
-6.08
6.52
18.28
27.86
34.67
38.79
40.68
40.90
39.96
38.30
36.34
34.53
33.27
32.76
32.84
33.01
32.57
30.93
27.81
23.46
18.55
13.90
10.16
7.54
5.75
4.09
1.85
-1.34
-5.22
-8.90
-11.03
-10.31
-5.90
2.23
13.42
26.49
40.20
53.50
65.64
76.08
84.39
90.16
93.09
93.10
90.40
85.51
79.05
71.62
63.56
54.96
45.74
35.84
25.36
14.63
4.13
-5.71
-14.62
-22.66
-30.17
-37.68
-45.75
-54.71
-64.46
-74.32
-82.99
-88.81
-90.19
-86.16
-76.78
-63.18
-47.25
-31.10
-16.45
-4.29
5.15
12.12
17.08
20.48
22.69
24.14
25.34
26.94
29.51
33.35
38.28
43.71
48.73
52.54
54.70
55.23
54.57
53.22
51.54
49.57
47.16
44.11
40.42
36.28
32.03
28.01
24.39
21.23
18.43
15.85
13.30
10.64
7.73
4.57
1.24
-2.11
-5.39
-8.61
-11.96
-15.67
-19.90
-24.60
-29.51
-34.35
-38.96
-43.39
-47.84
-52.44
-57.10
-61.42
-64.86
-66.99
-67.66
-67.10
-65.82
-64.41
-63.40
-63.18
-63.92
-65.50
-67.31
-68.32
-67.18
-62.66
-54.14
-42.00
-27.60
-12.85
0.44
11.07
18.68
23.52
26.09
26.78
25.81
23.31
19.61
15.32
11.25
8.19
6.62
6.55
7.51
8.72
9.39
8.99
7.41
4.98
2.23
-0.36
-2.64
-4.86
-7.59
-11.47
-16.84
-23.49
-30.59
-36.76
-40.49
-40.59
-36.54
-28.66
-18.10
-6.40
4.86
14.43
21.58
26.05
27.93
27.48
25.12
21.42
17.06
12.80
9.32
6.99
5.79
5.34
5.03
4.31
2.87
0.74
-1.79
-4.36
-6.72
-8.80
-10.76
-12.86
-15.36
-18.52
-22.50
-27.32
-32.71
-38.06
-42.31
-44.21
-42.68
-37.23
-28.24
-16.90
-4.86
6.29
15.54
22.54
27.48
30.73
32.57
33.09
32.28
30.26
27.42
24.35
21.71
19.97
19.27
19.36
19.74
19.85
19.29
17.97
16.10
14.09
12.29
10.82
9.52
8.04
5.99
3.08
-0.81
-5.65
-11.24
-17.06
-22.22
-25.55
-25.81
-22.24
-14.93
-4.89
6.20
16.55
24.86
30.52
33.63
34.60
33.83
31.59
28.06
23.52
18.43
13.41
9.10
5.96
4.13
3.50
3.67
4.13
4.39
4.02
2.76
0.56
-2.46
-6.09
-10.03
-14.00
-17.80
-21.35
-24.73
-28.17
-31.97
-36.28
-40.86
-44.92
-47.31
-46.80
-42.64
-34.87
-24.38
-12.58
-0.94
9.41
17.92
24.43
29.00
31.64
32.28
30.89
27.71
23.32
18.61
14.55
11.83
10.68
10.79
11.50
12.08
12.04
11.28
9.99
8.53
7.12
5.77
4.27
2.30
-0.37
-3.92
-8.37
-13.63
-19.43
-25.19
-30.00
-32.79
-32.60
-28.99
-22.23
-13.27
-3.41
6.08
14.34
20.92
25.70
28.67
29.78
29.00
26.46
22.55
17.98
13.57
10.08
7.94
7.15
7.31
7.80
8.02
7.58
6.44
4.82
3.09
1.60
0.57
0.03
-0.12
-0.09
-0.19
-0.73
-1.93
-3.68
-5.45
-6.27
-5.05
-0.94
6.28
16.02
27.03
37.85
47.24
54.47
59.40
62.17
62.97
61.86
58.86
54.13
48.11
41.59
35.41
30.25
26.28
23.20
20.47
17.61
14.52
11.52
9.16
7.89
7.73
8.24
8.63
8.04
5.80
1.60
-4.45
-11.79
-19.43
-26.04
-30.24
-30.91
-27.64
-20.87
-11.86
-2.28
6.27
12.71
16.64
18.33
18.48
17.88
17.26
17.11
17.70
19.09
21.25
24.11
27.52
31.21
34.68
37.32
38.47
37.76
35.20
31.22
26.47
21.53
16.74
12.14
7.58
2.81
-2.44
-8.50
-15.84
-24.91
-35.87
-48.28
-60.92
-72.03
-79.81
-83.10
-81.88
-77.32
-71.45
-66.42
-63.84
-64.38
-67.78
-73.13
-79.22
-84.84
-88.89
-90.44
-88.78
-83.60
-75.17
-64.32
-52.35
-40.67
-30.40
-22.08
-15.63
-10.55
-6.23
-2.21
1.72
5.47
8.72
11.00
11.76
10.50
7.02
1.78
-4.00
-8.52
-9.93
-7.13
-0.29
9.12
18.85
26.79
31.75
33.68
33.33
31.65
29.17
25.89
21.45
15.70
8.98
2.15
-3.73
-7.85
-10.00
-10.59
-10.40
-10.16
-10.24
-10.60
-10.90
-10.83
-10.37
-9.85
-9.83
-10.88
-13.34
-17.19
-21.96
-26.82
-30.71
-32.60
-31.74
-27.96
-21.69
-13.80
-5.33
2.78
9.90
15.59
19.56
21.53
21.32
18.96
14.86
9.76
4.61
0.23
-2.91
-4.81
-5.79
-6.34
-6.81
-7.34
-7.89
-8.35
-8.66
-8.89
-9.25
-9.98
-11.38
-13.71
-17.21
-21.90
-27.44
-32.92
-37.03
-38.36
-35.92
-29.53
-19.98
-8.70
2.67
12.81
20.97
26.87
30.55
32.13
31.77
29.78
26.67
23.17
19.95
17.47
15.79
14.60
13.47
12.07
10.41
8.80
7.64
7.23
7.52
8.21
8.78
8.68
7.45
4.76
0.42
-5.44
-12.28
-18.98
-24.13
-26.36
-24.94
-20.10
-12.97
-5.09
2.13
7.92
12.17
15.12
16.99
17.73
17.11
15.01
11.67
7.80
4.32
2.01
1.20
1.66
2.74
3.70
4.04
3.64
2.78
1.85
1.15
0.65
0.01
-1.30
-3.80
-7.77
-13.14
-19.39
-25.61
-30.60
-33.10
-32.14
-27.33
-19.08
-8.50
2.88
13.61
22.64
29.45
33.96
36.24
36.36
34.37
30.45
25.04
18.96
13.17
8.48
5.35
3.67
2.94
2.50
1.80
0.57
-1.12
-3.01
-4.82
-6.39
-7.73
-9.01
-10.38
-11.98
-13.85
-15.94
-18.08
-19.91
-20.84
-20.08
-16.85
-10.73
-1.86
8.95
20.44
31.27
40.42
47.39
52.08
54.67
55.41
54.59
52.49
49.47
45.85
41.85
37.56
32.92
27.88
22.46
16.77
10.98
5.21
-0.43
-5.77
-10.57
-14.57
-17.62
-19.86
-21.70
-23.72
-26.42
-30.03
-34.39
-38.89
-42.66
-44.68
-44.09
-40.32
-33.32
-23.59
-12.16
-0.38
10.37
18.89
24.46
26.83
26.24
23.23
18.55
13.03
7.46
2.59
-1.02
-3.04
-3.48
-2.63
-1.07
0.52
1.53
1.53
0.36
-1.90
-4.98
-8.61
-12.63
-17.10
-22.37
-28.83
-36.61
-45.17
-53.13
-58.54
-59.47
-54.84
-44.90
-31.19
-15.96
-1.27
11.62
22.46
31.54
39.09
44.90
48.32
48.79
46.35
41.83
36.67
32.26
29.47
28.26
27.94
27.48
26.14
23.72
20.61
17.55
15.23
13.97
13.54
13.16
11.74
8.26
2.07
-6.89
-17.97
-29.89
-40.82
-48.73
-51.75
-48.82
-40.10
-27.23
-12.87
0.01
9.18
13.74
14.28
12.25
9.19
6.08
3.07
-0.22
-4.25
-9.14
-14.53
-19.69
-23.71
-25.87
-25.76
-23.47
-19.57
-14.97
-10.64
-7.32
-5.26
-4.27
-3.85
-3.55
-3.20
-3.00
-3.40
-4.85
-7.47
-10.94
-14.41
-16.79
-17.02
-14.40
-8.89
-1.09
7.95
17.01
25.08
31.49
35.90
38.13
38.08
35.69
31.17
25.03
18.23
11.89
7.03
4.25
3.55
4.42
6.02
7.37
7.68
6.42
3.44
-1.06
-6.61
-12.53
-18.17
-23.00
-26.79
-29.71
-32.27
-35.12
-38.75
-43.10
-47.45
-50.54
-51.01
-47.91
-41.12
-31.48
-20.47
-9.75
-0.70
5.83
9.42
10.02
7.84
3.43
-2.17
-7.41
-10.53
-10.07
-5.55
2.20
11.13
18.67
22.65
22.08
17.43
10.32
2.73
-3.68
-8.06
-10.32
-10.86
-10.25
-9.09
-8.09
-8.00
-9.52
-12.75
-16.89
-20.20
-20.49
-16.05
-6.43
7.18
22.37
36.43
47.30
54.21
57.53
58.19
57.08
54.60
50.83
45.80
39.89
33.94
28.98
25.96
25.33
26.91
29.88
33.03
35.15
35.33
33.22
29.04
23.49
17.44
11.59
6.32
1.58
-2.99
-7.85
-13.40
-19.80
-26.79
-33.64
-39.13
-41.81
-40.41
-34.35
-24.06
-10.92
3.12
16.09
26.58
33.91
38.18
39.91
39.73
38.16
35.59
32.33
28.73
25.25
22.38
20.54
19.88
20.19
20.88
21.17
20.29
17.74
13.44
7.73
1.17
-5.64
-12.29
-18.56
-24.44
-29.94
-35.05
-39.74
-43.96
-47.65
-50.66
-52.65
-53.06
-51.26
-46.75
-39.50
-30.09
-19.60
-9.32
-0.39
6.51
11.23
13.97
15.10
14.98
13.86
12.02
9.79
7.61
5.95
5.16
5.37
6.43
7.98
9.56
10.78
11.41
11.40
10.81
9.76
8.32
6.56
4.49
2.13
-0.49
-3.40
-6.66
-10.45
-14.96
-20.25
-26.01
-31.39
-35.13
-35.82
-32.48
-24.98
-14.13
-1.56
10.85
21.49
29.41
34.34
36.55
36.47
34.55
31.16
26.74
21.87
17.30
13.77
11.76
11.36
12.12
13.29
14.07
13.91
12.71
10.71
8.32
5.93
3.68
1.51
-0.80
-3.49
-6.74
-10.62
-15.10
-20.03
-25.02
-29.44
-32.38
-32.90
-30.25
-24.30
-15.61
-5.38
4.92
13.96
20.87
25.29
27.31
27.24
25.36
21.98
17.47
12.32
7.25
3.03
0.27
-0.82
-0.53
0.44
1.17
0.98
-0.39
-2.66
-5.25
-7.60
-9.45
-10.96
-12.60
-14.92
-18.26
-22.71
-27.93
-33.29
-37.84
-40.50
-40.34
-36.82
-30.08
-20.94
-10.75
-0.84
7.82
14.80
20.15
24.06
26.55
27.46
26.57
23.89
19.88
15.37
11.33
8.51
7.15
6.97
7.31
7.47
6.95
5.61
3.59
1.22
-1.28
-3.81
-6.49
-9.51
-13.06
-17.31
-22.37
-28.17
-34.33
-40.06
-44.14
-45.30
-42.63
-35.99
-26.10
-14.41
-2.53
8.18
16.96
23.61
28.24
30.98
31.88
30.93
28.31
24.47
20.19
16.39
13.75
12.58
12.59
13.13
13.44
12.96
11.55
9.45
7.09
4.86
2.94
1.25
-0.45
-2.45
-5.02
-8.32
-12.42
-17.16
-22.11
-26.46
-29.15
-29.16
-25.87
-19.30
-10.26
-0.07
9.82
18.19
24.36
28.10
29.53
28.92
26.56
22.84
18.24
13.41
9.01
5.63
3.55
2.71
2.72
3.01
3.07
2.56
1.48
0.03
-1.51
-2.99
-4.49
-6.33
-8.91
-12.57
-17.41
-23.31
-29.89
-36.59
-42.63
-47.07
-48.90
-47.32
-41.97
-33.19
-22.04
-10.03
1.35
10.94
18.14
22.85
25.23
25.54
24.02
21.02
17.07
12.90
9.32
6.97
6.11
6.55
7.70
8.86
9.47
9.27
8.31
6.83
5.10
3.24
1.24
-1.04
-3.78
-7.12
-11.17
-15.93
-21.17
-26.33
-30.53
-32.67
-31.78
-27.40
-19.83
-10.06
0.53
10.55
19.00
25.32
29.30
30.85
30.01
26.98
22.35
17.11
12.44
9.32
8.17
8.69
10.02
11.16
11.38
10.43
8.61
6.45
4.47
2.88
1.59
0.22
-1.70
-4.63
-8.93
-14.61
-21.34
-28.22
-34.00
-37.29
-37.04
-32.92
-25.45
-15.88
-5.67
3.89
11.97
18.20
22.48
24.77
25.11
23.68
20.95
17.71
14.84
13.10
12.82
13.85
15.61
17.31
18.28
18.10
16.77
14.56
11.90
9.12
6.32
3.36
-0.06
-4.32
-9.65
-16.07
-23.20
-30.24
-36.04
-39.28
-38.97
-34.74
-27.09
-17.27
-6.88
2.63
10.31
15.81
19.23
20.83
20.85
19.47
16.94
13.64
10.12
7.03
4.94
4.11
4.50
5.66
6.92
7.63
7.38
6.10
4.07
1.69
-0.69
-2.93
-5.10
-7.37
-9.95
-12.99
-16.67
-21.09
-26.16
-31.45
-36.04
-38.64
-38.04
-33.54
-25.38
-14.73
-3.33
7.08
15.33
21.00
24.33
25.88
26.15
25.46
23.90
21.58
18.75
15.86
13.42
11.85
11.27
11.48
12.03
12.40
12.19
11.17
9.32
6.73
3.57
-0.02
-3.92
-8.02
-12.27
-16.62
-21.07
-25.72
-30.68
-35.93
-41.16
-45.68
-48.46
-48.45
-45.01
-38.19
-28.85
-18.33
-8.09
0.80
7.85
13.11
16.90
19.59
21.41
22.48
22.90
22.84
22.57
22.38
22.53
23.15
24.17
25.38
26.47
27.09
26.90
25.64
23.15
19.51
15.01
10.09
5.24
0.79
-3.12
-6.60
-9.89
-13.31
-17.11
-21.46
-26.28
-31.16
-35.24
-37.37
-36.45
-31.89
-23.91
-13.58
-2.52
7.69
15.93
21.79
25.44
27.36
28.02
27.84
27.19
26.40
25.87
25.88
26.49
27.48
28.42
28.86
28.56
27.56
26.17
24.78
23.58
22.46
21.01
18.68
15.11
10.32
4.79
-0.66
-5.17
-8.18
-9.65
-10.12
-10.51
-11.85
-14.92
-20.00
-26.68
-33.87
-39.99
-43.41
-42.96
-38.30
-30.19
-20.18
-10.17
-1.72
4.32
7.96
9.76
10.41
10.38
9.87
9.00
8.00
7.35
7.63
9.24
12.20
16.07
20.16
23.78
26.51
28.22
28.99
28.91
27.96
26.09
23.33
19.87
16.05
12.26
8.82
5.89
3.53
1.71
0.31
-0.90
-2.19
-3.87
-6.14
-9.08
-12.61
-16.60
-20.84
-24.93
-28.21
-29.81
-28.89
-25.01
-18.45
-10.24
-1.79
5.61
11.25
15.12
17.72
19.54
20.77
21.26
20.73
19.16
16.94
14.81
13.45
13.12
13.51
13.86
13.44
11.89
9.47
6.90
4.93
3.99
3.95
4.27
4.30
3.59
2.05
-0.12
-2.63
-5.24
-7.87
-10.56
-13.42
-16.62
-20.38
-24.91
-30.22
-35.96
-41.32
-45.13
-46.21
-43.85
-38.07
-29.68
-19.98
-10.36
-1.85
4.96
9.94
13.20
14.88
15.15
14.26
12.57
10.60
8.88
7.76
7.23
6.98
6.51
5.40
3.60
1.33
-0.95
-2.84
-4.20
-5.15
-6.00
-7.05
-8.47
-10.26
-12.30
-14.45
-16.64
-18.92
-21.51
-24.70
-28.77
-33.71
-39.02
-43.70
-46.41
-45.95
-41.70
-33.96
-23.92
-13.21
-3.39
4.58
10.46
14.52
17.18
18.66
18.95
17.92
15.64
12.51
9.22
6.47
4.73
4.08
4.30
5.05
6.03
7.06
7.96
8.53
8.53
7.80
6.34
4.38
2.32
0.51
-0.89
-1.91
-2.77
-3.74
-5.13
-7.20
-10.10
-13.78
-17.83
-21.37
-23.27
-22.44
-18.30
-11.07
-1.79
8.00
16.78
23.47
27.66
29.48
29.40
27.95
25.59
22.74
19.79
17.15
15.13
13.82
13.09
12.61
12.02
11.15
10.06
9.01
8.26
7.94
7.96
7.99
7.69
6.78
5.22
3.18
0.97
-1.13
-2.91
-4.39
-5.81
-7.57
-10.09
-13.53
-17.59
-21.47
-24.04
-24.24
-21.53
-16.13
-8.99
-1.42
5.32
10.40
13.52
14.81
14.59
13.24
11.10
8.46
5.64
2.96
0.70
-0.92
-1.83
-2.06
-1.80
-1.33
-0.95
-0.93
-1.42
-2.42
-3.85
-5.56
-7.36
-9.07
-10.40
-11.05
-10.73
-9.26
-6.76
-3.67
-0.80
0.89
0.58
-2.04
-6.54
-11.80
-16.31
-18.65
-17.98
-14.27
-8.28
-1.14
5.97
12.23
17.22
20.80
22.92
23.48
22.41
19.73
15.73
10.99
6.28
2.31
-0.52
-2.25
-3.24
-4.04
-5.09
-6.49
-8.09
-9.55
-10.53
-10.85
-10.54
-9.83
-9.08
-8.78
-9.43
-11.43
-14.85
-19.24
-23.66
-26.88
-27.79
-25.82
-21.12
-14.53
-7.20
-0.26
5.51
9.71
12.28
13.33
13.09
11.81
9.88
7.70
5.76
4.46
4.15
4.97
6.87
9.55
12.58
15.50
17.97
19.84
21.16
22.04
22.46
22.17
20.73
17.69
12.82
6.30
-1.27
-9.03
-16.08
-21.60
-24.90
-25.44
-22.80
-16.89
-8.01
3.03
15.06
26.71
36.82
44.55
49.51
51.67
51.26
48.61
44.18
38.47
32.01
25.31
18.82
12.90
7.83
3.78
0.79
-1.24
-2.50
-3.25
-3.69
-4.07
-4.61
-5.56
-7.11
-9.35
-12.12
-15.09
-17.88
-20.30
-22.38
-24.29
-26.04
-27.24
-27.06
-24.50
-18.85
-10.05
1.19
13.56
25.57
35.85
43.37
47.54
48.18
45.62
40.57
34.08
27.26
20.96
15.64
11.34
7.91
5.17
3.03
1.42
0.22
-0.85
-2.11
-3.84
-6.23
-9.30
-12.97
-17.11
-21.45
-25.61
-29.16
-31.78
-33.47
-34.64
-35.92
-37.78
-40.16
-42.35
-43.21
-41.69
-37.29
-30.28
-21.59
-12.45
-3.99
3.00
8.14
11.29
12.46
11.80
9.61
6.43
3.04
0.31
-1.06
-0.95
-0.01
0.54
-0.59
-3.94
-8.93
-13.95
-17.11
-17.29
-14.69
-10.86
-7.88
-7.43
-10.10
-15.43
-22.32
-29.69
-36.71
-42.75
-47.05
-48.74
-46.97
-41.40
-32.47
-21.43
-9.97
0.33
8.46
14.13
17.67
19.64
20.51
20.47
19.46
17.35
14.17
10.25
6.17
2.64
0.14
-1.18
-1.60
-1.59
-1.61
-1.97
-2.71
-3.76
-5.01
-6.46
-8.19
-10.31
-12.96
-16.23
-20.14
-24.58
-29.19
-33.33
-36.18
-36.95
-35.13
-30.74
-24.22
-16.32
-7.82
0.63
8.40
14.82
19.03
20.19
17.81
12.18
4.42
-3.79
-10.80
-15.58
-18.01
-18.71
-18.50
-17.97
-17.22
-16.03
-14.17
-11.72
-9.05
-6.58
-4.60
-3.18
-2.44
-2.68
-4.37
-7.77
-12.37
-16.70
-18.64
-16.35
-9.32
1.19
12.63
22.42
29.13
32.97
35.34
37.75
40.84
44.17
46.82
48.35
49.36
51.35
55.93
63.82
74.36
85.65
95.31
101.35
102.79
99.80
93.46
85.30
76.91
69.67
64.57
62.17
62.42
64.68
67.85
70.78
72.63
73.08
72.15
69.95
66.32
60.81
53.00
42.93
31.32
19.41
8.45
-0.81
-8.37
-14.85
-21.00
-27.28
-33.67
-39.76
-45.10
-49.55
-53.38
-57.20
-61.59
-66.84
-72.77
-78.88
-84.66
-89.84
-94.44
-98.68
-102.66
-106.21
-108.92
-110.31
-110.12
-108.33
-105.11
-100.64
-95.06
-88.49
-81.31
-74.23
-68.21
-64.06
-61.95
-61.10
-59.93
-56.74
-50.34
-40.59
-28.40
-15.13
-2.03
10.27
21.72
32.51
42.69
52.00
60.03
66.50
71.49
75.36
78.53
81.19
83.21
84.26
83.97
82.20
79.06
74.89
70.06
64.88
59.55
54.18
48.88
43.72
38.69
33.67
28.51
23.06
17.34
11.57
6.08
1.10
-3.35
-7.50
-11.71
-16.20
-20.88
-25.38
-29.22
-32.01
-33.63
-34.34
-34.60
-34.94
-35.71
-36.84
-37.84
-37.91
-36.26
-32.39
-26.44
-19.14
-11.65
-5.15
-0.40
2.51
4.11
5.25
6.68
8.74
11.18
13.33
14.40
13.89
11.76
8.41
4.51
0.61
-2.95
-6.13
-8.96
-11.36
-13.12
-14.01
-13.94
-13.20
-12.41
-12.21
-13.03
-14.78
-16.92
-18.72
-19.62
-19.41
-18.24
-16.44
-14.31
-11.96
-9.39
-6.63
-3.82
-1.24
0.86
2.33
3.24
3.87
4.51
5.37
6.49
7.74
8.91
9.86
10.60
11.33
12.27
13.57
15.12
16.59
17.55
17.67
16.87
15.39
13.65
12.09
10.95
10.22
9.66
8.95
7.87
6.42
4.78
3.25
2.04
1.20
0.52
-0.31
-1.57
-3.34
-5.48
-7.65
-9.55
-10.97
-11.94
-12.60
-13.15
-13.70
-14.28
-14.83
-15.35
-15.91
-16.72
-18.03
-19.96
-22.37
-24.77
-26.49
-26.85
-25.47
-22.43
-18.26
-13.68
-9.37
-5.78
-3.10
-1.37
-0.60
-0.78
-1.72
-3.00
-3.96
-3.97
-2.72
-0.60
1.42
2.05
0.28
-4.27
-11.12
-19.18
-27.19
-34.16
-39.63
-43.62
-46.42
-48.31
-49.52
-50.18
-50.46
-50.67
-51.21
-52.52
-54.80
-58.00
-61.57
-64.71
-66.48
-66.23
-63.86
-59.90
-55.31
-51.03
-47.58
-44.87
-42.31
-39.31
-35.60
-31.51
-27.74
-24.93
-23.26
-22.26
-21.05
-18.72
-14.78
-9.40
-3.40
2.14
6.30
8.66
9.41
9.20
8.83
8.92
9.68
10.95
12.37
13.59
14.40
14.76
14.66
14.03
12.61
10.05
6.06
0.67
-5.63
-11.83
-16.64
-18.81
-17.57
-12.94
-5.70
2.89
11.59
19.55
26.56
32.83
38.73
44.37
49.49
53.56
56.10
56.94
56.36
55.00
53.51
52.32
51.43
50.55
49.31
47.50
45.16
42.61
40.20
38.13
36.35
34.57
32.37
29.38
25.47
20.80
15.80
10.97
6.74
3.22
0.20
-2.81
-6.31
-10.68
-16.00
-22.02
-28.19
-33.70
-37.61
-39.00
-37.19
-32.07
-24.12
-14.38
-4.11
5.62
14.23
21.62
28.03
33.72
38.77
43.01
46.15
47.98
48.51
48.03
47.00
45.92
45.17
44.83
44.70
44.46
43.81
42.68
41.25
39.83
38.71
37.95
37.32
36.43
34.82
32.23
28.56
23.98
18.80
13.38
8.03
2.92
-1.91
-6.53
-11.06
-15.61
-20.27
-25.13
-30.15
-35.10
-39.43
-42.28
-42.74
-40.15
-34.44
-26.17
-16.40
-6.26
3.38
12.11
19.87
26.76
32.84
38.00
42.13
45.13
47.12
48.31
48.98
49.34
49.46
49.31
48.85
48.17
47.52
47.23
47.56
48.49
49.74
50.82
51.26
50.80
49.48
47.57
45.48
43.54
41.93
40.58
39.30
37.81
35.84
33.19
29.77
25.63
20.97
16.15
11.57
7.62
4.53
2.25
0.46
-1.44
-4.16
-8.35
-14.37
-22.08
-30.80
-39.35
-46.37
-50.70
-51.73
-49.60
-45.03
-39.06
-32.61
-26.26
-20.17
-14.31
-8.63
-3.23
1.64
5.70
8.82
11.05
12.64
13.91
15.09
16.31
17.54
18.72
19.76
20.65
21.39
22.01
22.49
22.72
22.61
22.03
20.93
19.33
17.33
15.11
12.87
10.76
8.81
6.96
5.05
2.90
0.47
-2.17
-4.83
-7.30
-9.48
-11.43
-13.35
-15.44
-17.81
-20.41
-23.08
-25.61
-27.89
-29.93
-31.83
-33.72
-35.67
-37.72
-39.93
-42.37
-45.05
-47.75
-49.93
-50.80
-49.61
-45.95
-40.08
-32.87
-25.56
-19.25
-14.59
-11.62
-9.93
-8.99
-8.42
-8.07
-8.00
-8.25
-8.78
-9.44
-10.10
-10.72
-11.41
-12.36
-13.66
-15.17
-16.49
-17.05
-16.40
-14.48
-11.76
-9.07
-7.37
-7.28
-8.82
-11.40
-14.06
-15.87
-16.28
-15.26
-13.26
-10.91
-8.79
-7.18
-6.10
-5.33
-4.62
-3.81
-2.89
-1.97
-1.16
-0.53
-0.09
0.19
0.37
0.57
1.07
2.32
4.89
9.28
15.77
24.27
34.38
45.52
57.16
68.99
80.86
92.60
103.78
113.66
121.21
125.56
126.34
123.92
119.18
113.01
105.74
96.87
85.43
70.74
53.09
34.06
15.94
0.79
-10.34
-17.69
-22.38
-25.70
-28.58
-31.52
-34.82
-38.83
-43.97
-50.41
-57.85
-65.57
-72.80
-79.19
-85.11
-91.35
-98.66
-107.18
-116.32
-125.05
-132.39
-137.86
-141.60
-144.23
-146.56
-149.22
-152.60
-156.77
-161.43
-165.86
-168.84
-168.64
-163.34
-151.47
-132.63
-107.88
-79.58
-50.57
-23.32
0.80
21.50
39.05
53.51
64.36
70.74
72.23
69.50
64.33
58.93
54.95
52.73
51.42
49.64
46.42
41.83
36.86
32.80
30.49
29.84
29.99
29.87
28.82
27.00
25.17
24.28
24.82
26.57
28.69
30.14
30.24
28.89
26.55
23.82
21.07
18.33
15.38
12.03
8.33
4.58
1.12
-1.87
-4.44
-6.84
-9.34
-12.12
-15.27
-18.88
-23.03
-27.71
-32.66
-37.18
-40.22
-40.68
-37.86
-31.81
-23.43
-14.11
-5.27
2.17
7.99
12.49
16.18
19.43
22.35
24.82
26.74
28.13
29.15
29.94
30.57
30.92
30.87
30.36
29.54
28.78
28.41
28.66
29.45
30.43
31.13
31.13
30.24
28.51
26.21
23.65
21.08
18.58
16.15
13.67
11.08
8.33
5.48
2.64
-0.06
-2.54
-4.86
-7.15
-9.65
-12.56
-16.00
-19.99
-24.38
-28.84
-32.79
-35.45
-35.95
-33.59
-28.19
-20.22
-10.76
-1.09
7.71
15.10
21.10
26.03
30.21
33.73
36.51
38.45
39.57
40.06
40.13
39.95
39.51
38.72
37.52
35.95
34.15
32.32
30.58
28.99
27.45
25.82
23.93
21.69
19.07
16.17
13.15
10.20
7.48
5.02
2.78
0.61
-1.69
-4.26
-7.17
-10.42
-13.95
-17.69
-21.59
-25.55
-29.39
-32.77
-35.19
-36.08
-35.00
-31.80
-26.77
-20.50
-13.73
-7.10
-1.01
4.41
9.17
13.26
16.61
19.11
20.71
21.48
21.64
21.47
21.22
20.95
20.64
20.18
19.50
18.61
17.58
16.51
15.42
14.28
13.01
11.54
9.86
8.06
6.26
4.54
2.90
1.22
-0.63
-2.73
-5.05
-7.48
-9.88
-12.19
-14.47
-16.89
-19.63
-22.79
-26.37
-30.22
-34.07
-37.49
-39.95
-40.86
-39.76
-36.43
-31.10
-24.37
-17.03
-9.86
-3.35
2.27
7.03
11.01
14.27
16.81
18.65
19.87
20.66
21.24
21.76
22.21
22.46
22.36
21.79
20.82
19.63
18.47
17.53
16.82
16.21
15.49
14.46
13.05
11.31
9.42
7.53
5.73
4.04
2.38
0.68
-1.17
-3.20
-5.43
-7.82
-10.30
-12.78
-15.21
-17.54
-19.80
-22.07
-24.50
-27.25
-30.43
-33.97
-37.55
-40.56
-42.25
-41.92
-39.14
-33.99
-26.97
-18.93
-10.82
-3.39
2.90
7.94
11.85
14.84
17.13
18.86
20.12
21.01
21.61
22.05
22.40
22.66
22.73
22.44
21.68
20.50
19.08
17.68
16.53
15.65
14.93
14.14
13.06
11.59
9.73
7.61
5.39
3.20
1.14
-0.82
-2.79
-4.89
-7.25
-9.86
-12.60
-15.28
-17.78
-20.08
-22.35
-24.81
-27.70
-31.10
-34.92
-38.91
-42.62
-45.42
-46.61
-45.58
-42.02
-36.16
-28.70
-20.67
-13.03
-6.43
-1.05
3.25
6.71
9.43
11.29
12.12
11.82
10.52
8.58
6.46
4.55
3.02
1.84
0.77
-0.45
-2.05
-4.08
-6.51
-9.17
-11.88
-14.45
-16.74
-18.66
-20.23
-21.60
-23.02
-24.81
-27.18
-30.15
-33.47
-36.68
-39.30
-41.09
-42.12
-42.81
-43.72
-45.35
-47.91
-51.16
-54.32
-56.32
-55.95
-52.30
-45.04
-34.57
-21.95
-8.56
4.31
15.78
25.53
33.68
40.57
46.44
51.33
55.08
57.51
58.58
58.53
57.78
56.82
55.95
55.19
54.21
52.43
49.15
43.81
36.18
26.50
15.57
4.69
-4.63
-11.03
-13.72
-12.73
-8.86
-3.35
2.50
7.78
11.97
14.87
16.38
16.38
14.76
11.60
7.24
2.31
-2.50
-6.67
-10.07
-12.90
-15.61
-18.62
-22.22
-26.46
-31.16
-35.96
-40.33
-43.63
-45.19
-44.47
-41.22
-35.57
-28.06
-19.42
-10.49
-1.96
5.71
12.35
17.98
22.73
26.73
30.07
32.78
34.91
36.53
37.75
38.70
39.50
40.20
40.83
41.42
41.99
42.54
43.06
43.49
43.73
43.69
43.28
42.44
41.11
39.27
36.88
33.97
30.64
27.05
23.45
20.08
17.09
14.50
12.16
9.79
7.17
4.18
0.90
-2.46
-5.66
-8.56
-11.19
-13.72
-16.41
-19.45
-23.03
-27.32
-32.33
-37.90
-43.45
-48.04
-50.52
-49.95
-45.89
-38.65
-29.24
-18.94
-8.98
-0.18
7.13
12.95
17.49
20.93
23.40
24.98
25.79
26.00
25.83
25.47
25.11
24.84
24.72
24.76
24.96
25.26
25.59
25.80
25.74
25.23
24.19
22.61
20.59
18.32
15.99
13.72
11.49
9.20
6.68
3.83
0.63
-2.76
-6.11
-9.19
-11.91
-14.33
-16.68
-19.32
-22.61
-26.79
-31.75
-36.99
-41.57
-44.35
-44.31
-40.91
-34.30
-25.36
-15.33
-5.46
3.30
10.46
15.95
19.93
22.63
24.27
25.11
25.37
25.34
25.21
25.10
24.99
24.76
24.33
23.66
22.90
22.24
21.92
22.01
22.41
22.82
22.86
22.17
20.62
18.29
15.46
12.46
9.59
6.96
4.51
2.04
-0.67
-3.74
-7.14
-10.65
-13.96
-16.84
-19.26
-21.43
-23.79
-26.82
-30.84
-35.85
-41.39
-46.58
-50.26
-51.36
-49.14
-43.50
-35.03
-24.90
-14.43
-4.84
3.13
9.24
13.68
16.82
19.05
20.66
21.84
22.72
23.40
23.96
24.43
24.77
24.90
24.79
24.43
23.88
23.27
22.72
22.34
22.21
22.27
22.38
22.27
21.61
20.14
17.78
14.69
11.26
7.88
4.82
2.10
-0.46
-3.11
-6.02
-9.15
-12.34
-15.36
-18.01
-20.26
-22.17
-23.93
-25.79
-28.10
-31.16
-35.15
-39.91
-44.83
-48.87
-50.85
-49.82
-45.45
-38.14
-28.92
-19.06
-9.71
-1.60
4.99
10.05
13.73
16.15
17.51
18.04
18.13
18.15
18.42
19.02
19.81
20.55
20.98
21.02
20.75
20.39
20.16
20.17
20.37
20.56
20.50
19.97
18.82
17.05
14.75
12.16
9.52
7.08
4.95
3.08
1.23
-0.90
-3.50
-6.63
-10.07
-13.47
-16.47
-18.92
-20.92
-22.82
-25.13
-28.27
-32.40
-37.29
-42.29
-46.42
-48.62
-48.06
-44.37
-37.84
-29.32
-19.99
-11.04
-3.35
2.63
6.91
9.74
11.54
12.66
13.40
13.94
14.43
14.94
15.50
16.08
16.61
17.03
17.31
17.45
17.49
17.50
17.57
17.75
18.07
18.46
18.75
18.77
18.31
17.28
15.69
13.69
11.52
9.44
7.61
6.06
4.64
3.13
1.27
-1.11
-3.99
-7.18
-10.35
-13.22
-15.65
-17.70
-19.58
-21.56
-23.91
-26.83
-30.45
-34.74
-39.37
-43.68
-46.65
-47.28
-44.83
-39.25
-31.19
-21.84
-12.48
-4.13
2.68
7.92
11.83
14.72
16.82
18.26
19.13
19.53
19.60
19.50
19.39
19.35
19.35
19.31
19.14
18.80
18.39
18.05
17.93
18.06
18.34
18.51
18.27
17.41
15.86
13.72
11.28
8.86
6.70
4.92
3.44
2.06
0.56
-1.17
-3.15
-5.31
-7.54
-9.79
-12.05
-14.37
-16.82
-19.48
-22.50
-26.03
-30.09
-34.48
-38.67
-41.79
-42.90
-41.26
-36.66
-29.50
-20.66
-11.23
-2.25
5.58
11.91
16.66
19.95
21.95
22.88
22.98
22.50
21.75
21.00
20.47
20.24
20.25
20.39
20.51
20.57
20.58
20.65
20.81
20.98
20.92
20.31
18.91
16.62
13.60
10.17
6.69
3.40
0.36
-2.55
-5.51
-8.59
-11.74
-14.74
-17.37
-19.46
-21.01
-22.19
-23.28
-24.63
-26.64
-29.61
-33.65
-38.50
-43.42
-47.23
-48.66
-46.80
-41.43
-33.24
-23.53
-13.85
-5.39
1.25
6.08
9.50
11.94
13.73
14.99
15.80
16.27
16.59
16.95
17.48
18.16
18.84
19.34
19.55
19.48
19.33
19.34
19.70
20.39
21.18
21.66
21.45
20.32
18.31
15.71
12.92
10.28
8.01
6.12
4.42
2.64
0.53
-2.05
-5.07
-8.32
-11.50
-14.36
-16.73
-18.67
-20.35
-22.09
-24.20
-26.97
-30.54
-34.76
-39.06
-42.50
-43.95
-42.49
-37.78
-30.25
-20.96
-11.27
-2.42
4.87
10.37
14.29
16.97
18.76
19.91
20.60
21.00
21.33
21.73
22.28
22.92
23.51
23.88
23.96
23.75
23.37
22.98
22.69
22.54
22.44
22.24
21.74
20.75
19.16
17.01
14.49
11.89
9.52
7.59
6.09
4.84
3.55
1.91
-0.24
-2.94
-6.01
-9.22
-12.28
-14.98
-17.22
-19.06
-20.70
-22.42
-24.57
-27.40
-31.00
-35.17
-39.35
-42.72
-44.32
-43.36
-39.52
-33.04
-24.77
-15.81
-7.27
0.06
5.81
10.03
12.95
14.90
16.12
16.81
17.10
17.09
16.94
16.76
16.66
16.67
16.77
16.89
17.02
17.18
17.41
17.76
18.15
18.43
18.34
17.71
16.41
14.53
12.26
9.81
7.35
4.92
2.45
-0.15
-2.89
-5.70
-8.43
-10.90
-13.05
-14.96
-16.81
-18.86
-21.37
-24.56
-28.47
-32.89
-37.31
-40.90
-42.73
-42.01
-38.39
-32.13
-24.06
-15.29
-6.90
0.40
6.34
11.01
14.67
17.51
19.60
20.90
21.38
21.17
20.50
19.74
19.22
19.11
19.40
19.92
20.44
20.81
21.00
21.05
21.04
20.96
20.73
20.20
19.22
17.71
15.72
13.44
11.08
8.83
6.76
4.84
2.92
0.86
-1.46
