1515733973.00
64.000000
-0.00
-0.00
-0.00
-0.00
-0.00
-0.00
-0.00
-0.00
-0.00
-0.00
0.00
0.01
0.01
-0.00
-0.03
-0.05
-0.05
0.00
0.13
0.36
0.66
1.01
1.37
1.72
2.06
2.40
2.79
3.24
3.80
4.42
5.06
5.67
6.21
6.69
7.15
7.67
8.30
9.14
10.10
11.08
11.94
12.62
13.14
13.64
14.34
15.43
17.16
19.39
21.86
24.26
26.40
28.32
30.29
32.76
36.05
40.60
46.11
52.05
57.80
62.94
67.45
71.73
76.51
82.37
89.97
98.93
108.47
117.61
125.60
132.23
138.00
144.25
149.87
157.45
167.85
181.27
196.34
209.73
216.67
212.19
192.98
158.52
111.81
57.23
-0.69
-59.00
-116.82
-174.65
-233.10
-291.86
-349.47
-403.60
-452.55
-495.27
-531.41
-560.74
-582.67
-596.27
-600.47
-594.55
-577.94
-550.28
-510.80
-458.45
-392.70
-314.58
-227.36
-136.32
-47.55
33.67
103.88
161.82
207.72
242.44
266.81
281.66
288.08
287.70
282.58
274.72
265.58
255.82
245.43
233.99
221.19
207.13
192.33
177.58
163.59
150.73
138.85
127.46
116.00
104.20
92.25
80.74
70.35
61.51
54.14
47.70
41.47
34.83
27.62
20.14
13.14
7.66
4.55
4.16
6.22
9.59
12.63
13.68
11.72
6.77
-0.12
-7.34
-13.41
-17.47
-19.47
-19.85
-19.24
-18.09
-16.66
-15.08
-13.49
-12.01
-10.69
-9.53
-8.39
-7.18
-5.86
-4.49
-3.23
-2.28
-1.80
-1.82
-2.24
-2.80
-3.20
-3.19
-2.70
-1.88
-1.01
-0.38
-0.12
-0.18
-0.42
-0.71
-1.00
-1.32
-1.68
-2.03
-2.28
-2.36
-2.27
-2.14
-2.10
-2.21
-2.46
-2.74
-2.92
-2.92
-2.73
-2.38
-1.88
-1.28
-0.62
0.02
0.56
0.91
1.06
1.05
0.97
0.90
0.91
1.00
1.17
1.39
1.62
1.82
1.89
1.79
1.51
1.13
0.81
0.71
0.89
1.30
1.78
2.14
2.30
2.28
2.20
2.13
2.05
1.83
1.30
0.42
-0.78
-2.10
-3.33
-4.29
-4.91
-5.18
-5.13
-4.78
-4.19
-3.46
-2.78
-2.34
-2.32
-2.73
-3.45
-4.20
-4.70
-4.76
-4.35
-3.57
-2.59
-1.57
-0.62
0.16
0.72
0.98
0.91
0.51
-0.09
-0.72
-1.18
-1.35
-1.21
-0.87
-0.49
-0.21
-0.06
0.03
0.16
0.45
0.85
1.25
1.47
1.40
1.04
0.57
0.19
0.11
0.37
0.87
1.36
1.58
1.29
0.40
-0.94
-2.46
-3.82
-4.76
-5.16
-5.12
-4.85
-4.63
-4.66
-4.87
-5.12
-5.22
-5.03
-4.58
-3.98
-3.43
-3.07
-2.97
-2.86
-2.44
-1.40
0.39
2.90
5.90
9.06
11.94
14.21
15.92
17.34
18.95
21.23
24.38
28.22
32.12
35.21
35.49
31.57
22.66
8.79
-9.41
-30.64
-52.34
-70.91
-82.53
-84.74
-77.22
-62.40
-44.14
-26.08
-10.33
2.76
13.84
23.43
31.33
37.37
40.74
41.22
39.29
35.90
31.94
27.78
23.26
17.53
11.01
4.29
-1.86
-6.68
-9.76
-11.09
-11.07
-10.25
-9.28
-8.28
-7.36
-6.50
-5.56
-4.43
-3.08
-1.56
-0.06
1.22
2.20
2.72
2.77
2.37
1.63
0.58
-0.75
-2.29
-3.88
-5.28
-6.21
-6.49
-6.18
-5.55
-5.02
-4.95
-5.43
-6.28
-7.09
-7.45
-7.13
-6.07
-4.47
-2.65
-0.96
0.28
0.85
0.72
0.02
-0.99
-1.95
-2.51
-2.39
-1.42
0.49
3.29
6.80
10.65
14.25
16.90
17.99
17.28
15.07
12.11
9.39
7.71
7.48
8.54
10.38
12.25
13.41
13.27
11.43
7.87
2.91
-2.72
-8.11
-12.37
-14.95
-15.72
-14.92
-13.08
-10.76
-8.46
-6.56
-5.24
-4.51
-4.23
-4.14
-4.00
-3.70
-3.35
-3.12
-3.17
-3.49
-3.92
-4.19
-4.16
-3.81
-3.28
-2.78
-2.41
-2.18
-2.00
-1.77
-1.48
-1.21
-1.07
-1.11
-1.25
-1.33
-1.22
-0.86
-0.33
0.20
0.53
0.57
0.28
-0.22
-0.77
-1.21
-1.41
-1.33
-1.03
-0.65
-0.36
-0.29
-0.46
-0.78
-1.10
-1.27
-1.24
-1.04
-0.71
-0.34
0.02
0.35
0.63
0.85
1.01
1.15
1.34
1.58
1.87
2.12
2.27
2.31
2.29
2.36
2.61
3.09
3.71
4.35
4.84
5.10
5.13
4.99
4.79
4.62
4.50
4.34
4.01
3.41
2.52
1.44
0.37
-0.53
-1.18
-1.62
-1.96
-2.25
-2.51
-2.65
-2.62
-2.41
-2.13
-1.92
-1.86
-1.96
-2.16
-2.40
-2.60
-2.72
-2.73
-2.57
-2.25
-1.79
-1.29
-0.82
-0.42
-0.03
0.47
1.14
1.98
2.84
3.54
3.88
3.81
3.41
2.87
2.43
2.30
2.58
3.25
4.22
5.30
6.27
6.87
6.94
6.38
5.28
3.92
2.69
2.01
2.09
2.92
4.25
5.74
7.10
8.22
9.14
9.96
10.73
11.37
11.73
11.67
11.16
10.32
9.36
8.58
8.25
8.55
9.54
11.07
12.80
14.24
14.92
14.53
13.03
10.63
7.72
4.72
1.93
-0.43
-2.26
-3.56
-4.34
-4.67
-4.63
-4.35
-4.00
-3.78
-3.88
-4.42
-5.47
-6.90
-8.51
-10.06
-11.30
-12.14
-12.60
-12.77
-12.72
-12.48
-12.00
-11.28
-10.43
-9.67
-9.28
-9.45
-10.20
-11.37
-12.66
-13.80
-14.62
-15.12
-15.42
-15.68
-15.97
-16.32
-16.66
-16.94
-17.19
-17.44
-17.79
-18.27
-18.88
-19.50
-20.02
-20.33
-20.40
-20.26
-20.02
-19.77
-19.56
-19.37
-19.11
-18.67
-17.94
-16.87
-15.46
-13.78
-11.90
-9.88
-7.78
-5.69
-3.72
-2.03
-0.70
0.28
1.04
1.77
2.64
3.71
4.95
6.25
7.52
8.68
9.74
10.71
11.59
12.32
12.84
13.07
13.00
12.70
12.32
12.00
11.79
11.65
11.45
11.03
10.35
9.50
8.69
8.11
7.83
7.77
7.74
7.56
7.18
6.66
6.14
5.70
5.35
5.04
4.70
4.34
4.03
3.87
3.90
4.08
4.34
4.54
4.62
4.55
4.38
4.16
3.94
3.80
3.76
3.84
4.02
4.23
4.39
4.41
4.25
3.94
3.57
3.27
3.11
3.14
3.32
3.57
3.78
3.91
3.86
3.59
3.06
2.24
1.13
-0.23
-1.78
-3.46
-5.22
-7.03
-8.83
-10.55
-12.05
-13.23
-13.99
-14.34
-14.32
-14.03
-13.55
-12.97
-12.31
-11.61
-10.87
-10.10
-9.32
-8.56
-7.85
-7.24
-6.76
-6.43
-6.21
-6.03
-5.75
-5.23
-4.39
-3.25
-1.94
-0.62
0.50
1.34
1.91
2.35
2.81
3.41
4.17
4.95
5.62
6.10
6.33
6.36
6.27
6.19
6.20
6.35
6.62
7.07
7.70
8.49
9.34
10.12
10.73
11.11
11.27
11.31
11.50
12.08
13.05
14.19
15.18
15.84
16.10
16.05
15.82
15.91
16.62
17.89
19.28
20.29
20.61
20.24
19.36
18.23
17.67
18.24
19.92
22.09
24.01
25.27
25.83
25.99
26.21
27.74
31.63
38.03
46.11
54.48
61.76
66.91
69.40
64.63
50.81
30.09
7.70
-11.53
-25.65
-35.24
-41.85
-46.76
-50.24
-51.43
-49.37
-44.08
-36.90
-29.77
-24.30
-21.27
-20.46
-20.90
-20.59
-17.88
-12.30
-4.67
3.61
11.24
17.00
18.53
13.13
-0.75
-22.19
-47.31
-70.30
-85.35
-88.66
-80.09
-63.26
-43.77
-26.61
-14.41
-7.11
-3.02
-0.35
1.65
2.62
1.84
-0.56
-3.12
-3.77
-1.05
4.84
12.00
17.72
19.75
17.44
11.98
5.75
1.17
-0.45
0.74
3.44
5.95
6.93
5.86
3.16
-0.13
-2.82
-4.07
-3.64
-2.00
-0.10
1.00
0.58
-1.45
-4.57
-7.84
-10.21
-10.80
-9.10
-5.03
1.04
8.21
15.33
21.18
24.84
25.83
24.32
20.95
16.64
12.32
8.69
6.20
5.03
5.08
5.95
7.04
7.65
7.25
5.69
3.21
0.38
-2.16
-3.97
-4.89
-5.10
-4.95
-4.79
-4.89
-5.34
-6.16
-7.34
-8.85
-10.63
-12.51
-14.15
-15.17
-15.21
-14.19
-12.29
-9.97
-7.75
-6.05
-5.04
-4.65
-4.64
-4.78
-4.95
-5.11
-5.26
-5.34
-5.24
-4.78
-3.93
-2.76
-1.47
-0.34
0.42
0.77
0.83
0.84
1.02
1.44
2.01
2.57
2.93
2.98
2.74
2.33
1.91
1.63
1.59
1.78
2.14
2.52
2.78
2.81
2.54
2.01
1.35
0.75
0.37
0.32
0.55
0.89
1.05
0.84
0.22
-0.59
-1.27
-1.51
-1.22
-0.59
0.03
0.32
0.17
-0.17
-0.24
0.38
1.86
3.97
6.18
7.86
8.57
8.07
6.10
2.67
-2.12
-7.93
-13.99
-19.01
-21.66
-21.03
-17.19
-11.17
-4.48
1.40
5.66
8.19
9.38
9.65
9.25
8.28
7.01
6.05
6.18
8.04
11.64
16.25
20.48
22.83
22.33
18.93
13.57
7.75
2.91
-0.09
-1.22
-1.25
-1.28
-2.30
-4.79
-8.56
-12.79
-16.36
-18.18
-17.66
-14.72
-9.90
-4.10
1.67
6.57
10.06
11.93
12.21
11.30
9.72
8.01
6.59
5.67
5.15
4.73
4.03
2.81
1.07
-1.03
-3.32
-5.63
-7.91
-10.03
-11.80
-12.89
-13.05
-12.08
-10.10
-7.44
-4.50
-1.51
1.41
4.09
6.04
6.25
3.51
-3.02
-13.04
-24.77
-35.36
-41.83
-42.25
-36.44
-25.83
-12.65
0.91
13.46
24.16
32.43
37.78
39.83
38.64
34.85
29.44
23.23
16.53
9.19
1.20
-6.83
-13.67
-17.97
-19.05
-17.42
-14.55
-12.06
-10.94
-11.02
-11.11
-9.72
-5.73
0.98
9.51
18.16
25.01
28.49
27.96
23.80
17.64
11.44
6.74
4.17
3.26
2.76
1.10
-2.93
-9.79
-18.84
-28.47
-36.33
-39.82
-36.98
-27.26
-12.06
5.59
21.85
33.24
37.65
34.83
26.26
14.28
1.89
-8.72
-16.28
-20.36
-21.15
-19.13
-14.96
-9.46
-3.65
1.37
4.65
5.74
4.84
2.75
0.52
-0.96
-1.36
-0.90
-0.11
0.46
0.56
0.33
0.07
0.07
0.36
0.74
1.09
1.50
2.40
4.23
7.14
10.62
13.55
14.57
12.83
8.40
2.33
-3.77
-8.50
-11.25
-12.25
-12.28
-12.09
-11.95
-11.86
-11.76
-11.80
-12.28
-13.31
-14.55
-15.13
-14.20
-11.28
-6.71
-1.54
2.84
5.30
5.39
3.43
0.14
-3.61
-7.13
-10.02
-11.90
-12.32
-10.65
-6.37
0.57
9.40
18.66
26.75
32.56
35.86
37.22
37.48
37.21
36.39
34.69
31.66
27.44
22.62
17.92
13.72
9.85
5.87
1.43
-3.38
-7.96
-11.54
-13.58
-14.09
-13.59
-12.85
-12.44
-12.52
-12.85
-13.03
-12.74
-12.01
-11.10
-10.32
-9.88
-9.72
-9.65
-9.43
-8.93
-8.20
-7.36
-6.50
-5.68
-4.92
-4.24
-3.78
-3.70
-4.11
-5.00
-6.15
-7.31
-8.21
-8.73
-8.92
-8.90
-8.85
-8.88
-8.93
-8.93
-8.82
-8.52
-7.89
-6.67
-4.63
-1.76
1.53
4.45
6.19
6.43
5.56
4.52
4.32
5.43
7.55
9.88
11.65
12.53
12.75
12.60
12.14
11.15
9.31
6.58
3.42
0.61
-1.12
-1.38
-0.29
1.56
3.47
4.81
5.16
4.46
2.97
1.19
-0.27
-0.90
-0.51
0.72
2.22
3.28
3.33
2.19
0.09
-2.41
-4.65
-6.09
-6.47
-5.76
-4.22
-2.24
-0.35
0.91
1.22
0.66
-0.19
-0.35
1.01
4.07
8.12
11.70
13.21
11.66
7.17
0.84
-5.77
-11.40
-15.54
-18.32
-20.16
-21.36
-21.84
-21.31
-19.64
-17.03
-13.74
-10.43
-7.68
-5.72
-4.42
-3.42
-2.37
-1.20
-0.07
0.66
0.64
-0.23
-1.73
-3.35
-4.52
-4.76
-3.90
-2.08
0.30
2.69
4.65
5.95
6.58
6.70
6.50
6.16
5.75
5.33
4.87
4.41
3.96
3.56
3.18
2.78
2.32
1.80
1.24
0.70
0.19
-0.33
-0.88
-1.48
-2.09
-2.66
-3.14
-3.48
-3.69
-3.81
-3.85
-3.78
-3.56
-3.16
-2.68
-2.30
-2.20
-2.51
-3.28
-4.45
-5.88
-7.36
-8.74
-10.00
-11.19
-12.16
-12.81
-13.10
-13.18
-13.31
-13.76
-14.71
-16.18
-18.01
-19.44
-19.84
-19.03
-17.36
-15.44
-13.59
-11.71
-9.33
-5.99
-0.90
6.09
14.29
22.53
29.85
36.04
41.52
46.83
52.23
58.37
65.49
73.25
80.91
87.85
93.87
99.19
104.07
103.14
93.12
74.43
51.36
28.89
9.93
-5.05
-16.98
-27.26
-36.95
-45.49
-51.65
-54.27
-53.03
-48.62
-42.43
-36.13
-31.13
-28.09
-26.05
-23.60
-19.79
-14.64
-9.35
-5.23
-3.01
-2.70
-3.85
-5.54
-7.13
-8.45
-9.81
-11.67
-14.09
-16.53
-18.29
-19.10
-19.10
-18.76
-18.45
-18.45
-18.79
-19.28
-19.28
-18.21
-16.39
-14.74
-14.07
-14.27
-14.40
-13.07
-9.12
-1.85
8.04
17.70
23.17
20.33
8.16
-10.43
-29.91
-44.70
-51.07
-46.33
-29.38
-1.30
34.99
74.68
110.11
133.44
134.88
112.73
76.92
42.33
18.69
6.33
-0.44
-7.63
-17.46
-28.09
-36.18
-39.68
-39.99
-40.72
-44.61
-51.45
-58.52
-62.85
-60.97
-54.31
-47.06
-43.31
-44.35
-47.66
-48.59
-43.10
-29.97
-11.10
9.67
28.79
43.64
52.87
56.15
53.67
45.86
33.56
18.75
4.74
-4.34
-5.49
1.27
12.51
22.79
27.64
25.56
18.60
11.18
7.79
10.42
17.40
24.33
26.24
20.58
8.47
-6.02
-18.02
-24.16
-23.87
-19.27
-13.79
-10.28
-9.75
-11.40
-13.57
-14.86
-14.89
-14.17
-13.46
-13.15
-12.86
-11.54
-8.24
-2.78
3.95
10.07
13.53
12.98
8.47
1.58
-5.14
-9.24
-9.39
-5.80
-0.05
5.69
9.59
10.68
9.11
5.81
2.00
-1.34
-3.61
-4.70
-4.76
-3.86
-2.27
-0.35
1.31
2.03
1.16
-1.67
-6.29
-11.86
-17.12
-20.77
-21.88
-20.26
-16.35
-11.05
-5.27
0.29
5.30
9.57
12.91
15.03
15.65
14.67
12.33
9.24
6.17
3.85
2.71
2.69
3.43
4.33
4.86
4.71
3.85
2.46
0.84
-0.74
-2.13
-3.23
-3.99
-4.37
-4.35
-4.00
-3.51
-3.11
-3.01
-3.27
-3.79
-4.35
-4.73
-4.88
-4.88
-4.88
-4.99
-5.14
-5.15
-4.80
-4.00
-2.86
-1.65
-0.71
-0.32
-0.63
-1.61
-3.06
-4.54
-5.34
-4.62
-1.63
3.79
10.98
18.51
24.55
27.59
27.00
23.23
17.65
11.89
7.35
4.75
4.09
4.85
6.25
7.58
8.29
8.04
6.68
4.26
0.91
-3.03
-7.10
-10.70
-13.31
-14.56
-14.44
-13.29
-11.71
-10.35
-9.62
-9.65
-10.28
-11.15
-11.85
-12.06
-11.65
-10.64
-9.28
-7.83
-6.58
-5.72
-5.35
-5.47
-6.16
-7.50
-9.56
-12.19
-14.85
-16.74
-17.03
-15.20
-11.21
-5.61
0.58
6.15
10.03
11.66
11.03
8.60
5.14
1.75
-0.60
-1.31
-0.28
2.06
5.30
9.05
12.90
16.54
19.92
23.06
25.91
28.38
30.13
31.24
31.83
31.86
31.20
30.00
28.48
26.89
25.50
24.44
24.38
25.96
29.35
31.80
30.80
25.20
15.94
6.87
-1.29
-8.22
-13.82
-18.50
-22.43
-25.61
-28.04
-29.83
-31.19
-32.61
-33.97
-35.03
-35.50
-35.21
-33.81
-31.16
-27.41
-23.05
-19.02
-15.84
-13.82
-13.02
-13.22
-13.84
-14.17
-13.62
-11.92
-9.25
-5.96
-2.60
0.14
1.64
1.69
0.58
-0.92
-1.84
-1.37
0.90
4.71
9.08
12.68
14.32
13.34
9.85
4.67
-0.97
-5.86
-9.17
-10.64
-10.54
-9.38
-7.68
-5.78
-3.81
-1.80
0.22
2.13
3.80
5.16
6.24
7.10
7.79
8.25
8.33
7.96
7.18
6.25
5.47
5.11
5.22
5.68
6.25
6.71
6.96
7.00
6.87
6.54
5.93
4.96
3.64
2.11
0.63
-0.57
-1.37
-1.83
-2.11
-2.35
-2.60
-2.74
-2.54
-1.82
-0.48
1.40
3.62
5.89
7.95
9.66
10.98
12.07
13.12
14.28
15.53
16.66
17.41
17.63
17.43
17.14
17.10
17.35
17.51
16.89
14.85
11.16
6.17
0.71
-4.22
-7.87
-9.93
-10.55
-10.15
-9.22
-8.08
-6.95
-5.88
-4.91
-4.12
-3.54
-3.21
-3.06
-2.95
-2.70
-2.23
-1.48
-0.55
0.48
1.51
2.49
3.37
4.12
4.65
4.83
4.58
3.85
2.67
1.19
-0.37
-1.77
-2.82
-3.44
-3.70
-3.82
-3.97
-4.27
-4.62
-4.84
-4.75
-4.33
-3.73
-3.24
-3.08
-3.35
-3.98
-4.80
-5.66
-6.49
-7.29
-8.06
-8.76
-9.26
-9.45
-9.29
-8.86
-8.34
-7.91
-7.72
-7.81
-8.11
-8.48
-8.74
-8.72
-8.30
-7.48
-6.35
-5.11
-3.95
-3.07
-2.59
-2.52
-2.74
-3.04
-3.20
-3.09
-2.75
-2.46
-2.58
-3.42
-5.04
-7.18
-9.30
-10.82
-11.29
-10.57
-8.83
-6.47
-3.94
-1.60
0.26
1.53
2.18
2.30
2.06
1.69
1.42
1.43
1.81
2.52
3.44
4.36
5.08
5.51
5.68
5.72
5.84
6.20
6.84
7.65
8.43
8.98
9.16
9.01
8.66
8.30
8.08
8.10
8.37
8.85
9.47
10.13
10.68
11.01
10.97
10.54
9.77
8.84
7.98
7.38
7.09
7.01
6.87
6.35
5.18
3.28
0.80
-1.89
-4.30
-5.97
-6.64
-6.30
-5.20
-3.76
-2.37
-1.29
-0.59
-0.21
-0.01
0.10
0.17
0.14
-0.06
-0.52
-1.34
-2.61
-4.37
-6.56
-9.02
-11.44
-13.51
-15.00
-15.86
-16.21
-16.24
-16.13
-15.93
-15.59
-14.99
-13.98
-12.53
-10.78
-9.01
-7.57
-6.76
-6.67
-7.10
-7.63
-7.84
-7.44
-6.47
-5.22
-4.02
-3.11
-2.47
-1.87
-1.05
0.10
1.52
2.98
4.28
5.31
6.10
6.76
7.37
7.94
8.35
8.53
8.43
8.12
7.74
7.39
7.07
6.66
5.96
4.82
3.18
1.15
-1.04
-3.12
-4.86
-6.10
-6.78
-6.94
-6.66
-6.01
-5.08
-3.97
-2.80
-1.74
-0.96
-0.57
-0.58
-0.78
-0.87
-0.55
0.34
1.71
3.27
4.64
5.52
5.76
5.38
4.47
3.12
1.43
-0.42
-2.19
-3.57
-4.32
-4.37
-3.88
-3.15
-2.49
-2.08
-1.95
-1.96
-1.94
-1.71
-1.20
-0.37
0.75
2.08
3.49
4.87
6.09
7.11
7.92
8.57
9.06
9.37
9.48
9.39
9.20
9.04
9.03
9.24
9.60
10.00
10.30
10.42
10.32
9.97
9.35
8.42
7.13
5.47
3.48
1.24
-1.14
-3.53
-5.81
-7.88
-9.63
-10.97
-11.79
-12.01
-11.57
-10.47
-8.78
-6.70
-4.51
-2.53
-1.04
-0.17
0.15
0.12
0.08
0.31
0.98
2.06
3.30
4.39
5.08
5.28
5.08
4.63
4.02
3.21
2.06
0.52
-1.32
-3.10
-4.36
-4.74
-4.20
-3.08
-1.97
-1.45
-1.81
-2.91
-4.28
-5.29
-5.44
-4.54
-2.72
-0.28
2.41
4.88
6.57
6.88
5.44
2.39
-1.44
-4.72
-6.18
-5.19
-2.15
1.73
5.05
6.88
7.13
6.41
5.54
5.00
4.74
4.38
3.53
2.07
0.23
-1.65
-3.29
-4.59
-5.72
-6.92
-8.34
-9.95
-11.46
-12.44
-12.40
-11.06
-8.43
-4.95
-1.29
1.83
3.88
4.81
4.95
4.96
5.45
6.73
8.64
10.63
11.95
11.99
10.56
7.95
4.82
1.97
0.05
-0.65
-0.20
1.01
2.48
3.82
4.77
5.23
5.16
4.51
3.20
1.23
-1.27
-3.93
-6.26
-7.76
-8.15
-7.47
-6.09
-4.50
-3.19
-2.42
-2.16
-2.14
-2.02
-1.50
-0.46
0.99
2.58
4.02
5.05
5.62
5.80
5.74
5.55
5.28
4.90
4.36
3.66
2.88
2.08
1.31
0.51
-0.42
-1.57
-2.91
-4.29
-5.49
-6.35
-6.81
-6.97
-6.94
-6.80
-6.52
-6.00
-5.10
-3.80
-2.22
-0.57
0.95
2.22
3.22
3.99
4.59
5.00
5.25
5.27
5.08
4.72
4.28
3.86
3.50
3.22
3.00
2.89
2.74
2.56
2.37
2.24
2.24
2.39
2.65
2.90
3.29
3.50
3.59
3.67
3.85
4.23
4.80
5.55
6.46
7.89
9.44
11.09
12.75
14.23
15.34
15.88
15.82
15.23
14.83
14.39
14.19
14.34
14.81
15.42
15.91
16.02
12.58
9.16
5.08
0.35
-4.89
-10.33
-15.57
-20.21
-23.95
-26.69
-28.06
-28.74
-28.86
-28.48
-27.56
-26.06
-24.00
-21.52
-18.80
-15.68
-12.66
-9.81
-7.14
-4.67
-2.45
-0.49
1.19
2.66
4.27
5.90
7.61
9.38
11.14
12.75
14.06
14.94
15.28
15.19
14.68
13.99
13.41
13.14
13.17
13.32
13.27
12.73
11.63
9.99
8.05
6.08
4.31
2.86
1.71
0.81
0.03
-0.70
-1.45
-2.23
-2.99
-3.70
-4.36
-5.05
-5.87
-6.92
-8.17
-9.46
-10.54
-11.16
-11.22
-10.80
-10.11
-9.41
-8.84
-8.44
-8.10
-7.65
-6.97
-5.94
-4.56
-2.88
-1.05
0.78
2.42
3.73
4.65
5.23
5.57
5.79
5.99
6.21
6.47
6.77
7.10
7.50
7.98
8.52
9.07
9.52
9.78
9.80
9.61
9.26
8.85
8.42
7.99
7.54
7.12
6.76
6.52
6.39
6.31
6.21
6.05
5.84
5.68
5.67
5.88
6.24
6.67
7.02
7.20
7.16
6.94
6.63
6.27
5.94
5.64
5.34
5.01
4.62
4.16
3.58
2.75
1.54
-0.22
-2.61
-5.59
-9.00
-12.58
-16.05
-19.18
-21.85
-24.06
-25.87
-27.38
-28.68
-29.75
-30.58
-31.10
-31.28
-31.15
-30.80
-30.32
-29.77
-29.17
-28.52
-27.80
-27.04
-26.27
-25.51
-24.77
-24.04
-23.25
-22.33
-21.17
-19.68
-17.78
-15.52
-13.07
-10.66
-8.52
-6.77
-5.40
-4.25
-3.17
-2.01
-0.71
0.68
2.10
3.46
4.74
5.87
6.79
7.46
7.90
8.13
8.21
8.20
8.23
8.38
8.67
9.01
9.25
9.33
9.24
9.02
8.79
8.75
9.06
9.70
10.48
11.17
11.63
11.78
11.67
11.43
11.38
11.89
13.16
15.18
17.70
20.42
22.97
25.04
25.55
23.79
19.99
15.24
10.75
7.25
5.01
3.97
3.86
4.19
4.63
4.97
5.05
4.80
4.31
3.83
3.65
4.13
5.47
7.68
10.35
12.65
13.68
12.86
10.18
6.19
1.76
-2.30
-5.44
-7.46
-8.60
-9.26
-9.76
-10.15
-10.34
-10.25
-9.82
-9.36
-8.61
-7.33
-5.33
-2.55
0.90
4.69
8.27
11.18
13.16
14.31
14.80
14.80
14.43
13.79
12.91
11.73
10.22
8.39
6.18
3.76
1.00
-2.28
-6.14
-10.47
-15.26
-20.32
-25.37
-30.10
-34.31
-38.01
-41.27
-44.09
-46.36
-48.15
-49.32
-49.53
-48.39
-45.74
-41.69
-36.50
-30.47
-22.29
-12.26
-2.00
6.43
11.87
14.61
15.84
16.83
18.32
20.24
21.78
22.28
21.66
20.42
19.21
18.35
17.73
16.97
15.77
13.95
11.88
10.22
9.60
10.20
11.72
13.54
15.03
15.89
15.98
15.48
14.68
13.80
12.87
11.75
10.38
8.60
6.50
4.28
2.25
0.70
-0.20
-0.42
-0.09
0.58
1.34
1.96
2.19
1.83
0.72
-1.18
-3.72
-6.58
-9.22
-11.10
-11.80
-11.19
-9.40
-6.82
-3.95
-1.21
1.13
2.99
4.45
5.80
7.28
9.07
11.11
13.11
14.60
15.04
13.90
10.95
6.37
0.70
-4.75
-8.87
-11.01
-11.35
-10.37
-8.80
-7.32
-6.31
-5.84
-5.73
-5.83
-6.06
-6.37
-6.69
-6.85
-6.61
-5.75
-4.23
-2.19
-0.03
1.83
3.12
3.81
4.05
4.01
3.83
3.59
3.26
2.76
2.02
1.01
-0.17
-1.46
-2.78
-4.08
-5.32
-6.42
-7.28
-7.80
-7.87
-7.50
-6.79
-5.95
-5.18
-4.60
-4.19
-3.83
-3.37
-2.77
-2.10
-1.52
-1.17
-1.10
-1.21
-1.37
-1.44
-1.40
-1.28
-1.16
-1.06
-0.97
-0.79
-0.50
-0.10
0.29
0.52
0.46
0.12
-0.39
-0.85
-1.01
-0.76
-0.11
0.79
1.70
2.42
2.86
3.01
2.99
2.91
2.90
2.98
3.14
3.31
3.38
3.30
3.05
2.65
2.23
1.90
1.74
1.77
1.92
2.08
2.13
2.01
1.66
1.12
0.40
-0.43
-1.27
-1.99
-2.42
-2.42
-1.96
-1.11
-0.05
0.96
1.76
2.24
2.42
2.41
2.29
2.14
1.99
1.81
1.58
1.31
1.02
0.75
0.57
0.50
0.54
0.64
0.76
0.84
0.86
0.81
0.67
0.42
0.07
-0.38
-0.86
-1.32
-1.70
-1.97
-2.13
-2.18
-2.11
-1.90
-1.53
-0.98
-0.28
0.51
1.30
1.98
2.45
2.64
2.55
2.25
1.85
1.45
1.13
0.89
0.75
0.71
0.77
0.92
1.12
1.26
1.25
1.04
0.67
0.23
-0.16
-0.42
-0.56
-0.66
-0.80
-1.05
-1.40
-1.79
-2.12
-2.29
-2.23
-1.91
-1.36
-0.64
0.15
0.89
1.48
1.85
2.04
2.10
2.12
2.16
2.21
2.25
2.26
2.25
2.23
2.26
2.33
2.40
2.40
2.25
1.93
1.46
0.91
0.37
-0.06
-0.34
-0.41
-0.29
-0.05
0.20
0.35
0.27
-0.10
-0.72
-1.48
-2.23
-2.76
-2.93
-2.68
-2.05
-1.20
-0.35
0.31
0.71
0.90
1.02
1.19
1.45
1.78
2.08
2.31
2.47
2.61
2.80
3.03
3.22
3.26
3.10
2.78
2.40
2.10
1.96
1.95
1.98
1.92
1.64
1.15
0.51
-0.13
-0.60
-0.87
-0.97
-1.03
-1.18
-1.43
-1.77
-2.08
-2.28
-2.35
-2.33
-2.26
-2.14
-1.94
-1.59
-1.06
-0.39
0.30
0.88
1.23
1.31
1.17
0.95
0.79
0.79
0.95
1.19
1.37
1.39
1.24
1.00
0.78
0.65
0.58
0.50
0.31
0.05
-0.19
-0.28
-0.19
0.01
0.13
0.02
-0.39
-1.00
-1.63
-2.11
-2.37
-2.45
-2.42
-2.37
-2.30
-2.15
-1.87
-1.42
-0.87
-0.31
0.12
0.34
0.34
0.19
0.03
-0.02
0.13
0.45
0.82
1.13
1.30
1.31
1.23
1.14
1.09
1.08
1.07
1.02
0.92
0.77
0.59
0.40
0.18
-0.05
-0.29
-0.50
-0.67
-0.83
-1.02
-1.26
-1.54
-1.82
-2.04
-2.16
-2.20
-2.15
-2.01
-1.70
-1.13
-0.26
0.81
1.89
2.73
3.14
3.07
2.62
1.97
1.34
0.86
0.58
0.46
0.42
0.40
0.39
0.42
0.52
0.67
0.82
0.86
0.73
0.46
0.12
-0.16
-0.32
-0.38
-0.42
-0.51
-0.67
-0.86
-1.03
-1.17
-1.32
-1.53
-1.82
-2.12
-2.29
-2.19
-1.71
-0.87
0.22
1.38
2.36
2.91
2.83
1.99
0.44
-1.65
-4.01
-6.37
-8.59
-10.64
-12.57
-14.37
-15.95
-17.07
-17.48
-17.04
-15.80
-14.01
-12.05
-10.22
-8.71
-7.53
-6.52
-5.46
-4.13
-2.40
-0.25
2.24
4.90
7.50
9.83
11.73
13.11
14.04
14.77
15.66
17.02
18.87
20.78
22.04
21.89
20.04
16.90
13.51
11.02
10.17
10.87
12.34
13.48
13.51
12.30
10.29
8.21
6.67
5.89
5.77
6.04
6.45
6.79
6.95
6.78
6.17
5.06
3.54
1.82
0.18
-1.09
-1.82
-2.00
-1.80
-1.49
-1.39
-1.72
-2.56
-3.72
-4.84
-5.49
-5.39
-4.51
-3.19
-2.05
-1.77
-2.86
-5.37
-8.90
-12.67
-15.77
-17.54
-17.73
-16.58
-14.65
-12.59
-10.88
-9.75
-9.16
-8.98
-9.06
-9.29
-9.61
-9.91
-10.05
-9.90
-9.33
-8.34
-6.97
-5.34
-3.57
-1.78
-0.10
1.28
2.12
2.21
1.47
0.05
-1.69
-3.24
-4.15
-4.17
-3.35
-1.98
-0.42
0.94
1.78
1.93
1.31
-0.01
-1.80
-3.69
-5.29
-6.30
-6.63
-6.37
-5.71
-4.88
-3.97
-2.99
-1.91
-0.77
0.36
1.38
2.23
2.95
3.62
4.35
5.17
6.03
6.78
7.32
7.57
7.57
7.46
7.35
7.35
7.45
7.59
7.65
7.56
7.29
6.89
6.42
5.93
5.41
4.78
4.00
3.07
2.07
1.15
0.47
0.13
0.11
0.31
0.58
0.77
0.82
0.69
0.43
0.09
-0.29
-0.70
-1.15
-1.64
-2.13
-2.54
-2.80
-2.83
-2.64
-2.26
-1.77
-1.22
-0.65
-0.11
0.42
0.88
1.24
1.44
1.40
1.04
0.32
-0.75
-2.07
-3.39
-4.47
-5.01
-4.86
-3.97
-2.50
-0.76
0.91
2.19
2.89
2.98
2.59
1.92
1.20
0.64
0.35
0.38
0.65
1.06
1.45
1.67
1.62
1.31
0.80
0.23
-0.28
-0.64
-0.83
-0.93
-0.99
-1.11
-1.34
-1.68
-2.09
-2.51
-2.82
-2.94
-2.81
-2.47
-1.98
-1.45
-0.95
-0.50
-0.05
0.46
1.07
1.72
2.29
2.63
2.67
2.43
2.02
1.59
1.24
0.99
0.79
0.57
0.28
-0.03
-0.29
-0.40
-0.33
-0.09
0.22
0.47
0.56
0.41
0.03
-0.52
-1.13
-1.68
-2.03
-2.12
-1.94
-1.52
-0.98
-0.41
0.18
0.78
1.43
2.14
2.83
3.37
3.66
3.66
3.45
3.15
2.92
2.82
2.84
2.86
2.77
2.51
2.08
1.59
1.17
0.93
0.89
0.99
1.12
1.19
1.14
0.98
0.74
0.48
0.20
-0.09
-0.42
-0.78
-1.14
-1.52
-1.93
-2.40
-2.88
-3.25
-3.34
-3.00
-2.19
-1.05
0.14
1.09
1.64
1.78
1.64
1.42
1.28
1.24
1.28
1.34
1.36
1.34
1.26
1.13
0.94
0.70
0.45
0.25
0.17
0.25
0.48
0.74
0.91
0.90
0.66
0.26
-0.19
-0.59
-0.88
-1.09
-1.25
-1.41
-1.58
-1.73
-1.80
-1.77
-1.67
-1.56
-1.50
-1.52
-1.60
-1.65
-1.54
-1.17
-0.47
0.51
1.63
2.70
3.52
3.98
4.05
3.81
3.36
2.83
2.31
1.86
1.53
1.32
1.22
1.17
1.13
1.03
0.87
0.65
0.44
0.27
0.19
0.23
0.39
0.61
0.82
0.93
0.86
0.59
0.15
-0.38
-0.90
-1.34
-1.64
-1.77
-1.71
-1.45
-1.04
-0.57
-0.16
0.07
0.11
0.04
0.01
0.20
0.64
1.26
1.87
2.28
2.37
2.14
1.72
1.29
0.99
0.91
1.05
1.31
1.58
1.69
1.53
1.11
0.52
-0.10
-0.59
-0.86
-0.93
-0.84
-0.67
-0.49
-0.36
-0.34
-0.49
-0.80
-1.23
-1.66
-1.99
-2.15
-2.13
-1.98
-1.76
-1.49
-1.15
-0.71
-0.17
0.41
0.93
1.32
1.51
1.49
1.29
0.96
0.55
0.16
-0.13
-0.25
-0.18
0.04
0.31
0.53
0.63
0.60
0.50
0.41
0.40
0.45
0.53
0.57
0.50
0.33
0.05
-0.30
-0.71
-1.14
-1.53
-1.82
-1.95
-1.91
-1.72
-1.44
-1.14
-0.82
-0.49
-0.11
0.32
0.77
1.17
1.45
1.58
1.58
1.46
1.30
1.16
1.10
1.16
1.31
1.49
1.62
1.62
1.51
1.34
1.16
0.98
0.77
0.48
0.10
-0.30
-0.59
-0.69
-0.60
-0.43
-0.34
-0.46
-0.79
-1.24
-1.66
-1.95
-2.05
-1.97
-1.72
-1.31
-0.74
-0.07
0.62
1.19
1.55
1.64
1.52
1.28
1.04
0.83
0.65
0.49
0.31
0.14
0.02
-0.03
-0.03
-0.01
0.02
0.04
0.11
0.24
0.41
0.52
0.50
0.29
-0.04
-0.36
-0.55
-0.57
-0.48
-0.43
-0.54
-0.83
-1.19
-1.45
-1.45
-1.14
-0.58
0.09
0.69
1.10
1.29
1.28
1.16
1.01
0.86
0.71
0.54
0.34
0.13
-0.07
-0.24
-0.36
-0.45
-0.51
-0.57
-0.59
-0.55
-0.46
-0.33
-0.20
-0.13
-0.13
-0.21
-0.35
-0.51
-0.63
-0.69
-0.69
-0.66
-0.67
-0.76
-0.93
-1.09
-1.14
-1.01
-0.68
-0.21
0.28
0.71
0.99
1.12
1.14
1.09
1.01
0.91
0.84
0.81
0.82
0.84
0.82
0.73
0.57
0.36
0.14
-0.06
-0.24
-0.41
-0.57
-0.67
-0.68
-0.59
-0.46
-0.41
-0.56
-0.92
-1.42
-1.87
-2.08
-1.97
-1.58
-1.05
-0.53
-0.13
0.16
0.41
0.65
0.87
1.01
0.99
0.80
0.49
0.19
0.02
0.05
0.24
0.47
0.63
0.62
0.48
0.30
0.19
0.16
0.19
0.15
-0.00
-0.26
-0.53
-0.72
-0.78
-0.76
-0.76
-0.80
-0.86
-0.82
-0.65
-0.35
-0.05
0.14
0.18
0.14
0.14
0.28
0.53
0.80
0.99
1.01
0.89
0.66
0.38
0.09
-0.20
-0.42
-0.53
-0.49
-0.34
-0.17
-0.10
-0.19
-0.44
-0.73
-0.96
-1.03
-0.98
-0.89
-0.88
-1.00
-1.22
-1.45
-1.56
-1.50
-1.27
-0.94
-0.60
-0.29
-0.04
0.17
0.33
0.40
0.35
0.14
-0.15
-0.44
-0.58
-0.52
-0.26
0.06
0.30
0.36
0.20
-0.10
-0.44
-0.70
-0.85
-0.91
-0.95
-1.04
-1.16
-1.26
-1.26
-1.11
-0.82
-0.48
-0.20
-0.05
-0.04
-0.12
-0.22
-0.26
-0.25
-0.20
-0.18
-0.20
-0.25
-0.25
-0.15
0.11
0.52
1.02
1.48
1.74
1.72
1.44
1.03
0.66
0.47
0.48
0.60
0.69
0.67
0.53
0.35
0.20
0.08
-0.04
-0.22
-0.47
-0.72
-0.88
-0.89
-0.77
-0.60
-0.46
-0.37
-0.31
-0.23
-0.09
0.09
0.25
0.35
0.39
0.38
0.36
0.35
0.35
0.35
0.35
0.34
0.32
0.30
0.28
0.25
0.20
0.09
-0.09
-0.34
-0.63
-0.93
-1.16
-1.30
-1.33
-1.24
-1.07
-0.87
-0.68
-0.52
-0.42
-0.37
-0.31
-0.22
-0.06
0.14
0.33
0.48
0.58
0.67
0.77
0.92
1.06
1.14
1.11
0.98
0.78
0.56
0.35
0.13
-0.11
-0.32
-0.42
-0.36
-0.13
0.18
0.43
0.52
0.43
0.23
0.03
-0.09
-0.14
-0.17
-0.26
-0.43
-0.65
-0.81
-0.86
-0.77
-0.60
-0.43
-0.33
-0.30
-0.28
-0.21
-0.07
0.12
0.29
0.40
0.40
0.36
0.32
0.36
0.46
0.53
0.50
0.30
-0.02
-0.38
-0.66
-0.80
-0.81
-0.72
-0.61
-0.48
-0.34
-0.20
-0.08
-0.08
-0.24
-0.58
-1.01
-1.38
-1.55
-1.46
-1.15
-0.73
-0.33
-0.02
0.18
0.30
0.37
0.38
0.34
0.26
0.14
0.02
-0.09
-0.20
-0.32
-0.48
-0.65
-0.78
-0.82
-0.72
-0.51
-0.28
-0.11
-0.11
-0.27
-0.55
-0.82
-0.97
-0.96
-0.78
-0.55
-0.38
-0.38
-0.56
-0.85
-1.11
-1.17
-0.95
-0.48
0.11
0.63
0.93
0.94
0.73
0.47
0.30
0.29
0.39
0.48
0.47
0.33
0.19
0.16
0.33
0.66
1.01
1.19
1.10
0.79
0.43
0.19
0.16
0.28
0.38
0.33
0.09
-0.24
-0.52
-0.69
-0.74
-0.78
-0.86
-0.98
-1.01
-0.88
-0.55
-0.12
0.26
0.48
0.51
0.45
0.40
0.43
0.51
0.60
0.61
0.53
0.39
0.27
0.20
0.20
0.20
0.17
0.08
-0.05
-0.16
-0.21
-0.17
-0.07
0.02
0.01
-0.15
-0.47
-0.89
-1.32
-1.63
-1.77
-1.71
-1.51
-1.25
-0.99
-0.75
-0.50
-0.24
0.06
0.33
0.53
0.60
0.58
0.54
0.56
0.68
0.84
0.95
0.91
0.73
0.47
0.26
0.14
0.12
0.10
0.02
-0.11
-0.21
-0.19
-0.03
0.20
0.33
0.21
-0.18
-0.72
-1.18
-1.36
-1.16
-0.66
-0.06
0.45
0.78
0.89
0.86
0.74
0.57
0.34
0.06
-0.21
-0.39
-0.40
-0.22
0.08
0.39
0.57
0.60
0.48
0.28
0.08
-0.07
-0.16
-0.20
-0.17
-0.08
0.07
0.24
0.37
0.40
0.32
0.15
-0.05
-0.24
-0.41
-0.58
-0.76
-0.93
-1.01
-0.95
-0.72
-0.38
-0.03
0.24
0.41
0.50
0.61
0.79
1.05
1.31
1.43
1.32
0.96
0.46
-0.00
-0.30
-0.36
-0.23
-0.04
0.09
0.11
0.07
0.02
0.01
0.04
0.03
-0.08
-0.28
-0.51
-0.67
-0.70
-0.63
-0.58
-0.63
-0.82
-1.05
-1.17
-0.99
-0.46
0.32
1.14
1.76
2.01
1.85
1.40
0.86
0.41
0.15
0.09
0.18
0.28
0.28
0.13
-0.17
-0.57
-0.94
-1.21
-1.31
-1.26
-1.10
-0.89
-0.68
-0.51
-0.42
-0.43
-0.56
-0.78
-1.04
-1.25
-1.35
-1.30
-1.08
-0.73
-0.25
0.29
0.83
1.27
1.51
1.51
1.28
0.95
0.65
0.53
0.62
0.84
1.05
1.13
0.99
0.67
0.25
-0.16
-0.50
-0.73
-0.88
-0.95
-0.95
-0.85
-0.69
-0.51
-0.38
-0.31
-0.29
-0.24
-0.09
0.18
0.52
0.86
1.12
1.24
1.20
0.99
0.64
0.20
-0.21
-0.49
-0.55
-0.39
-0.11
0.15
0.30
0.30
0.22
0.11
0.02
-0.05
-0.07
-0.02
0.10
0.27
0.43
0.46
0.31
0.00
-0.36
-0.61
-0.65
-0.47
-0.15
0.17
0.38
0.46
0.44
0.40
0.42
0.53
0.72
0.94
1.12
1.20
1.17
1.03
0.81
0.56
0.31
0.12
0.01
-0.03
-0.02
0.02
0.03
-0.01
-0.11
-0.23
-0.34
-0.39
-0.40
-0.40
-0.48
-0.68
-0.99
-1.34
-1.60
-1.64
-1.42
-0.95
-0.35
0.23
0.63
0.77
0.63
0.32
-0.02
-0.27
-0.36
-0.30
-0.15
0.04
0.25
0.48
0.68
0.78
0.64
0.24
-0.36
-0.95
-1.30
-1.25
-0.82
-0.19
0.37
0.67
0.66
0.42
0.14
-0.06
-0.08
0.05
0.30
0.58
0.84
1.00
1.05
0.96
0.78
0.58
0.45
0.45
0.60
0.81
0.94
0.88
0.58
0.12
-0.34
-0.66
-0.72
-0.53
-0.21
0.11
0.35
0.47
0.51
0.56
0.64
0.76
0.89
0.93
0.83
0.55
0.13
-0.30
-0.57
-0.56
-0.21
0.40
1.10
1.71
2.08
2.17
2.05
1.79
1.46
1.11
0.75
0.40
0.10
-0.11
-0.22
-0.25
-0.26
-0.33
-0.45
-0.63
-0.80
-0.96
-1.09
-1.21
-1.34
-1.46
-1.54
-1.56
-1.51
-1.43
-1.37
-1.38
-1.45
-1.58
-1.76
-1.96
-2.13
-2.23
-2.18
-1.93
-1.48
-0.92
-0.35
0.08
0.30
0.28
0.09
-0.19
-0.44
-0.59
-0.59
-0.48
-0.29
-0.10
0.05
0.13
0.15
0.10
-0.01
-0.16
-0.31
-0.39
-0.34
-0.15
0.12
0.33
0.35
0.12
-0.30
-0.73
-0.99
-0.96
-0.65
-0.19
0.24
0.54
0.68
0.74
0.79
0.87
0.93
0.92
0.81
0.65
0.50
0.42
0.41
0.39
0.31
0.16
-0.02
-0.18
-0.27
-0.28
-0.23
-0.16
-0.07
0.05
0.21
0.38
0.51
0.51
0.33
-0.00
-0.43
-0.84
-1.14
-1.26
-1.22
-1.05
-0.82
-0.59
-0.39
-0.23
-0.08
0.06
0.21
0.35
0.45
0.48
0.42
0.25
0.04
-0.15
-0.23
-0.17
-0.01
0.17
0.30
0.35
0.37
0.42
0.53
0.68
0.79
0.80
0.67
0.44
0.20
0.03
-0.06
-0.12
-0.18
-0.28
-0.38
-0.43
-0.40
-0.29
-0.15
-0.04
0.02
0.06
0.12
0.26
0.49
0.78
1.06
1.26
1.35
1.34
1.25
1.14
1.03
0.94
0.89
0.86
0.86
0.88
0.89
0.90
0.89
0.87
0.85
0.82
0.74
0.57
0.29
-0.08
-0.47
-0.78
-0.95
-0.98
-0.93
-0.89
-0.87
-0.85
-0.76
-0.56
-0.27
0.03
0.23
0.28
0.15
-0.10
-0.40
-0.67
-0.90
-1.07
-1.20
-1.28
-1.28
-1.23
-1.15
-1.09
-1.08
-1.07
-1.02
-0.90
-0.72
-0.57
-0.54
-0.68
-0.94
-1.25
-1.50
-1.62
-1.63
-1.56
-1.44
-1.30
-1.13
-0.94
-0.72
-0.51
-0.33
-0.19
-0.10
-0.06
-0.06
-0.06
-0.01
0.12
0.34
0.59
0.78
0.85
0.73
0.48
0.15
-0.15
-0.35
-0.40
-0.33
-0.16
0.04
0.21
0.30
0.28
0.13
-0.12
-0.40
-0.63
-0.74
-0.74
-0.65
-0.54
-0.44
-0.38
-0.33
-0.26
-0.13
0.05
0.26
0.42
0.50
0.48
0.38
0.24
0.11
0.04
0.05
0.11
0.18
0.22
0.21
0.14
0.05
-0.05
-0.15
-0.25
-0.33
-0.38
-0.37
-0.31
-0.25
-0.26
-0.41
-0.66
-0.94
-1.11
-1.09
-0.84
-0.44
-0.02
0.30
0.47
0.50
0.46
0.42
0.40
0.39
0.38
0.35
0.30
0.24
0.22
0.24
0.32
0.44
0.57
0.64
0.59
0.40
0.09
-0.25
-0.50
-0.56
-0.41
-0.12
0.19
0.36
0.34
0.11
-0.25
-0.64
-0.97
-1.19
-1.27
-1.23
-1.06
-0.79
-0.43
-0.01
0.48
0.99
1.45
1.79
1.92
1.81
1.52
1.15
0.86
0.72
0.73
0.80
0.84
0.84
0.83
0.86
0.93
0.99
0.94
0.71
0.36
-0.02
-0.32
-0.52
-0.70
-0.95
-1.29
-1.62
-1.76
-1.61
-1.19
-0.66
-0.25
-0.10
-0.20
-0.40
-0.52
-0.43
-0.13
0.26
0.63
0.86
0.95
0.88
0.73
0.53
0.35
0.25
0.25
0.34
0.45
0.51
0.45
0.26
0.02
-0.18
-0.27
-0.23
-0.13
-0.05
-0.08
-0.25
-0.52
-0.84
-1.10
-1.26
-1.25
-1.07
-0.76
-0.35
0.04
0.35
0.51
0.53
0.43
0.27
0.11
0.00
-0.03
0.01
0.10
0.20
0.27
0.32
0.34
0.33
0.30
0.23
0.11
-0.07
-0.31
-0.59
-0.89
-1.19
-1.45
-1.62
-1.68
-1.62
-1.48
-1.28
-1.08
-0.90
-0.78
-0.73
-0.74
-0.80
-0.88
-0.90
-0.82
-0.61
-0.30
0.05
0.31
0.43
0.40
0.29
0.20
0.20
0.29
0.42
0.52
0.56
0.56
0.58
0.65
0.77
0.89
0.96
0.99
1.04
1.15
1.36
1.60
1.79
1.89
1.87
1.79
1.65
1.48
1.24
0.95
0.66
0.47
0.44
0.58
0.79
0.95
0.94
0.73
0.41
0.11
-0.08
-0.10
-0.01
0.10
0.13
0.01
-0.23
-0.51
-0.75
-0.87
-0.91
-0.95
-1.07
-1.30
-1.58
-1.79
-1.83
-1.68
-1.43
-1.18
-1.04
-1.04
-1.18
-1.36
-1.51
-1.57
-1.50
-1.31
-1.02
-0.66
-0.27
0.12
0.48
0.77
0.99
1.15
1.26
1.35
1.48
1.66
1.86
2.01
2.03
1.88
1.59
1.28
1.07
1.03
1.17
1.36
1.46
1.34
0.97
0.44
-0.13
-0.58
-0.85
-0.94
-0.93
-0.90
-0.90
-0.91
-0.89
-0.78
-0.52
-0.13
0.32
0.75
1.09
1.31
1.44
1.51
1.56
1.57
1.52
1.38
1.15
0.86
0.61
0.46
0.45
0.55
0.65
0.69
0.62
0.51
0.44
0.53
0.80
1.18
1.53
1.70
1.61
1.29
0.81
0.30
-0.13
-0.46
-0.65
-0.70
-0.60
-0.32
0.12
0.66
1.15
1.49
1.57
1.40
1.06
0.64
0.23
-0.12
-0.41
-0.60
-0.67
-0.61
-0.41
-0.17
0.01
0.05
-0.07
-0.31
-0.55
-0.72
-0.82
-0.86
-0.91
-1.00
-1.12
-1.22
-1.29
-1.34
-1.41
-1.48
-1.49
-1.35
-1.00
-0.47
0.14
0.68
1.04
1.17
1.15
1.06
0.98
0.94
0.88
0.77
0.62
0.48
0.38
0.35
0.38
0.43
0.48
0.53
0.55
0.54
0.46
0.29
0.06
-0.15
-0.27
-0.28
-0.26
-0.35
-0.70
-1.30
-2.04
-2.70
-3.09
-3.14
-2.89
-2.48
-2.01
-1.55
-1.07
-0.56
0.02
0.60
1.12
1.49
1.64
1.55
1.27
0.89
0.49
0.17
-0.07
-0.24
-0.35
-0.42
-0.39
-0.24
0.05
0.40
0.69
0.83
0.77
0.54
0.24
-0.06
-0.33
-0.61
-0.92
-1.22
-1.44
-1.51
-1.42
-1.24
-1.09
-1.04
-1.06
-1.04
-0.86
-0.49
0.01
0.52
0.91
1.10
1.10
0.98
0.80
0.60
0.39
0.18
-0.02
-0.19
-0.28
-0.28
-0.19
-0.03
0.12
0.21
0.19
0.06
-0.15
-0.38
-0.58
-0.72
-0.79
-0.80
-0.77
-0.70
-0.65
-0.64
-0.71
-0.80
-0.84
-0.73
-0.40
0.11
0.72
1.28
1.69
1.91
1.97
1.96
1.92
1.91
1.92
1.97
2.04
2.13
2.24
2.31
2.28
2.09
1.73
1.28
0.82
0.50
0.39
0.50
0.74
0.97
1.05
0.89
0.50
-0.06
-0.69
-1.31
-1.83
-2.21
-2.43
-2.46
-2.28
-1.90
-1.32
-0.61
0.10
0.67
1.00
1.02
0.78
0.41
0.02
-0.29
-0.54
-0.73
-0.90
-1.01
-0.99
-0.82
-0.54
-0.28
-0.13
-0.12
-0.18
-0.20
-0.13
0.03
0.15
0.15
-0.04
-0.34
-0.66
-0.91
-1.10
-1.28
-1.49
-1.70
-1.80
-1.62
-1.11
-0.33
0.53
1.20
1.49
1.34
0.89
0.37
0.02
-0.06
0.11
0.40
0.66
0.81
0.83
0.77
0.66
0.49
0.28
0.03
-0.17
-0.24
-0.11
0.17
0.48
0.63
0.48
0.03
-0.61
-1.24
-1.69
-1.90
-1.90
-1.79
-1.64
-1.47
-1.29
-1.07
-0.82
-0.58
-0.37
-0.19
-0.02
0.19
0.45
0.75
1.02
1.19
1.18
0.99
0.71
0.46
0.38
0.51
0.81
1.12
1.29
1.22
0.91
0.48
0.10
-0.12
-0.19
-0.17
-0.16
-0.22
-0.34
-0.44
-0.49
-0.49
-0.52
-0.67
-0.97
-1.33
-1.55
-1.48
-1.05
-0.37
0.36
0.92
1.19
1.21
1.11
1.03
1.06
1.19
1.35
1.45
1.38
1.09
0.56
-0.19
-1.03
-1.79
-2.31
-2.45
-2.17
-1.58
-0.84
-0.17
0.25
0.35
0.19
-0.13
-0.47
-0.74
-0.93
-1.07
-1.17
-1.22
-1.18
-1.01
-0.75
-0.46
-0.23
-0.08
0.02
0.11
0.23
0.36
0.44
0.41
0.27
0.06
-0.17
-0.38
-0.55
-0.69
-0.81
-0.90
-0.92
-0.85
-0.69
-0.48
-0.31
-0.22
-0.26
-0.37
-0.49
-0.55
-0.54
-0.49
-0.50
-0.60
-0.76
-0.90
-0.90
-0.69
-0.29
0.22
0.75
1.18
1.45
1.56
1.49
1.31
1.09
0.91
0.87
0.97
1.18
1.36
1.41
1.27
0.99
0.64
0.33
0.07
-0.17
-0.44
-0.74
-1.01
-1.16
-1.16
-1.04
-0.92
-0.91
-1.05
-1.27
-1.44
-1.42
-1.19
-0.79
-0.37
-0.01
0.23
0.37
0.49
0.64
0.83
1.01
1.12
1.11
1.00
0.83
0.69
0.65
0.71
0.84
0.96
1.02
1.00
0.93
0.89
0.93
1.06
1.23
1.34
1.31
1.13
0.83
0.48
0.17
-0.09
-0.33
-0.59
-0.92
-1.31
-1.66
-1.87
-1.81
-1.44
-0.82
-0.08
0.62
1.13
1.40
1.48
1.43
1.34
1.24
1.11
0.95
0.75
0.59
0.54
0.63
0.81
0.96
0.94
0.71
0.34
-0.04
-0.29
-0.35
-0.29
-0.25
-0.38
-0.74
-1.27
-1.84
-2.27
-2.43
-2.29
-1.90
-1.39
-0.90
-0.52
-0.25
-0.07
0.11
0.32
0.58
0.89
1.22
1.53
1.77
1.87
1.79
1.53
1.19
0.87
0.64
0.53
0.45
0.34
0.16
-0.06
-0.22
-0.27
-0.20
-0.09
-0.02
-0.07
-0.21
-0.39
-0.57
-0.73
-0.89
-1.07
-1.26
-1.39
-1.35
-1.07
-0.59
-0.03
0.42
0.66
0.68
0.59
0.56
0.71
1.05
1.48
1.85
2.03
1.98
1.73
1.39
1.07
0.86
0.81
0.93
1.15
1.42
1.67
1.83
1.87
1.74
1.43
0.94
0.30
-0.43
-1.11
-1.59
-1.76
-1.58
-1.13
-0.59
-0.14
0.06
-0.01
-0.25
-0.53
-0.73
-0.85
-0.94
-1.08
-1.29
-1.50
-1.61
-1.56
-1.41
-1.28
-1.31
-1.50
-1.76
-1.94
-1.95
-1.77
-1.50
-1.23
-1.05
-0.94
-0.88
-0.82
-0.75
-0.67
-0.58
-0.47
-0.34
-0.21
-0.12
-0.06
-0.03
0.03
0.17
0.40
0.69
0.97
1.15
1.19
1.10
0.94
0.79
0.71
0.72
0.79
0.84
0.82
0.71
0.58
0.50
0.53
0.66
0.81
0.89
0.85
0.72
0.58
0.51
0.51
0.53
0.45
0.20
-0.20
-0.65
-0.96
-1.01
-0.71
-0.11
0.66
1.47
2.17
2.71
3.04
3.14
2.99
2.52
1.69
0.57
-0.67
-1.81
-2.59
-2.90
-2.74
-2.28
-1.73
-1.27
-0.96
-0.78
-0.64
-0.50
-0.39
-0.36
-0.45
-0.66
-0.89
-1.04
-1.04
-0.88
-0.66
-0.51
-0.47
-0.55
-0.68
-0.76
-0.77
-0.69
-0.54
-0.32
-0.02
0.41
0.93
1.46
1.90
2.15
2.21
2.11
1.97
1.81
1.63
1.34
0.86
0.18
-0.63
-1.45
-2.14
-2.65
-3.00
-3.25
-3.47
-3.64
-3.74
-3.75
-3.69
-3.63
-3.62
-3.61
-3.51
-3.16
-2.47
-1.50
-0.41
0.59
1.33
1.72
1.81
1.69
1.47
1.25
1.10
1.08
1.16
1.27
1.29
1.11
0.69
0.11
-0.41
-0.68
-0.58
-0.15
0.40
0.86
1.06
0.98
0.74
0.50
0.38
0.38
0.43
0.45
0.37
0.23
0.08
-0.02
-0.05
-0.09
-0.21
-0.48
-0.86
-1.26
-1.56
-1.66
-1.55
-1.29
-0.99
-0.73
-0.54
-0.43
-0.37
-0.33
-0.30
-0.28
-0.25
-0.22
-0.20
-0.20
-0.25
-0.30
-0.32
-0.24
0.01
0.39
0.84
1.26
1.56
1.70
1.68
1.55
1.39
1.25
1.18
1.15
1.11
1.00
0.77
0.42
-0.02
-0.48
-0.87
-1.14
-1.25
-1.22
-1.10
-0.95
-0.82
-0.74
-0.72
-0.76
-0.82
-0.89
-0.93
-0.95
-0.95
-0.95
-0.97
-1.01
-1.05
-1.04
-0.93
-0.67
-0.26
0.29
0.93
1.62
2.30
2.86
3.21
3.25
2.96
2.39
1.66
0.95
0.39
0.06
-0.05
0.01
0.18
0.41
0.67
0.92
1.16
1.34
1.40
1.29
0.95
0.38
-0.34
-1.07
-1.61
-1.82
-1.65
-1.18
-0.58
-0.04
0.34
0.55
0.68
0.79
0.89
0.91
0.78
0.46
-0.00
-0.48
-0.84
-1.03
-1.03
-0.92
-0.75
-0.57
-0.38
-0.20
-0.08
-0.07
-0.23
-0.56
-1.00
-1.42
-1.66
-1.63
-1.30
-0.75
-0.09
0.52
1.00
1.29
1.41
1.37
1.19
0.92
0.65
0.46
0.44
0.56
0.73
0.79
0.60
0.19
-0.32
-0.72
-0.83
-0.63
-0.23
0.19
0.44
0.46
0.29
0.05
-0.17
-0.32
-0.40
-0.48
-0.57
-0.67
-0.71
-0.61
-0.33
0.12
0.62
1.05
1.31
1.35
1.24
1.04
0.84
0.68
0.56
0.46
0.33
0.16
-0.05
-0.27
-0.46
-0.57
-0.59
-0.53
-0.43
-0.32
-0.23
-0.16
-0.12
-0.11
-0.19
-0.40
-0.71
-1.05
-1.30
-1.39
-1.32
-1.19
-1.06
-0.97
-0.85
-0.63
-0.27
0.18
0.62
0.97
1.23
1.44
1.65
1.84
1.90
1.76
1.39
0.87
0.38
0.08
0.07
0.31
0.65
0.92
0.99
0.84
0.54
0.20
-0.07
-0.22
-0.30
-0.39
-0.59
-0.90
-1.26
-1.56
-1.73
-1.73
-1.62
-1.45
-1.24
-0.95
-0.53
0.01
0.57
1.00
1.16
0.99
0.58
0.11
-0.25
-0.37
-0.28
-0.06
0.15
0.29
0.30
0.20
0.03
-0.17
-0.31
-0.34
-0.22
0.05
0.37
0.63
0.75
0.73
0.63
0.55
0.52
0.54
0.53
0.41
0.16
-0.17
-0.49
-0.73
-0.86
-0.88
-0.83
-0.74
-0.60
-0.41
-0.15
0.14
0.38
0.52
0.53
0.41
0.24
0.09
0.01
0.02
0.09
0.20
0.28
0.33
0.32
0.27
0.22
0.19
0.22
0.28
0.34
0.34
0.27
0.15
0.04
-0.00
0.05
0.14
0.19
0.12
-0.10
-0.39
-0.63
-0.70
-0.55
-0.26
0.05
0.23
0.22
0.06
-0.16
-0.33
-0.40
-0.38
-0.31
-0.22
-0.13
-0.03
0.08
0.16
0.19
0.16
0.08
-0.03
-0.17
-0.36
-0.61
-0.92
-1.22
-1.40
-1.35
-1.03
-0.51
0.04
0.45
0.57
0.38
-0.02
-0.48
-0.83
-0.98
-0.88
-0.58
-0.19
0.18
0.44
0.55
0.54
0.49
0.47
0.57
0.78
1.05
1.30
1.45
1.47
1.40
1.31
1.29
1.37
1.50
1.62
1.64
1.56
1.38
1.14
0.85
0.49
0.05
-0.42
-0.80
-0.98
-0.89
-0.60
-0.29
-0.14
-0.27
-0.64
-1.08
-1.41
-1.48
-1.29
-0.92
-0.47
-0.05
0.25
0.40
0.44
0.40
0.36
0.37
0.43
0.49
0.45
0.27
-0.04
-0.38
-0.66
-0.81
-0.86
-0.88
-0.91
-0.97
-1.01
-0.99
-0.90
-0.74
-0.54
-0.31
-0.03
0.29
0.58
0.75
0.74
0.54
0.27
0.10
0.20
0.63
1.30
2.03
2.57
2.73
2.47
1.83
1.01
0.22
-0.37
-0.68
-0.72
-0.58
-0.40
-0.35
-0.52
-0.97
-1.62
-2.32
-2.88
-3.11
-2.97
-2.52
-1.95
-1.46
-1.15
-1.05
-1.06
-1.10
-1.14
-1.18
-1.25
-1.34
-1.37
-1.25
-0.91
-0.38
0.21
0.71
0.98
0.95
0.68
0.31
0.01
-0.08
0.07
0.36
0.68
0.91
1.03
1.08
1.16
1.30
1.46
1.52
1.40
1.11
0.77
0.53
0.47
0.56
0.62
0.49
0.08
-0.55
-1.18
-1.52
-1.32
-0.46
1.01
2.86
4.67
6.01
6.52
6.06
4.72
2.81
0.74
-1.10
-2.46
-3.17
-3.22
-2.66
-1.67
-0.49
0.52
1.10
1.07
0.48
-0.45
-1.39
-2.05
-2.26
-2.01
-1.43
-0.68
0.11
0.81
1.38
1.78
1.97
1.94
1.67
1.18
0.52
-0.20
-0.83
-1.24
-1.36
-1.19
-0.78
-0.22
0.46
1.25
2.15
3.09
3.89
4.31
4.18
3.57
2.86
2.61
3.32
5.05
7.38
9.49
10.55
10.11
8.30
5.73
3.15
1.08
-0.38
-1.52
-2.70
-4.15
-5.81
-7.43
-8.73
-9.54
-9.92
-10.03
-10.01
-9.90
-9.63
-9.03
-8.00
-6.58
-4.97
-3.47
-2.27
-1.46
-0.90
-0.39
0.26
1.12
2.03
2.77
3.06
2.76
1.88
0.63
-0.69
-1.77
-2.38
-2.42
-1.98
-1.25
-0.49
0.08
0.36
0.32
0.05
-0.33
-0.73
-1.11
-1.48
-1.87
-2.25
-2.55
-2.63
-2.42
-1.95
-1.40
-0.99
-0.89
-1.09
-1.41
-1.61
-1.56
-1.28
-0.97
-0.82
-0.93
-1.23
-1.59
-1.87
-1.97
-1.89
-1.62
-1.13
-0.37
0.64
1.77
2.76
3.36
3.37
2.79
1.81
0.71
-0.23
-0.84
-1.10
-1.08
-0.88
-0.59
-0.24
0.16
0.56
0.90
1.11
1.13
0.97
0.68
0.35
0.07
-0.12
-0.20
-0.18
-0.08
0.12
0.44
0.92
1.57
2.32
3.04
3.57
3.78
3.66
3.26
2.70
2.10
1.53
1.02
0.58
0.26
0.10
0.14
0.38
0.75
1.15
1.48
1.67
1.73
1.70
1.64
1.56
1.41
1.09
0.50
-0.35
-1.39
-2.43
-3.26
-3.73
-3.77
-3.45
-2.89
-2.25
-1.67
-1.24
-0.98
-0.86
-0.81
-0.73
-0.55
-0.25
0.09
0.40
0.58
0.60
0.52
0.41
0.35
0.37
0.45
0.54
0.60
0.65
0.74
0.92
1.16
1.37
1.44
1.24
0.79
0.17
-0.42
-0.81
-0.89
-0.70
-0.38
-0.07
0.12
0.23
0.31
0.46
0.69
0.99
1.28
1.53
1.70
1.78
1.80
1.74
1.63
1.48
1.36
1.34
1.51
1.88
2.42
3.01
3.53
3.84
3.94
3.88
3.81
3.82
3.95
4.08
4.07
3.82
3.39
2.99
2.91
3.36
4.32
5.56
6.70
7.38
7.41
6.77
5.63
4.25
2.84
1.55
0.42
-0.60
-1.53
-2.37
-3.09
-3.59
-3.81
-3.76
-3.50
-3.18
-2.92
-2.84
-2.99
-3.38
-4.03
-4.87
-5.78
-6.60
-7.11
-7.17
-6.73
-5.97
-5.17
-4.63
-4.52
-4.78
-5.18
-5.42
-5.27
-4.65
-3.68
-2.59
-1.61
-0.88
-0.44
-0.23
-0.19
-0.19
-0.13
0.04
0.33
0.68
1.07
1.43
1.83
2.16
2.28
2.12
1.65
0.81
-0.36
-1.72
-2.98
-3.87
-4.20
-3.88
-3.00
-1.77
-0.50
0.55
1.31
1.91
2.54
3.34
4.32
5.28
5.89
5.71
4.40
1.96
-1.24
-4.51
-6.99
-7.85
-6.57
-3.11
2.20
7.91
12.54
15.13
15.44
13.90
11.28
8.28
5.26
2.22
-0.99
-4.24
-7.13
-9.14
-9.96
-9.69
-8.97
-8.32
-8.10
-8.42
-8.90
-8.99
-8.19
-6.33
-3.59
-0.52
2.26
4.19
4.96
4.72
3.92
3.12
2.74
2.93
3.46
4.00
4.27
4.20
3.94
3.74
3.75
3.90
4.07
4.07
3.83
3.49
3.25
3.27
3.50
3.74
3.77
3.51
3.15
3.05
3.52
4.62
5.90
6.58
5.90
3.54
-0.30
-4.94
-9.47
-13.15
-15.62
-17.01
-17.62
-17.61
-16.81
-14.98
-12.12
-8.65
-5.31
-2.87
-1.96
-2.71
-4.79
-7.56
-10.50
-13.34
-15.96
-18.18
-18.56
-15.91
-10.06
-2.22
5.78
12.38
16.76
18.80
18.97
18.00
16.46
14.59
12.38
9.78
6.83
3.86
1.38
-0.15
-0.61
-0.51
-0.60
-1.36
-2.63
-3.68
-3.74
-2.47
-0.20
2.24
3.97
4.63
4.60
4.67
5.50
7.12
8.90
10.01
9.98
8.73
6.73
4.65
2.97
1.82
1.01
0.32
-0.26
-0.54
-0.35
0.23
0.85
1.03
0.51
-0.64
-2.07
-3.39
-4.36
-4.96
-5.31
-5.52
-5.55
-5.25
-4.54
-3.42
-2.04
-0.63
0.60
1.56
2.25
2.69
2.96
3.11
3.22
3.37
3.57
3.72
3.65
3.24
2.49
1.56
0.69
0.10
-0.12
-0.01
0.26
0.55
0.74
0.78
0.73
0.53
0.10
-0.61
-1.58
-2.70
-3.80
-4.73
-5.39
-5.74
-5.80
-5.60
-5.23
-4.77
-4.33
-3.99
-3.75
-3.54
-3.24
-2.79
-2.18
-1.51
-0.93
-0.53
-0.32
-0.18
0.04
0.44
0.96
1.47
1.79
1.83
1.64
1.33
1.04
0.84
0.70
0.53
0.25
-0.18
-0.71
-1.28
-1.81
-2.26
-2.63
-2.94
-3.25
-3.58
-3.95
-4.33
-4.67
-4.90
-5.00
-4.96
-4.81
-4.61
-4.38
-4.14
-3.92
-3.72
-3.50
-3.22
-2.80
-2.20
-1.45
-0.67
-0.02
0.41
0.60
0.64
0.70
0.87
1.16
1.48
1.72
1.79
1.70
1.54
1.38
1.26
1.18
1.09
0.96
0.77
0.53
0.24
-0.13
-0.54
-0.94
-1.23
-1.34
-1.24
-0.97
-0.63
-0.27
0.11
0.57
1.18
1.94
2.77
3.55
4.21
4.70
5.01
5.18
5.25
5.23
5.15
5.08
5.05
5.09
5.18
5.25
5.24
5.15
5.01
4.88
4.79
4.73
4.61
4.37
3.98
3.44
2.83
2.21
1.64
1.13
0.69
0.33
0.09
-0.00
0.08
0.33
0.72
1.12
1.41
1.47
1.26
0.80
0.24
-0.25
-0.52
-0.49
-0.23
0.11
0.38
0.45
0.32
0.05
-0.24
-0.45
-0.54
-0.56
-0.58
-0.67
-0.87
-1.13
-1.43
-1.72
-1.99
-2.23
-2.44
-2.56
-2.55
-2.36
-1.98
-1.47
-0.89
-0.32
0.24
0.82
1.47
2.20
2.95
3.59
3.98
4.02
3.72
3.19
2.58
2.09
1.84
1.90
2.22
2.71
3.25
3.72
4.03
4.11
3.90
3.42
2.75
2.04
1.45
1.11
1.03
1.09
1.10
0.91
0.50
-0.01
-0.40
-0.47
-0.18
0.41
1.08
1.62
1.85
1.69
1.10
0.11
-1.21
-2.78
-4.45
-6.07
-7.46
-8.47
-9.04
-9.18
-8.99
-8.59
-8.08
-7.57
-7.11
-6.71
-6.39
-6.13
-5.95
-5.86
-5.85
-5.91
-5.97
-5.96
-5.81
-5.51
-5.04
-4.45
-3.74
-2.94
-2.12
-1.37
-0.80
-0.49
-0.43
-0.50
-0.57
-0.51
-0.33
-0.09
0.12
0.27
0.37
0.45
0.56
0.66
0.72
0.72
0.67
0.63
0.63
0.67
0.76
0.87
1.01
1.18
1.33
1.39
1.23
0.78
0.07
-0.77
-1.49
-1.85
-1.69
-1.01
0.06
1.27
2.36
3.14
3.50
3.48
3.18
2.76
2.34
2.00
1.79
1.74
1.83
2.03
2.28
2.49
2.55
2.41
2.10
1.73
1.40
1.22
1.19
1.25
1.30
1.26
1.09
0.80
0.44
0.05
-0.32
-0.66
-0.95
-1.16
-1.25
-1.18
-0.89
-0.40
0.24
0.93
1.55
1.98
2.19
2.21
2.09
1.91
1.71
1.53
1.39
1.33
1.33
1.38
1.39
1.32
1.11
0.80
0.45
0.15
-0.05
-0.14
-0.20
-0.28
-0.44
-0.68
-0.95
-1.18
-1.33
-1.38
-1.31
-1.16
-0.93
-0.58
-0.09
0.60
1.49
2.53
3.61
4.57
5.29
5.68
5.73
5.50
5.09
4.61
4.13
3.65
3.17
2.68
2.18
1.73
1.38
1.17
1.10
1.13
1.21
1.28
1.28
1.17
0.87
0.36
-0.37
-1.20
-2.01
-2.62
-2.94
-3.00
-2.88
-2.69
-2.50
-2.32
-2.09
-1.80
-1.44
-1.09
-0.77
-0.52
-0.28
0.01
0.38
0.81
1.17
1.34
1.24
0.92
0.52
0.23
0.17
0.34
0.61
0.84
0.92
0.87
0.76
0.67
0.59
0.47
0.21
-0.24
-0.85
-1.53
-2.17
-2.69
-3.05
-3.25
-3.28
-3.13
-2.83
-2.43
-1.97
-1.53
-1.11
-0.68
-0.22
0.26
0.67
0.89
0.80
0.38
-0.35
-1.31
-2.37
-3.44
-4.41
-5.21
-5.80
-6.16
-6.35
-6.47
-6.62
-6.90
-7.28
-7.67
-7.92
-7.94
-7.67
-7.15
-6.39
-5.40
-4.22
-2.90
-1.54
-0.30
0.67
1.29
1.65
1.89
2.18
2.57
3.02
3.38
3.55
3.51
3.37
3.27
3.30
3.46
3.65
3.76
3.73
3.56
3.32
3.13
3.03
3.04
3.08
3.07
2.95
2.68
2.33
1.95
1.62
1.36
1.20
1.16
1.26
1.54
1.93
2.36
2.67
2.76
2.60
2.27
1.87
1.51
1.21
0.92
0.60
0.27
-0.03
-0.23
-0.34
-0.38
-0.43
-0.52
-0.64
-0.78
-0.93
-1.10
-1.32
-1.57
-1.73
-1.63
-1.08
0.03
1.65
3.59
5.57
7.34
8.74
9.73
10.40
10.82
11.05
11.03
10.69
10.04
9.22
8.49
8.11
8.19
8.51
8.65
8.11
6.63
4.32
1.67
-0.67
-2.19
-2.73
-2.46
-1.74
-0.94
-0.32
-0.03
-0.18
-0.86
-2.05
-3.60
-5.18
-6.42
-7.06
-7.09
-6.71
-6.19
-5.73
-5.37
-5.04
-4.65
-4.23
-3.86
-3.68
-3.77
-4.10
-4.54
-4.92
-5.09
-5.00
-4.69
-4.28
-3.94
-3.79
-3.85
-4.03
-4.19
-4.20
-4.01
-3.64
-3.15
-2.62
-2.11
-1.70
-1.45
-1.40
-1.54
-1.79
-2.00
-2.04
-1.85
-1.40
-0.74
0.09
1.01
1.96
2.82
3.45
3.78
3.80
3.60
3.34
3.15
3.06
3.03
2.98
2.86
2.69
2.50
2.35
2.26
2.22
2.22
2.23
2.22
2.15
1.98
1.69
1.29
0.83
0.33
-0.18
-0.70
-1.24
-1.79
-2.27
-2.62
-2.81
-2.87
-2.88
-2.94
-3.05
-3.18
-3.20
-3.00
-2.55
-1.92
-1.29
-0.81
-0.62
-0.73
-1.09
-1.54
-1.97
-2.27
-2.38
-2.28
-1.99
-1.54
-1.02
-0.56
-0.27
-0.23
-0.43
-0.75
-1.06
-1.23
-1.22
-1.08
-0.93
-0.86
-0.89
-0.97
-1.02
-1.01
-0.95
-0.88
-0.85
-0.81
-0.70
-0.43
0.01
0.60
1.21
1.77
2.23
2.56
2.77
2.85
2.82
2.70
2.55
2.43
2.37
2.33
2.24
2.08
1.86
1.68
1.64
1.76
1.97
2.12
2.06
1.73
1.19
0.55
-0.04
-0.51
-0.83
-1.01
-1.08
-1.03
-0.86
-0.58
-0.22
0.17
0.52
0.77
0.95
1.05
1.14
1.25
1.37
1.48
1.52
1.41
1.11
0.63
0.04
-0.55
-1.00
-1.24
-1.25
-1.09
-0.88
-0.69
-0.54
-0.43
-0.33
-0.26
-0.27
-0.41
-0.70
-1.10
-1.52
-1.85
-2.04
-2.08
-2.01
-1.90
-1.74
-1.51
-1.16
-0.64
0.02
0.69
1.23
1.48
1.39
1.02
0.54
0.16
0.03
0.16
0.43
0.66
0.69
0.49
0.17
-0.09
-0.13
0.05
0.35
0.57
0.56
0.29
-0.17
-0.66
-1.08
-1.37
-1.53
-1.57
-1.49
-1.25
-0.83
-0.27
0.33
0.88
1.28
1.54
1.71
1.84
1.95
2.02
2.01
1.86
1.60
1.27
0.92
0.62
0.41
0.31
0.33
0.48
0.72
0.95
1.09
1.06
0.82
0.43
-0.02
-0.43
-0.70
-0.80
-0.77
-0.70
-0.68
-0.79
-1.06
-1.41
-1.73
-1.88
-1.81
-1.52
-1.10
-0.64
-0.20
0.18
0.48
0.67
0.74
0.69
0.57
0.46
0.48
0.63
0.87
1.06
1.06
0.83
0.46
0.15
0.07
0.31
0.78
1.28
1.64
1.75
1.69
1.61
1.63
1.77
1.95
2.07
2.09
2.08
2.15
2.38
2.73
3.07
3.23
3.11
2.74
2.25
1.81
1.52
1.42
1.44
1.48
1.44
1.30
1.04
0.69
0.31
-0.08
-0.45
-0.79
-1.09
-1.37
-1.65
-1.93
-2.21
-2.47
-2.65
-2.71
-2.63
-2.45
-2.26
-2.14
-2.17
-2.33
-2.55
-2.74
-2.80
-2.73
-2.58
-2.38
-2.14
-1.80
-1.31
-0.66
0.07
0.76
1.22
1.33
1.09
0.62
0.12
-0.24
-0.36
-0.18
0.29
0.88
1.37
1.63
1.73
1.91
2.32
3.00
3.90
4.79
5.23
4.74
3.07
0.33
-3.02
-6.43
-9.21
-10.54
-9.78
-6.85
-2.30
2.91
7.74
11.24
12.57
10.84
6.15
0.04
-5.35
-8.64
-9.46
-8.55
-6.13
-2.55
1.76
6.35
10.79
14.42
16.46
16.00
12.81
7.38
0.67
-6.11
-11.76
-15.39
-16.74
-16.09
-14.74
-12.82
-10.33
-7.57
-4.78
-2.10
0.42
2.57
3.98
4.54
4.13
2.72
0.12
-3.49
-7.60
-11.51
-14.69
-16.94
-18.35
-19.08
-17.92
-14.62
-9.97
-5.28
-1.53
1.16
3.30
5.81
9.75
15.74
23.29
31.11
37.42
40.46
39.25
33.86
25.44
15.92
7.34
1.12
-2.12
-2.63
-1.77
-0.90
-1.45
-4.45
-10.15
-17.95
-26.70
-34.86
-40.04
-41.27
-38.28
-31.66
-22.68
-13.06
-4.72
0.68
2.29
0.42
-3.72
-8.27
-11.56
-12.62
-11.36
-8.36
-4.39
0.01
4.84
10.23
16.29
22.64
28.35
32.18
33.08
30.78
25.81
19.60
13.97
10.59
10.29
12.77
16.82
20.74
22.87
22.22
18.50
11.99
3.28
-6.88
-17.60
-27.76
-35.57
-39.99
-40.50
-37.32
-31.46
-24.35
-17.35
-11.38
-6.77
-3.38
-0.93
0.95
2.44
3.81
5.01
5.82
5.98
5.33
4.00
2.41
1.34
1.28
2.36
4.21
6.26
8.07
9.45
10.32
10.43
9.36
6.76
2.84
-1.38
-4.16
-3.93
0.02
6.89
14.44
20.02
21.61
18.78
12.64
5.27
-1.45
-6.65
-10.36
-13.44
-16.43
-18.90
-19.67
-17.59
-12.47
-5.49
1.27
5.80
7.03
5.27
1.95
-1.17
-2.77
-2.31
-0.15
2.81
5.42
6.63
5.94
3.53
0.20
-3.03
-5.32
-6.41
-6.61
-6.62
-7.13
-8.52
-10.77
-13.45
-15.94
-17.37
-17.11
-14.73
-10.24
-4.19
2.31
7.95
11.55
12.46
10.64
6.46
0.57
-6.34
-13.45
-19.90
-24.62
-26.66
-25.44
-20.91
-13.60
-4.25
5.91
16.00
25.41
33.99
41.86
49.26
56.42
63.24
68.98
72.27
71.53
65.63
54.75
40.53
25.60
12.55
2.75
-4.07
-9.47
-15.16
-22.27
-30.54
-38.90
-46.21
-51.91
-56.13
-59.43
-62.21
-64.07
-64.82
-63.77
-60.31
-54.30
-46.26
-37.23
-28.51
-21.26
-15.81
-11.90
-8.65
-5.31
-1.67
1.82
4.53
6.16
7.22
8.81
11.92
16.83
22.70
27.81
30.28
28.91
23.62
15.49
6.41
-1.43
-6.04
-6.10
-1.38
7.28
18.10
28.97
38.08
44.48
48.20
50.07
51.23
52.58
54.07
54.88
53.63
49.04
40.56
28.90
15.81
3.46
-6.56
-13.90
-19.35
-24.14
-29.03
-33.69
-36.96
-37.74
-35.83
-32.34
-29.18
-28.02
-29.23
-31.77
-33.70
-33.12
-29.26
-22.73
-15.21
-8.46
-3.45
-0.02
2.67
5.44
8.44
11.00
12.19
11.51
9.31
6.73
5.14
5.48
7.81
11.26
14.39
15.79
14.66
11.18
6.53
2.42
0.37
0.95
3.46
6.15
7.08
5.15
0.48
-5.82
-12.39
-18.28
-23.07
-26.53
-28.25
-27.56
-23.94
-17.55
-9.52
-1.60
4.59
8.28
9.90
10.71
12.08
14.68
18.17
21.42
23.16
22.77
20.31
16.51
12.33
8.41
4.95
1.85
-1.02
-3.64
-5.91
-7.80
-9.47
-11.13
-12.84
-14.30
-14.99
-14.39
-12.32
-9.00
-4.97
-0.82
2.98
6.14
8.44
9.75
9.98
9.16
7.60
5.76
4.25
3.68
4.36
6.09
8.02
9.01
8.06
4.97
0.24
-5.16
-10.51
-15.80
-21.67
-28.77
-37.06
-45.41
-51.62
-53.42
-49.26
-39.14
-24.69
-8.52
6.65
18.89
26.30
28.88
28.19
26.39
25.12
24.83
24.87
23.91
20.56
13.76
3.82
-8.08
-19.43
-27.40
-30.20
-27.94
-22.84
-18.51
-18.50
-24.59
-35.29
-46.06
-51.41
-47.30
-32.35
-7.69
24.32
60.93
96.01
121.92
133.83
131.77
118.98
98.98
74.58
48.09
21.81
-2.18
-22.07
-36.83
-46.54
-51.82
-52.80
-48.76
-39.13
-24.99
-9.62
2.93
9.84
10.76
7.80
3.97
1.40
0.12
-1.55
-5.49
-11.83
-18.66
-23.24
-23.94
-21.28
-17.43
-15.06
-15.61
-18.94
-23.50
-27.25
-28.62
-27.02
-22.68
-16.27
-8.31
0.21
8.30
15.09
20.02
22.99
24.23
24.16
22.98
20.63
16.81
11.46
4.99
-1.65
-7.43
-11.63
-14.12
-15.25
-15.37
-14.49
-12.09
-7.62
-1.02
6.89
14.66
20.83
24.46
25.42
24.25
21.73
18.50
14.81
10.67
6.05
1.05
-4.10
-9.02
-13.22
-16.08
-16.88
-15.13
-10.86
-4.85
1.41
6.23
8.14
6.53
1.73
-5.18
-12.73
-19.75
-25.51
-29.67
-32.04
-32.50
-31.10
-28.13
-24.07
-19.35
-14.06
-7.92
-0.63
7.55
15.38
20.70
21.47
16.88
8.44
-0.25
-4.76
-1.64
10.08
28.56
49.59
67.76
77.65
75.28
59.37
32.37
0.36
-28.67
-47.64
-53.30
-47.46
-35.82
-24.93
-18.95
-18.13
-19.46
-19.12
-14.71
-6.34
3.96
13.58
20.42
23.28
21.67
16.14
7.58
-2.25
-11.21
-17.41
-19.94
-19.07
-15.97
-11.99
-7.99
-4.24
-0.39
3.93
8.63
13.05
16.18
17.17
15.78
12.79
9.59
7.58
7.46
8.68
9.50
7.93
2.67
-6.30
-17.51
-28.68
-37.43
-41.86
-41.45
-36.76
-29.08
-19.73
-9.86
0.12
9.76
18.66
26.23
31.75
34.68
34.93
32.77
29.46
26.25
23.87
22.33
20.86
18.26
13.71
6.88
-1.36
-9.34
-15.26
-18.10
-18.03
-16.39
-14.96
-15.09
-16.76
-18.52
-18.41
-15.16
-8.92
-1.31
5.41
9.40
10.07
7.96
4.22
-0.31
-5.43
-11.23
-17.41
-22.97
-26.41
-26.47
-23.05
-16.98
-9.78
-2.62
4.45
12.21
21.31
30.99
39.07
42.63
39.48
29.42
14.43
-2.13
-16.88
-27.32
-32.07
-30.52
-22.61
-9.04
8.37
26.45
41.42
49.98
50.56
43.95
32.82
20.41
9.35
0.91
-4.90
-8.73
-11.26
-12.87
-13.73
-14.05
-14.20
-14.65
-15.63
-16.98
-18.14
-18.47
-17.58
-15.55
-12.92
-10.42
-8.69
-8.05
-8.39
-9.19
-9.84
-9.75
-8.59
-6.44
-3.70
-0.96
1.25
2.61
3.11
2.92
2.32
1.60
0.99
0.61
0.54
0.77
1.25
1.89
2.59
3.22
3.62
3.68
3.35
2.68
1.86
1.12
0.62
0.42
0.41
0.40
0.27
0.00
-0.35
-0.67
-0.89
-0.96
-0.89
-0.64
-0.28
0.09
0.26
0.01
-0.80
-2.10
-3.64
-5.06
-6.05
-6.48
-6.36
-5.81
-4.98
-4.02
-3.10
-2.36
-2.00
-2.16
-2.86
-3.96
-5.17
-6.16
-6.66
-6.71
-6.41
-5.94
-5.55
-5.38
-5.48
-5.77
-6.16
-6.58
-7.01
-7.49
-7.99
-8.40
-8.54
-8.20
-7.37
-6.21
-5.09
-4.41
-4.36
-4.85
-5.52
-5.90
-5.59
-4.42
-2.47
-0.02
2.58
4.98
6.89
8.15
8.74
8.80
8.58
8.34
8.31
8.56
9.03
9.53
9.86
9.88
9.52
8.86
8.02
7.23
6.68
6.53
6.82
7.41
8.12
8.69
8.90
8.64
7.90
6.78
5.45
4.07
2.81
1.81
1.17
0.86
0.75
0.69
0.53
0.22
-0.16
-0.51
-0.65
-0.57
-0.42
-0.42
-0.75
-1.41
-2.19
-2.85
-3.25
-3.25
-2.94
-2.58
-2.45
-2.65
-3.04
-3.38
-3.47
-3.29
-2.60
-1.27
0.55
2.44
3.94
4.68
4.54
3.65
2.30
1.54
2.28
4.85
8.79
13.26
17.50
21.12
24.14
26.77
30.21
35.32
42.16
49.93
57.54
64.16
69.49
73.71
72.46
63.55
47.89
29.22
11.52
-3.03
-14.10
-22.31
-27.66
-31.48
-33.82
-34.51
-33.70
-32.08
-30.55
-29.69
-29.99
-31.36
-33.62
-35.73
-36.58
-35.62
-33.01
-29.34
-25.27
-21.16
-17.13
-13.28
-9.24
-4.63
0.52
5.73
10.37
14.07
16.94
19.38
21.71
22.91
22.14
19.25
15.00
10.29
5.79
1.75
-1.83
-5.18
-8.36
-11.20
-13.64
-15.66
-17.60
-19.83
-22.67
-26.22
-30.22
-33.86
-35.66
-34.60
-29.75
-21.49
-11.26
-0.92
7.98
14.77
19.36
22.36
24.27
24.84
23.01
17.81
9.14
-1.91
-13.33
-22.83
-28.51
-29.39
-25.47
-17.96
-8.82
0.26
7.44
11.42
11.67
8.64
3.50
-2.17
-6.87
-9.49
-9.56
-7.34
-3.55
0.86
5.02
8.28
10.31
11.02
10.64
9.58
8.26
7.08
6.37
6.30
6.87
7.97
9.43
10.96
12.39
13.55
14.23
14.15
12.97
10.40
6.37
1.16
-4.62
-10.17
-14.70
-17.48
-17.98
-15.97
-11.64
-5.64
1.04
7.22
11.75
13.79
13.05
9.91
5.23
-0.01
-4.72
-7.97
-9.08
-7.99
-5.26
-1.97
0.58
1.24
-0.65
-4.81
-10.08
-14.82
-17.91
-18.92
-18.31
-16.98
-14.81
-12.20
-9.69
-8.40
-8.00
-8.29
-8.86
-9.61
-10.35
-10.80
-10.88
-10.51
-9.71
-8.54
-7.32
-6.34
-5.81
-5.73
-5.99
-6.57
-7.40
-8.34
-9.12
-9.53
-9.36
-8.44
-6.69
-4.17
-1.23
1.80
4.64
7.25
9.61
11.79
13.80
15.57
16.99
17.86
18.07
17.65
16.75
15.58
14.34
13.17
12.14
11.18
10.15
8.83
7.10
4.97
2.55
0.04
-2.37
-4.61
-6.70
-8.66
-10.53
-12.26
-13.82
-15.18
-16.31
-17.16
-17.60
-17.39
-16.27
-14.13
-11.08
-7.48
-3.85
-0.65
1.81
3.46
4.38
4.82
5.02
5.26
5.76
6.68
8.08
9.89
11.94
14.01
15.88
17.39
18.51
19.23
19.59
19.62
19.30
18.60
17.49
15.96
14.10
12.02
9.91
7.93
6.19
4.74
3.54
2.50
1.52
0.57
-0.37
-1.21
-1.89
-2.33
-2.50
-2.45
-2.24
-2.01
-1.83
-1.76
-1.78
-1.82
-1.77
-1.58
-1.24
-0.81
-0.42
-0.18
-0.17
-0.35
-0.63
-0.84
-0.81
-0.40
0.41
1.51
2.68
3.64
4.12
3.96
3.16
1.92
0.53
-0.71
-1.61
-2.12
-2.32
-2.33
-2.27
-2.21
-2.18
-2.16
-2.13
-2.05
-1.85
-1.52
-1.08
-0.61
-0.27
-0.20
-0.44
-0.92
-1.46
-1.92
-2.21
-2.38
-2.54
-2.78
-3.14
-3.55
-3.94
-4.25
-4.54
-4.87
-5.34
-5.96
-6.69
-7.46
-8.20
-8.89
-9.54
-10.14
-10.67
-11.05
-11.18
-11.00
-10.50
-9.70
-8.66
-7.48
-6.25
-5.05
-3.89
-2.81
-1.85
-1.12
-0.69
-0.61
-0.84
-1.20
-1.39
-1.08
-0.05
1.68
3.82
6.02
7.95
9.36
10.13
10.32
10.07
9.57
8.95
8.32
7.98
8.15
8.86
9.90
10.97
11.84
12.45
12.87
13.13
13.57
14.35
15.37
16.29
16.85
17.00
16.94
16.88
16.92
17.54
19.06
21.58
24.91
28.78
33.02
37.56
42.25
43.96
40.58
32.03
20.32
7.90
-3.73
-13.98
-22.49
-28.69
-31.95
-31.60
-27.85
-21.96
-15.80
-11.19
-9.05
-9.26
-10.90
-12.87
-14.05
-13.92
-12.61
-10.63
-8.50
-6.54
-4.87
-3.63
-3.09
-3.36
-4.49
-6.37
-8.74
-11.21
-13.27
-14.49
-14.66
-13.85
-12.28
-10.23
-8.01
-5.91
-4.08
-2.48
-1.00
0.48
1.92
3.14
3.85
3.79
2.85
1.16
-0.95
-3.07
-4.89
-6.23
-7.02
-7.30
-7.09
-6.45
-5.50
-4.39
-3.33
-2.50
-2.04
-1.99
-2.39
-3.25
-4.57
-6.26
-8.11
-9.78
-10.91
-11.28
-10.92
-10.12
-9.30
-8.83
-8.86
-9.25
-9.67
-9.77
-9.38
-8.59
-7.65
-6.85
-6.36
-6.16
-6.12
-6.07
-5.88
-5.48
-4.87
-4.02
-2.96
-1.71
-0.35
1.01
2.31
3.50
4.57
5.52
6.27
6.75
6.90
6.75
6.46
6.22
6.18
6.37
6.65
6.87
6.94
6.92
6.96
7.20
7.62
8.09
8.41
8.45
8.21
7.81
7.39
6.99
6.56
6.02
5.33
4.54
3.74
3.02
2.39
1.80
1.21
0.65
0.18
-0.14
-0.30
-0.45
-0.79
-1.48
-2.54
-3.81
-4.99
-5.83
-6.22
-6.25
-6.12
-5.96
-5.77
-5.39
-4.64
-3.48
-2.03
-0.54
0.80
1.98
3.10
4.28
5.51
6.57
7.21
7.29
6.98
6.71
6.95
8.02
9.93
12.39
14.90
17.02
18.40
18.89
18.46
17.16
15.11
12.54
9.81
7.33
5.47
4.38
3.95
3.97
4.12
4.01
3.39
2.24
0.45
-1.82
-4.38
-7.04
-9.76
-12.16
-14.18
-15.87
-17.33
-18.65
-19.74
-20.47
-20.69
-20.32
-19.41
-18.10
-16.58
-14.97
-13.37
-11.82
-10.39
-9.15
-8.10
-7.19
-6.38
-5.61
-4.91
-4.36
-4.02
-3.86
-3.71
-3.31
-2.45
-1.10
0.52
2.05
3.15
3.68
3.73
3.58
3.50
3.60
3.81
3.92
3.76
3.30
2.66
2.04
1.56
1.26
1.05
0.84
0.61
0.44
0.44
0.69
1.14
1.63
1.98
2.03
1.81
1.44
1.07
0.78
0.60
0.51
0.51
0.63
0.86
1.17
1.45
1.57
1.46
1.13
0.64
0.08
-0.53
-1.17
-1.85
-2.47
-2.91
-3.07
-3.00
-2.85
-2.86
-3.24
-3.98
-4.88
-5.60
-5.83
-5.49
-4.78
-4.04
-3.60
-3.63
-4.01
-4.44
-4.57
-4.22
-3.45
-2.49
-1.48
-0.51
0.42
1.34
2.15
2.70
2.82
2.43
1.64
0.98
0.96
1.82
3.31
4.86
5.94
6.46
6.82
7.80
10.32
14.71
20.50
26.62
31.90
35.67
37.85
38.75
37.11
32.15
23.79
12.82
0.73
-10.79
-19.93
-25.13
-25.62
-21.81
-15.07
-7.45
-1.10
3.07
4.94
5.15
4.66
4.20
3.97
3.88
3.57
2.72
1.24
-0.75
-3.04
-5.36
-7.57
-9.70
-11.32
-12.09
-11.92
-10.98
-9.52
-7.68
-5.58
-3.56
-2.10
-1.60
-2.20
-3.66
-5.37
-6.62
-7.18
-6.92
-6.11
-5.17
-4.42
-3.95
-3.66
-3.30
-2.64
-1.62
-0.31
1.01
2.02
2.50
2.54
2.28
1.95
1.78
1.86
2.14
2.42
2.50
2.27
1.75
1.02
0.18
-0.71
-1.66
-2.68
-3.74
-4.80
-5.78
-6.66
-7.48
-8.33
-9.28
-10.33
-11.46
-12.58
-13.65
-14.60
-15.43
-16.11
-16.58
-16.76
-16.59
-16.04
-15.13
-13.93
-12.51
-10.92
-9.22
-7.45
-5.64
-3.88
-2.23
-0.77
0.47
1.49
2.36
3.15
3.98
4.91
5.94
6.97
7.80
8.28
8.33
8.01
7.47
6.88
6.37
5.98
5.64
5.27
4.77
4.13
3.38
2.57
1.76
1.03
0.47
0.14
0.03
0.07
0.13
0.03
-0.35
-1.02
-1.79
-2.39
-2.65
-2.60
-2.44
-2.38
-2.61
-3.11
-3.74
-4.11
-3.87
-2.97
-1.62
-0.15
1.19
2.21
3.00
3.68
4.78
6.68
9.41
12.65
15.90
18.78
21.04
22.89
24.56
26.78
30.10
34.66
40.14
46.08
52.12
57.91
63.52
65.22
60.30
48.41
32.15
15.24
0.35
-10.04
-17.06
-21.78
-24.98
-26.60
-26.47
-25.02
-22.91
-20.91
-19.66
-19.61
-20.57
-22.12
-23.43
-23.89
-23.43
-22.44
-21.61
-21.34
-21.74
-22.35
-22.66
-22.10
-20.41
-17.76
-14.52
-11.18
-7.98
-5.15
-2.65
-0.51
1.30
2.79
3.91
4.66
5.12
5.43
5.75
6.20
6.77
7.42
8.02
8.45
8.71
8.88
9.11
9.48
9.99
10.53
11.02
11.38
11.59
11.68
11.78
11.98
12.30
12.60
12.70
12.49
11.87
10.81
9.43
8.00
6.82
6.20
6.22
6.12
5.43
3.77
0.94
-3.16
-8.42
-14.45
-20.50
-25.92
-30.21
-32.88
-33.84
-33.45
-32.41
-31.46
-31.01
-30.42
-28.32
-23.49
-15.59
-5.90
3.22
9.64
12.66
13.17
12.93
13.35
14.77
16.87
18.44
18.67
17.52
15.51
13.44
11.94
11.27
11.24
11.47
11.49
10.91
9.75
8.25
6.80
5.73
5.17
5.02
5.03
4.91
4.57
4.14
3.89
4.04
4.71
5.72
6.75
7.44
7.48
6.83
5.69
4.39
3.24
2.41
1.81
1.15
0.13
-1.42
-3.46
-5.68
-7.72
-9.27
-10.22
-10.66
-10.85
-11.08
-11.59
-12.49
-13.73
-15.15
-16.53
-17.67
-18.45
-18.88
-19.06
-19.12
-19.16
-19.22
-19.29
-19.32
-19.31
-19.28
-19.26
-19.22
-19.09
-18.74
-18.09
-17.09
-15.82
-14.38
-12.89
-11.44
-10.06
-8.78
-7.69
-6.89
-6.45
-6.30
-6.24
-5.97
-5.25
-4.00
-2.41
-0.83
0.36
0.92
0.81
0.26
-0.40
-0.84
-0.89
-0.51
0.18
1.06
2.02
3.02
4.06
5.12
6.16
7.13
7.97
8.67
9.27
9.81
10.38
11.03
11.78
12.58
13.34
13.92
14.21
14.19
13.94
13.63
13.43
13.41
13.54
13.70
13.77
13.76
13.73
13.81
14.05
14.37
14.57
14.49
14.00
13.14
12.02
10.78
9.53
8.40
7.52
7.08
7.24
8.05
9.39
10.95
12.34
13.24
13.49
13.22
12.71
12.34
12.44
13.16
14.49
16.17
17.87
19.17
19.72
19.31
17.84
15.43
12.34
8.93
5.58
2.55
-0.05
-2.31
-4.45
-6.66
-9.06
-11.65
-14.33
-16.96
-19.41
-21.60
-23.48
-25.03
-26.26
-27.25
-28.09
-28.86
-29.57
-30.12
-30.31
-29.92
-28.80
-26.94
-24.50
-21.78
-19.14
-16.88
-15.17
-13.96
-13.05
-12.11
-10.89
-9.22
-7.13
-4.75
-2.29
0.07
2.25
4.26
6.16
8.00
9.81
11.52
13.11
14.53
15.80
16.97
18.07
19.10
20.07
21.01
21.98
23.09
24.35
25.70
26.93
27.81
28.18
28.06
27.57
26.96
26.41
26.00
25.64
25.20
24.51
23.42
21.85
19.77
17.14
13.98
10.33
6.30
2.01
-2.42
-6.90
-11.42
-16.02
-20.70
-25.39
-29.91
-34.01
-37.44
-40.02
-41.64
-42.29
-42.03
-40.93
-39.10
-36.72
-34.02
-31.32
-28.92
-26.97
-25.44
-24.09
-22.64
-20.88
-18.76
-16.37
-13.86
-11.31
-8.76
-6.19
-3.61
-1.09
1.27
3.39
5.22
6.75
7.99
8.94
9.63
10.07
10.30
10.35
10.25
9.98
9.55
8.99
8.42
7.98
7.79
7.90
8.25
8.74
9.24
9.63
9.85
9.83
9.52
8.86
7.84
6.56
5.21
4.05
3.29
3.02
3.19
3.63
4.09
4.39
4.41
4.14
3.66
3.12
2.66
2.37
2.28
2.33
2.49
2.75
3.09
3.51
3.90
4.10
3.94
3.36
2.46
1.47
0.63
0.08
-0.21
-0.37
-0.55
-0.83
-1.16
-1.48
-1.78
-2.12
-2.60
-3.26
-3.98
-4.55
-4.71
-4.37
-3.60
-2.64
-1.77
-1.18
-0.90
-0.80
-0.76
-0.68
-0.55
-0.42
-0.34
-0.30
-0.30
-0.32
-0.38
-0.56
-0.91
-1.45
-2.15
-2.88
-3.46
-3.71
-3.50
-2.88
-2.08
-1.45
-1.29
-1.72
-2.58
-3.50
-4.09
-4.13
-3.67
-2.97
-2.36
-2.07
-2.13
-2.44
-2.84
-3.22
-3.50
-3.63
-3.57
-3.31
-2.89
-2.41
-1.99
-1.73
-1.67
-1.68
-1.58
-1.21
-0.44
0.69
2.03
3.41
4.69
5.82
6.81
7.70
8.52
9.24
9.78
10.04
9.97
9.54
8.81
7.88
6.91
6.03
5.36
4.93
4.66
4.42
4.09
3.59
2.99
2.41
2.01
1.88
2.03
2.36
2.72
2.97
3.07
3.01
2.81
2.51
2.11
1.59
0.99
0.37
-0.19
-0.67
-1.11
-1.59
-2.18
-2.89
-3.61
-4.17
-4.44
-4.38
-4.06
-3.58
-3.10
-2.67
-2.34
-2.07
-1.87
-1.71
-1.61
-1.56
-1.51
-1.38
-1.12
-0.67
-0.08
0.56
1.11
1.43
1.43
1.13
0.62
0.05
-0.44
-0.80
-1.02
-1.14
-1.26
-1.41
-1.59
-1.79
-1.91
-1.92
-1.81
-1.62
-1.41
-1.26
-1.21
-1.27
-1.42
-1.62
-1.84
-2.08
-2.34
-2.60
-2.86
-3.12
-3.39
-3.66
-3.94
-4.18
-4.32
-4.35
-4.30
-4.24
-4.28
-4.46
-4.69
-4.86
-4.80
-4.42
-3.71
-2.78
-1.77
-0.79
0.10
0.92
1.70
2.48
3.30
4.14
4.97
5.78
6.56
7.33
8.05
8.66
9.08
9.18
8.87
8.15
7.09
5.83
4.59
3.55
2.84
2.49
2.38
2.33
2.15
1.66
0.83
-0.24
-1.35
-2.28
-2.89
-3.15
-3.16
-3.05
-2.97
-2.98
-3.06
-3.19
-3.30
-3.37
-3.35
-3.18
-2.78
-2.05
-0.93
0.60
2.49
4.62
6.88
9.15
11.35
13.40
15.22
16.66
17.59
17.87
17.47
16.47
15.12
13.71
12.51
11.64
11.06
10.62
10.16
9.63
9.10
8.77
8.82
9.34
10.26
11.34
12.26
12.69
12.40
11.31
9.51
7.23
4.81
2.60
0.94
0.05
-0.03
0.55
1.41
2.08
2.06
1.03
-1.06
-3.95
-7.16
-10.16
-12.54
-14.14
-15.06
-15.58
-15.96
-16.41
-16.94
-17.42
-17.69
-17.57
-17.03
-16.13
-15.00
-13.79
-12.63
-11.55
-10.53
-9.54
-8.56
-7.59
-6.62
-5.62
-4.54
-3.30
-1.91
-0.44
0.99
2.25
3.23
3.87
4.19
4.26
4.18
4.09
4.17
4.51
5.16
6.03
6.92
7.59
7.82
7.51
6.68
5.50
4.17
2.89
1.82
1.04
0.60
0.49
0.70
1.13
1.66
2.07
2.10
1.56
0.37
-1.38
-3.41
-5.32
-6.79
-7.63
-7.85
-7.62
-7.24
-6.96
-6.95
-7.19
-7.58
-7.95
-8.15
-8.08
-7.72
-7.10
-6.26
-5.28
-4.23
-3.21
-2.33
-1.67
-1.24
-1.01
-0.89
-0.80
-0.70
-0.59
-0.52
-0.54
-0.63
-0.73
-0.74
-0.58
-0.22
0.31
0.86
1.32
1.56
1.53
1.25
0.71
-0.07
-1.12
-2.42
-3.88
-5.29
-6.42
-7.08
-7.22
-7.00
-6.67
-6.49
-6.56
-6.82
-7.08
-7.15
-6.96
-6.56
-6.07
-5.61
-5.18
-4.75
-4.24
-3.65
-3.04
-2.50
-2.12
-1.91
-1.82
-1.76
-1.63
-1.41
-1.15
-0.90
-0.76
-0.73
-0.79
-0.85
-0.79
-0.55
-0.15
0.37
0.90
1.37
1.78
2.14
2.46
2.74
2.91
2.88
2.62
2.18
1.69
1.31
1.15
1.20
1.37
1.52
1.54
1.38
1.09
0.72
0.34
0.00
-0.27
-0.43
-0.49
-0.43
-0.29
-0.14
-0.02
0.07
0.14
0.22
0.30
0.34
0.29
0.10
-0.21
-0.55
-0.82
-0.92
-0.84
-0.65
-0.46
-0.41
-0.54
-0.79
-1.01
-1.04
-0.79
-0.31
0.22
0.61
0.72
0.58
0.32
0.14
0.16
0.42
0.83
1.26
1.55
1.62
1.47
1.18
0.89
0.71
0.76
1.03
1.49
2.03
2.53
2.86
2.90
2.57
1.90
1.02
0.17
-0.40
-0.52
-0.18
0.44
1.10
1.58
1.85
1.99
2.15
2.42
2.77
3.05
3.15
3.01
2.72
2.37
2.05
1.79
1.54
1.28
0.98
0.69
0.48
0.40
0.44
0.55
0.61
0.52
0.23
-0.22
-0.72
-1.10
-1.20
-0.96
-0.46
0.11
0.52
0.59
0.29
-0.26
-0.85
-1.24
-1.32
-1.12
-0.75
-0.39
-0.12
0.02
0.04
0.01
-0.05
-0.12
-0.19
-0.22
-0.19
-0.12
-0.02
0.07
0.11
0.09
0.01
-0.11
-0.25
-0.44
-0.67
-0.94
-1.22
-1.41
-1.44
-1.20
-0.65
0.21
1.30
2.47
3.57
4.47
5.14
5.61
5.97
6.31
6.63
6.90
7.02
6.93
6.64
6.22
5.79
5.44
5.23
5.11
5.01
4.85
4.60
4.24
3.78
3.25
2.64
1.94
1.14
0.23
-0.73
-1.68
-2.55
-3.30
-3.91
-4.40
-4.76
-4.96
-5.02
-4.96
-4.85
-4.81
-4.90
-5.09
-5.29
-5.36
-5.22
-4.90
-4.47
-4.05
-3.69
-3.40
-3.20
-3.07
-3.04
-3.08
-3.13
-3.06
-2.76
-2.19
-1.44
-0.69
-0.14
0.08
-0.03
-0.37
-0.78
-1.16
-1.42
-1.56
-1.55
-1.38
-1.04
-0.55
0.05
0.62
1.09
1.41
1.59
1.72
1.86
2.02
2.17
2.23
2.16
1.99
1.80
1.66
1.61
1.65
1.77
2.00
2.33
2.75
3.19
3.55
3.74
3.68
3.40
3.00
2.57
2.18
1.80
1.45
1.22
1.20
1.46
1.93
2.46
2.83
2.82
2.30
1.47
0.63
0.11
-0.01
0.15
0.36
0.43
0.30
0.06
0.08
0.79
2.49
5.19
8.69
12.69
16.92
21.19
24.19
24.78
22.50
18.07
12.71
7.41
2.57
-1.84
-5.94
-9.85
-13.35
-16.08
-17.68
-17.93
-16.84
-14.55
-11.57
-8.21
-5.02
-2.48
-0.91
-0.38
-0.72
-1.54
-2.39
-2.95
-3.09
-2.99
-2.81
-2.59
-2.26
-1.77
-1.09
-0.36
0.18
0.35
0.02
-0.67
-1.42
-1.90
-1.94
-1.56
-0.93
-0.25
0.39
0.96
1.54
2.18
2.86
3.46
3.80
3.69
3.08
2.08
0.90
-0.16
-0.86
-1.11
-0.99
-0.68
-0.40
-0.27
-0.29
-0.37
-0.38
-0.26
-0.03
0.24
0.45
0.53
0.48
0.33
0.12
-0.06
-0.17
-0.16
0.01
0.34
0.75
1.13
1.32
1.21
0.75
0.02
-0.83
-1.67
-2.40
-3.00
-3.51
-3.93
-4.21
-4.28
-4.10
-3.68
-3.10
-2.45
-1.84
-1.35
-1.01
-0.90
-1.07
-1.52
-2.19
-2.96
-3.67
-4.16
-4.38
-4.39
-4.32
-4.30
-4.39
-4.60
-4.88
-5.17
-5.43
-5.65
-5.88
-6.16
-6.53
-6.93
-7.33
-7.72
-8.07
-8.35
-8.53
-8.60
-8.54
-8.33
-7.89
-7.14
-6.03
-4.48
-2.39
0.28
3.42
6.85
10.27
13.49
16.29
18.24
18.81
17.81
15.60
12.87
10.40
8.32
6.64
5.28
4.11
3.07
2.18
1.41
0.72
-0.01
-0.87
-1.84
-2.89
-3.91
-4.81
-5.48
-5.87
-6.07
-6.22
-6.45
-6.77
-7.09
-7.27
-7.17
-6.71
-5.97
-5.16
-4.48
-4.02
-3.60
-2.96
-1.85
-0.23
1.71
3.64
5.25
6.39
7.09
7.49
7.70
7.74
7.54
7.07
6.42
5.77
5.33
5.17
5.22
5.21
4.84
3.89
2.33
0.38
-1.57
-3.17
-4.18
-4.63
-4.70
-4.68
-4.78
-5.06
-5.45
-5.80
-5.96
-5.85
-5.42
-4.54
-3.05
-0.84
2.11
5.65
9.53
13.40
16.93
19.80
21.75
22.55
21.97
19.93
16.61
12.47
8.22
4.50
1.85
0.53
0.50
1.52
3.09
4.62
5.59
6.10
6.26
6.15
5.64
4.64
3.03
0.77
-1.96
-4.77
-7.17
-8.82
-9.59
-9.60
-9.10
-8.33
-7.38
-6.26
-5.02
-3.91
-3.34
-3.71
-5.12
-7.20
-9.26
-10.56
-10.62
-9.47
-7.62
-5.71
-4.29
-3.52
-3.22
-3.02
-2.64
-1.99
-1.22
-0.55
-0.04
0.43
1.12
2.21
3.74
5.43
6.93
7.76
7.57
6.25
3.93
0.86
-2.63
-6.21
-9.67
-11.89
-12.01
-9.95
-6.63
-3.33
-0.92
-0.19
-0.66
-1.83
-3.33
-5.09
-7.24
-9.25
-10.74
-11.30
-10.64
-8.60
-5.34
-1.22
3.10
7.01
10.06
12.11
13.34
14.13
14.89
15.83
17.03
18.42
19.93
21.58
23.30
24.93
26.06
26.22
24.92
21.96
17.50
11.96
5.94
-0.09
-5.82
-11.17
-16.15
-20.80
-25.09
-28.88
-32.03
-34.43
-36.11
-37.07
-37.35
-36.84
-35.40
-32.88
-29.27
-24.77
-19.80
-14.79
-10.09
-5.80
-1.87
1.82
5.35
8.64
11.53
13.92
15.81
17.35
18.69
19.89
20.78
21.02
20.24
18.25
15.11
11.17
6.88
2.62
-1.40
-5.16
-8.73
-12.09
-15.10
-17.52
-19.17
-20.02
-20.17
-19.82
-19.15
-18.26
-17.19
-15.98
-14.72
-13.53
-12.51
-11.61
-10.71
-9.63
-8.29
-6.77
-5.26
-3.98
-3.09
-2.64
-2.56
-2.76
-3.22
-3.96
-5.00
-6.12
-7.04
-7.48
-7.29
-6.50
-5.25
-3.78
-2.24
-0.70
1.04
3.06
5.21
7.09
8.38
9.08
9.50
10.23
11.64
14.07
17.36
20.94
24.14
26.59
28.42
29.89
31.35
32.85
34.69
37.12
40.25
44.01
48.14
52.34
56.07
59.09
58.12
51.39
39.54
25.50
12.41
1.80
-5.30
-10.29
-14.08
-17.03
-18.65
-18.44
-16.60
-13.74
-10.83
-8.74
-8.21
-9.38
-12.05
-15.45
-18.77
-21.51
-23.52
-24.95
-25.93
-26.64
-27.09
-27.30
-27.10
-26.33
-25.01
-23.32
-21.53
-19.82
-18.30
-16.78
-15.02
-12.78
-10.01
-6.99
-4.15
-1.94
-0.53
0.15
0.40
0.58
0.94
1.61
2.55
3.63
4.73
5.75
6.62
7.28
7.68
7.74
7.40
6.71
5.87
5.18
4.95
5.31
6.07
6.77
6.82
5.77
3.54
0.48
-2.79
-5.58
-7.43
-8.14
-7.84
-6.81
-5.38
-3.87
-2.50
-1.45
-0.88
-0.83
-1.26
-1.98
-2.74
-3.24
-3.29
-2.89
-2.22
-1.56
-1.13
-1.01
-1.09
-1.16
-1.07
-0.77
-0.36
0.02
0.21
0.17
-0.10
-0.55
-1.16
-1.89
-2.68
-3.39
-3.86
-3.97
-3.61
-2.79
-1.59
-0.17
1.31
2.70
3.89
4.78
5.33
5.63
5.83
6.05
6.34
6.70
7.10
7.52
7.93
8.28
8.71
9.33
10.08
10.79
11.28
11.49
11.49
11.33
10.96
10.48
9.91
9.17
8.08
6.65
5.13
3.88
3.17
3.12
4.12
6.47
10.19
15.00
20.45
26.17
31.83
37.14
39.49
37.11
30.06
20.30
10.03
0.45
-8.10
-15.68
-22.21
-27.42
-30.62
-31.27
-29.44
-25.85
-21.69
-17.61
-14.09
-11.41
-9.70
-8.56
-7.42
-5.93
-4.12
-2.31
-0.73
0.39
0.92
0.87
0.51
0.39
1.01
2.60
5.10
8.42
12.27
16.28
20.10
23.64
27.01
30.20
32.98
33.98
32.36
28.29
22.69
16.24
8.79
-0.33
-11.70
-25.12
-39.39
-52.55
-62.88
-69.64
-73.26
-74.68
-74.50
-72.60
-68.31
-61.10
-51.14
-39.58
-28.17
-18.58
-11.66
-7.30
-4.74
-3.07
-1.52
0.52
3.50
7.55
12.56
17.96
22.93
26.71
28.95
29.78
29.78
29.22
28.73
28.51
28.62
29.13
30.07
31.17
31.75
31.03
28.54
24.58
20.09
16.14
13.39
11.67
10.15
8.00
4.91
1.31
-1.94
-4.23
-5.59
-6.60
-8.01
-10.19
-12.85
-15.26
-16.56
-16.24
-14.47
-11.96
-9.66
-8.41
-8.48
-9.54
-10.77
-11.17
-10.10
-7.62
-4.41
-1.61
-0.31
-1.04
-3.56
-7.01
-10.12
-11.62
-10.53
-6.35
0.69
9.46
17.91
23.54
24.20
19.10
9.33
-2.36
-12.62
-18.85
-20.20
-17.64
-13.19
-8.82
-5.53
-3.29
-1.41
0.83
3.75
7.15
10.54
13.16
14.20
13.04
9.40
3.64
-3.17
-9.45
-13.61
-14.64
-12.48
-7.95
-2.40
2.86
6.83
8.91
8.89
6.76
2.65
-2.96
-9.11
-14.12
-16.21
-14.24
-8.34
-0.11
7.92
13.34
14.89
12.27
6.79
0.54
-4.70
-8.25
-10.54
-12.60
-15.26
-18.60
-21.92
-24.02
-23.87
-21.00
-15.62
-8.49
-0.80
6.05
10.70
12.10
9.92
4.74
-2.00
-8.26
-12.15
-12.51
-9.38
-3.89
2.17
7.16
9.96
10.21
8.21
4.86
1.65
0.39
2.64
8.93
18.05
27.22
33.05
33.07
26.99
16.87
6.07
-2.34
-6.88
-7.95
-7.07
-5.76
-4.77
-4.10
-3.52
-3.14
-3.47
-5.04
-7.92
-11.47
-14.57
-16.16
-15.76
-13.61
-10.46
-7.16
-4.31
-2.22
-0.95
-0.57
-1.21
-2.96
-5.72
-9.04
-12.19
-14.32
-14.69
-12.94
-9.10
-3.67
2.52
8.44
13.05
15.55
15.68
13.84
11.09
8.94
8.84
11.68
17.21
24.05
30.02
32.96
31.65
26.25
18.12
9.16
0.94
-5.83
-11.23
-15.61
-19.11
-21.35
-21.72
-19.82
-15.86
-10.73
-5.75
-2.20
-0.94
-2.13
-5.20
-9.02
-12.20
-13.55
-12.36
-8.71
-3.41
2.36
7.41
11.04
13.14
14.17
14.85
15.84
17.45
19.56
21.75
23.41
24.07
23.48
21.65
18.78
15.10
10.72
5.73
0.30
-5.12
-9.65
-12.33
-12.45
-10.04
-6.00
-1.83
0.93
1.33
-0.72
-4.50
-8.85
-12.68
-15.28
-16.41
-16.22
-15.08
-13.48
-11.88
-10.67
-10.06
-9.96
-10.05
-9.84
-8.88
-6.92
-3.91
-0.10
4.07
8.02
11.20
13.19
13.85
13.37
12.19
10.91
9.96
9.54
9.49
9.41
8.92
7.79
6.06
3.91
1.57
-0.90
-3.49
-6.23
-8.98
-11.45
-13.28
-14.24
-14.33
-13.80
-13.04
-12.38
-11.95
-11.64
-11.25
-10.57
-9.57
-8.35
-7.07
-5.86
-4.69
-3.46
-2.09
-0.64
0.63
1.35
1.21
0.12
-1.67
-3.68
-5.39
-6.40
-6.55
-5.89
-4.64
-3.09
-1.54
-0.33
0.21
-0.18
-1.55
-3.62
-5.84
-7.44
-7.81
-6.66
-4.17
-0.92
2.37
5.09
6.93
7.93
8.43
8.83
9.46
10.46
11.75
13.07
14.13
14.72
14.83
14.62
14.44
14.62
15.47
17.13
19.59
22.65
25.93
28.90
30.99
31.80
31.37
30.23
29.17
28.80
29.05
29.12
27.73
23.92
17.58
9.61
1.52
-5.40
-10.59
-14.40
-17.65
-21.02
-24.53
-27.63
-29.46
-29.35
-27.10
-23.01
-17.69
-11.92
-6.50
-2.20
0.38
0.86
-0.76
-4.08
-8.32
-12.53
-15.74
-17.21
-16.50
-13.55
-8.66
-2.48
4.14
10.24
14.93
17.62
18.10
16.67
14.09
11.46
10.01
10.77
14.17
19.66
25.74
30.28
31.30
27.82
20.25
10.27
0.04
-8.69
-15.28
-20.09
-23.91
-27.28
-30.01
-31.32
-30.37
-26.86
-21.31
-14.89
-8.99
-4.79
-2.87
-3.20
-5.24
-8.07
-10.63
-11.84
-10.86
-7.27
-1.23
6.48
14.64
21.92
27.22
29.95
30.28
29.07
27.70
27.55
29.37
32.87
36.58
38.36
36.38
29.92
19.81
8.07
-2.98
-11.73
-17.81
-21.89
-25.01
-27.83
-30.32
-31.92
-31.97
-30.22
-26.99
-23.00
-19.10
-15.98
-14.10
-13.67
-14.63
-16.65
-19.06
-20.97
-21.50
-20.02
-16.45
-11.30
-5.41
0.47
5.90
10.84
15.36
19.41
22.90
25.57
27.25
27.89
27.67
26.92
25.95
25.07
24.59
25.18
27.17
30.13
32.70
33.17
30.28
23.89
15.15
5.98
-1.14
-4.70
-4.68
-2.38
0.52
2.99
4.86
6.66
9.02
13.09
19.49
27.99
37.55
46.98
55.50
62.88
69.22
69.74
61.32
43.99
21.33
-1.97
-22.36
-37.97
-48.25
-53.72
-55.66
-54.97
-52.54
-48.88
-44.43
-39.56
-34.57
-29.86
-25.96
-23.41
-21.94
-21.28
-21.09
-21.16
-21.37
-21.58
-21.67
-21.56
-21.30
-20.68
-19.58
-17.95
-15.85
-13.32
-10.41
-7.38
-4.80
-3.47
-3.76
-5.47
-7.77
-9.72
-10.58
-10.17
-8.89
-7.43
-6.36
-5.76
-5.22
-4.14
-2.20
0.48
3.35
5.73
7.21
7.83
8.19
9.13
11.45
15.52
21.06
27.10
32.29
35.31
35.05
30.61
21.54
8.19
-8.01
-24.69
-39.22
-49.72
-55.71
-58.25
-59.06
-59.50
-59.81
-59.13
-56.22
-50.34
-41.75
-31.55
-21.20
-11.88
-4.19
1.77
6.19
9.34
11.52
12.98
13.94
14.54
14.92
15.24
15.81
17.02
19.16
22.15
25.39
27.85
28.42
26.42
21.97
16.11
10.42
6.36
4.69
5.13
6.62
7.90
8.23
7.76
7.50
8.50
11.38
15.84
20.73
24.57
26.11
24.86
21.10
15.47
9.00
2.33
-4.28
-10.62
-16.27
-20.52
-22.52
-21.66
-17.90
-11.92
-5.03
1.28
5.73
7.71
7.32
5.26
2.50
-0.12
-2.11
-3.48
-4.52
-5.56
-6.75
-8.01
-9.06
-9.59
-9.42
-8.58
-7.24
-5.72
-4.27
-3.09
-2.21
-1.54
-0.96
-0.43
0.05
0.42
0.60
0.61
0.57
0.57
0.63
0.67
0.59
0.32
-0.06
-0.39
-0.48
-0.27
0.16
0.58
0.77
0.64
0.25
-0.24
-0.62
-0.75
-0.61
-0.25
0.23
0.74
1.17
1.45
1.52
1.37
1.01
0.49
-0.11
-0.67
-1.14
-1.48
-1.71
-1.88
-2.09
-2.39
-2.79
-3.26
-3.73
-4.13
-4.44
-4.64
-4.76
-4.84
-4.91
-5.03
-5.22
-5.48
-5.77
-6.00
-6.01
-5.71
-5.01
-3.88
-2.40
-0.71
0.97
2.43
3.50
4.15
4.42
4.48
4.50
4.60
4.77
4.91
4.84
4.47
3.78
2.91
2.03
1.30
0.79
0.49
0.30
0.12
-0.11
-0.41
-0.76
-1.19
-1.71
-2.38
-3.18
-4.03
-4.74
-5.09
-4.91
-4.17
-2.98
-1.53
-0.05
1.35
2.62
3.78
4.82
5.69
6.28
6.52
6.41
6.05
5.56
5.02
4.45
3.81
3.05
2.15
1.21
0.34
-0.33
-0.72
-0.83
-0.78
-0.68
-0.68
-0.90
-1.38
-2.10
-2.96
-3.81
-4.48
-4.77
-4.53
-3.72
-2.39
-0.71
1.08
2.76
4.18
5.26
6.04
6.60
6.99
7.24
7.33
7.20
6.81
6.20
5.43
4.62
3.87
3.21
2.62
2.04
1.39
0.65
-0.15
-0.93
-1.57
-2.05
-2.42
-2.77
-3.25
-3.91
-4.72
-5.54
-6.17
-6.44
-6.24
-5.57
-4.53
-3.29
-2.00
-0.80
0.26
1.15
1.90
2.52
3.01
3.34
3.51
3.55
3.53
3.51
3.46
3.31
2.95
2.34
1.53
0.68
0.02
-0.30
-0.28
-0.07
0.11
0.08
-0.26
-0.95
-1.93
-3.09
-4.31
-5.51
-6.60
-7.42
-7.76
-7.43
-6.43
-4.93
-3.09
-1.11
0.71
2.08
2.85
3.01
2.69
2.06
1.33
1.03
1.64
3.30
5.76
8.59
11.35
13.73
15.60
17.01
18.59
20.90
24.10
27.83
31.54
34.71
37.02
38.41
36.48
30.22
20.61
10.15
0.96
-6.16
-11.36
-15.01
-17.38
-18.61
-18.49
-17.08
-14.85
-12.53
-10.73
-9.69
-9.39
-9.78
-10.80
-12.07
-13.17
-13.81
-13.88
-13.47
-12.67
-11.59
-10.44
-9.43
-8.47
-7.32
-5.80
-3.96
-2.03
-0.38
0.57
0.48
-0.75
-2.78
-4.96
-6.75
-7.98
-8.87
-9.80
-11.04
-12.32
-13.18
-13.00
-11.30
-8.10
-4.03
-0.05
2.93
4.40
4.36
3.22
1.73
0.89
1.50
3.87
7.63
11.91
15.62
17.92
18.58
17.35
14.88
12.40
10.90
10.53
10.82
11.22
11.38
10.92
9.34
6.15
1.11
-5.41
-12.25
-17.76
-20.50
-19.91
-16.60
-12.01
-7.61
-4.45
-2.86
-2.57
-2.96
-3.39
-3.39
-2.76
-1.49
0.35
2.49
4.67
6.46
7.47
7.45
6.42
4.67
2.71
1.16
0.52
0.97
2.28
3.88
5.16
5.81
5.86
5.66
5.71
6.35
7.65
9.39
11.11
12.41
13.03
12.92
12.18
11.02
9.59
7.94
6.58
5.64
5.01
4.43
3.70
2.74
1.70
0.78
0.16
-0.15
-0.42
-0.94
-1.89
-3.18
-4.50
-5.43
-5.74
-5.44
-4.85
-4.41
-4.40
-4.77
-5.16
-5.20
-4.75
-4.00
-3.43
-3.41
-4.03
-4.90
-5.38
-4.92
-3.42
-1.30
0.70
1.87
1.89
0.95
-0.39
-1.55
-2.19
-2.35
-2.29
-2.28
-2.39
-2.49
-2.37
-1.95
-1.33
-0.75
-0.45
-0.52
-0.85
-1.24
-1.49
-1.56
-1.50
-1.44
-1.46
-1.58
-1.73
-1.83
-1.84
-1.75
-1.57
-1.26
-0.79
-0.15
0.58
1.20
1.48
1.22
0.42
-0.76
-2.02
-3.10
-3.83
-4.19
-4.26
-4.13
-3.85
-3.50
-3.20
-3.11
-3.35
-3.95
-4.75
-5.53
-6.09
-6.39
-6.50
-6.61
-6.79
-6.97
-6.95
-6.50
-5.51
-4.07
-2.43
-0.97
0.03
0.41
0.22
-0.31
-0.87
-1.19
-1.11
-0.65
0.02
0.66
1.02
0.99
0.63
0.17
-0.11
-0.05
0.33
0.80
1.04
0.86
0.30
-0.42
-1.04
-1.42
-1.60
-1.74
-1.91
-2.00
-1.79
-1.05
0.28
2.00
3.72
5.06
5.77
5.81
5.30
4.45
3.44
2.38
1.32
0.34
-0.50
-1.08
-1.29
-1.12
-0.73
-0.36
-0.30
-0.73
-1.66
-2.90
-4.20
-5.32
-6.19
-6.89
-7.58
-8.36
-9.22
-9.95
-10.30
-10.10
-9.33
-8.19
-6.96
-5.89
-5.11
-4.56
-4.07
-3.43
-2.58
-1.61
-0.71
-0.09
0.18
0.21
0.20
0.34
0.66
0.97
1.06
0.75
0.10
-0.64
-1.20
-1.41
-1.25
-0.83
-0.25
0.45
1.20
1.88
2.31
2.26
1.66
0.69
-0.24
-0.65
-0.19
1.24
3.36
5.71
7.74
9.02
9.33
8.72
7.39
5.67
3.84
2.15
0.76
-0.22
-0.73
-0.77
-0.46
-0.01
0.32
0.29
-0.17
-1.00
-2.04
-3.15
-4.24
-5.29
-6.24
-6.99
-7.38
-7.31
-6.86
-6.26
-5.81
-5.67
-5.81
-5.99
-5.88
-5.33
-4.33
-3.05
-1.66
-0.32
0.86
1.78
2.37
2.54
2.24
1.52
0.61
-0.22
-0.73
-0.81
-0.47
0.19
1.05
1.90
2.59
3.04
3.27
3.27
3.00
2.46
1.63
0.58
-0.89
-2.76
-4.73
-6.36
-7.31
-7.48
-6.95
-5.92
-4.61
-3.73
-3.71
-4.40
-5.32
-6.05
-6.41
-6.33
-5.74
-4.65
-4.13
-5.08
-7.69
-11.55
-16.13
-20.89
-25.14
-28.23
-29.90
-31.62
-34.89
-40.28
-47.33
-55.18
-62.85
-69.32
-73.66
-68.30
-50.37
-23.84
3.95
27.92
46.10
58.05
63.93
64.58
61.50
55.57
48.03
40.43
33.99
28.91
24.55
20.25
15.83
11.74
7.59
3.35
-0.41
-2.90
-3.97
-4.17
-4.23
-4.67
-5.52
-6.82
-8.18
-8.89
-8.33
-6.49
-3.99
-1.61
0.18
0.50
-1.07
-4.31
-8.30
-11.50
-12.55
-10.82
-6.50
-0.53
5.86
11.37
15.02
16.49
16.48
15.91
15.43
15.50
16.35
18.38
21.57
25.27
28.45
30.85
32.34
32.85
32.56
31.75
31.21
31.36
32.13
33.46
36.35
41.51
48.54
56.03
62.00
65.39
65.69
63.14
53.07
35.37
14.77
-2.96
-13.32
-19.48
-24.08
-28.32
-32.81
-36.85
-38.62
-37.06
-32.71
-27.30
-22.86
-20.11
-19.07
-19.26
-19.86
-20.29
-20.25
-19.96
-19.81
-20.11
-20.31
-19.94
-19.01
-17.84
-16.41
-14.93
-13.74
-13.08
-12.93
-12.71
-12.05
-10.89
-9.17
-6.98
-4.52
-2.16
-0.23
1.12
2.12
3.07
4.17
5.70
7.85
10.53
13.46
16.34
18.99
21.43
23.67
24.17
22.21
18.31
13.85
9.98
6.97
4.54
2.24
-0.15
-2.53
-4.35
-5.21
-5.12
-4.49
-3.93
-3.80
-4.10
-4.59
-4.95
-4.80
-4.09
-3.16
-2.62
-2.99
-4.44
-6.80
-9.54
-11.89
-13.03
-12.48
-10.33
-7.15
-3.78
-1.01
0.59
0.79
-0.25
-2.08
-4.15
-5.99
-7.26
-7.91
-8.07
-8.13
-8.46
-9.25
-10.32
-11.33
-11.93
-11.83
-11.00
-9.57
-7.75
-5.77
-3.60
-1.20
1.37
3.87
5.99
7.46
8.25
8.56
8.81
9.68
11.74
15.23
19.93
25.30
30.69
35.49
39.19
40.11
37.10
30.31
21.41
12.52
5.21
0.08
-3.14
-5.38
-7.41
-9.57
-11.89
-14.32
-16.86
-19.25
-21.32
-22.98
-24.15
-24.82
-24.86
-24.22
-22.97
-21.36
-19.63
-17.94
-16.32
-14.67
-12.92
-11.01
-8.93
-6.79
-4.75
-2.94
-1.46
-0.43
0.09
0.04
-0.53
-1.48
-2.60
-3.76
-4.91
-6.07
-7.24
-8.36
-9.33
-10.01
-10.32
-10.29
-10.00
-9.54
-8.99
-8.36
-7.67
-6.89
-6.05
-5.16
-4.21
-3.16
-1.98
-0.66
0.80
2.36
3.93
5.45
6.89
8.22
9.47
10.68
11.85
12.92
13.74
14.10
13.79
12.73
10.97
8.82
6.68
5.00
4.06
3.90
4.31
4.90
5.27
5.12
4.43
3.34
2.18
1.24
0.72
0.65
0.90
1.32
1.80
2.32
2.96
3.81
4.88
6.12
7.47
8.88
10.34
11.74
12.85
13.34
12.85
11.21
8.58
5.37
2.07
-0.92
-3.44
-5.56
-7.42
-9.14
-10.69
-11.95
-12.78
-13.10
-12.87
-12.14
-11.00
-9.62
-8.19
-6.92
-5.92
-5.14
-4.38
-3.35
-1.82
0.29
2.81
5.50
8.10
10.43
12.46
14.17
15.51
16.33
16.45
15.75
14.24
12.07
9.52
6.87
4.33
2.04
0.06
-1.54
-2.68
-3.25
-3.18
-2.50
-1.37
-0.06
1.14
2.02
2.51
2.69
2.68
2.55
2.26
1.69
0.75
-0.57
-2.10
-3.62
-4.92
-5.94
-6.72
-7.43
-8.18
-9.00
-9.80
-10.44
-10.81
-10.85
-10.62
-10.27
-9.95
-9.78
-9.79
-9.88
-9.83
-9.36
-8.28
-6.57
-4.44
-2.19
-0.14
1.54
2.84
3.85
4.67
5.31
5.74
5.89
5.78
5.47
5.09
4.75
4.54
4.49
4.61
4.85
5.15
5.46
5.70
5.85
5.91
5.84
5.63
5.20
4.51
3.59
2.56
1.66
1.15
1.27
2.11
3.57
5.41
7.28
8.85
9.92
10.47
10.62
10.54
10.34
10.01
9.45
8.55
7.31
5.88
4.48
3.34
2.53
1.94
1.30
0.33
-1.14
-3.08
-5.26
-7.40
-9.32
-11.00
-12.55
-14.10
-15.66
-17.10
-18.18
-18.75
-18.77
-18.33
-17.59
-16.63
-15.48
-14.14
-12.67
-11.20
-9.90
-8.80
-7.79
-6.63
-5.08
-3.04
-0.58
2.08
4.71
7.15
9.33
11.24
12.82
13.98
14.66
14.84
14.58
13.99
13.13
12.04
10.74
9.26
7.72
6.33
5.25
4.60
4.33
4.27
4.26
4.13
3.88
3.56
3.21
2.84
2.37
1.73
0.91
0.05
-0.66
-1.02
-0.98
-0.67
-0.34
-0.24
-0.48
-1.03
-1.71
-2.32
-2.75
-3.04
-3.33
-3.77
-4.41
-5.19
-5.90
-6.36
-6.47
-6.28
-5.96
-5.68
-5.54
-5.51
-5.49
-5.39
-5.20
-4.97
-4.78
-4.64
-4.46
-4.12
-3.52
-2.67
-1.71
-0.84
-0.26
-0.04
-0.11
-0.27
-0.31
-0.06
0.53
1.40
2.38
3.32
4.15
4.86
5.47
6.02
6.49
6.87
7.22
7.65
8.33
9.39
10.80
12.40
13.89
14.99
15.57
15.65
15.37
14.86
14.17
13.28
12.17
10.95
9.83
9.07
8.80
8.94
9.15
9.02
8.19
6.57
4.36
1.90
-0.41
-2.34
-3.86
-5.08
-6.16
-7.25
-8.41
-9.61
-10.72
-11.59
-12.10
-12.14
-11.72
-10.95
-9.97
-8.94
-7.99
-7.18
-6.54
-6.03
-5.55
-4.97
-4.14
-2.96
-1.43
0.32
2.08
3.67
5.05
6.29
7.57
8.98
10.54
12.14
13.64
14.99
16.17
17.21
18.08
18.65
18.74
18.16
16.79
14.62
11.74
8.34
4.64
0.89
-2.68
-5.88
-8.61
-10.84
-12.62
-14.04
-15.17
-16.07
-16.77
-17.24
-17.44
-17.31
-16.81
-15.92
-14.67
-13.13
-11.45
-9.81
-8.36
-7.21
-6.35
-5.64
-4.90
-4.06
-3.16
-2.43
-2.11
-2.37
-3.18
-4.34
-5.58
-6.69
-7.58
-8.23
-8.66
-8.82
-8.63
-8.03
-7.04
-5.76
-4.37
-3.03
-1.82
-0.77
0.16
0.98
1.71
2.35
2.90
3.37
3.82
4.26
4.62
4.73
4.31
3.08
0.87
-2.25
-5.99
-9.87
-13.36
-16.10
-17.89
-18.76
-18.85
-18.28
-17.16
-15.54
-13.44
-10.92
-8.06
-4.95
-1.66
1.74
5.22
8.77
12.37
15.90
19.12
21.67
23.21
23.52
22.69
21.09
19.30
17.85
17.05
16.90
17.15
17.44
17.43
16.93
15.82
14.10
11.79
8.93
5.63
2.07
-1.50
-4.81
-7.59
-9.71
-11.20
-12.21
-13.00
-13.76
-14.57
-15.37
-16.00
-16.34
-16.30
-15.94
-15.30
-14.41
-13.23
-11.67
-9.70
-7.39
-4.95
-2.62
-0.63
0.95
2.16
3.17
4.10
5.03
5.98
6.96
8.00
9.22
10.73
12.61
14.84
17.29
19.72
21.86
23.49
24.42
24.60
24.03
22.80
21.09
19.12
17.16
15.40
13.92
12.68
11.47
10.08
8.30
6.02
3.27
0.08
-3.44
-7.17
-10.98
-14.69
-18.11
-21.12
-23.65
-25.73
-27.41
-28.73
-29.66
-30.14
-30.11
-29.52
-28.42
-26.85
-24.97
-22.93
-20.94
-19.17
-17.66
-16.36
-15.10
-13.69
-12.01
-10.06
-7.92
-5.71
-3.51
-1.40
0.55
2.19
3.35
3.84
3.60
2.73
1.46
0.10
-1.08
-1.94
-2.48
-2.84
-3.15
-3.53
-3.95
-4.31
-4.46
-4.26
-3.64
-2.65
-1.38
-0.01
1.28
2.33
3.04
3.40
3.57
3.79
4.37
5.53
7.31
9.51
11.76
13.66
14.97
15.67
15.91
15.92
15.81
15.61
15.28
14.80
14.29
13.92
13.85
14.08
14.46
14.73
14.63
14.05
13.04
11.75
10.36
8.96
7.59
6.19
4.77
3.33
2.00
0.89
0.10
-0.35
-0.50
-0.46
-0.38
-0.38
-0.57
-1.04
-1.83
-2.87
-4.04
-5.11
-5.90
-6.26
-6.16
-5.62
-4.75
-3.66
-2.51
-1.46
-0.70
-0.31
-0.25
-0.37
-0.44
-0.28
0.13
0.70
1.23
1.59
1.71
1.61
1.33
0.93
0.49
0.13
0.02
0.34
1.15
2.37
3.77
5.03
5.95
6.42
6.53
6.47
6.42
6.52
6.77
7.14
7.54
7.86
8.00
7.86
7.40
6.59
5.44
3.99
2.23
0.18
-2.16
-4.73
-7.42
-10.07
-12.54
-14.72
-16.57
-18.06
-19.14
-19.73
-19.78
-19.27
-18.28
-16.97
-15.50
-13.97
-12.33
-10.42
-8.09
-5.25
-2.01
1.36
4.48
6.98
8.64
9.43
9.52
9.23
8.86
8.65
8.68
8.87
8.99
8.81
8.09
6.69
4.58
1.91
-1.08
-4.05
-6.71
-8.85
-10.38
-11.33
-11.80
-11.90
-11.73
-11.40
-10.98
-10.49
-9.92
-9.17
-8.14
-6.76
-5.07
-3.17
-1.22
0.65
2.33
3.83
5.14
6.25
7.13
7.72
7.98
7.93
7.65
7.27
6.95
6.81
6.92
7.31
7.94
8.69
9.44
10.02
10.30
10.19
9.73
9.00
8.16
7.39
6.83
6.57
6.59
6.74
6.76
6.39
5.42
3.86
1.91
-0.07
-1.78
-3.04
-3.90
-4.53
-5.15
-5.83
-6.54
-7.17
-7.60
-7.82
-7.88
-7.89
-7.92
-7.97
-7.95
-7.75
-7.28
-6.56
-5.67
-4.74
-3.86
-3.10
-2.45
-1.86
-1.25
-0.55
0.30
1.33
2.48
3.61
4.55
5.18
5.49
5.62
5.79
6.14
6.70
7.30
7.69
7.66
7.16
6.28
5.22
4.19
3.34
2.73
2.38
2.26
2.39
2.74
3.29
4.00
4.85
5.85
6.99
8.30
9.76
11.32
12.92
14.47
15.87
17.06
17.94
18.48
18.64
18.43
17.91
17.11
16.07
14.77
13.11
10.98
8.32
5.12
1.48
-2.45
-6.52
-10.60
-14.56
-18.29
-21.65
-24.51
-26.78
-28.47
-29.67
-30.54
-31.17
-31.56
-31.63
-31.20
-30.16
-28.41
-25.95
-22.88
-19.36
-15.65
-12.06
-8.86
-6.26
-4.31
-2.90
-1.82
-0.83
0.24
1.49
2.94
4.52
6.15
7.67
8.90
9.66
9.81
9.33
8.29
6.89
5.39
4.05
3.06
2.52
2.45
2.71
3.11
3.42
3.53
3.43
3.25
3.14
3.23
3.55
4.09
4.80
5.66
6.63
7.61
8.45
8.97
9.07
8.83
8.48
8.31
8.53
9.13
9.93
10.66
11.13
11.26
11.06
10.51
9.55
8.01
5.80
2.96
-0.32
-3.70
-6.89
-9.71
-12.16
-14.29
-16.16
-17.71
-18.79
-19.22
-18.91
-17.95
-16.51
-14.84
-13.09
-11.30
-9.40
-7.29
-4.95
-2.48
-0.05
2.21
4.25
6.19
8.15
10.26
12.48
14.66
16.54
17.88
18.50
18.36
17.49
16.03
14.12
11.87
9.43
6.87
4.24
1.52
-1.26
-4.07
-6.77
-9.21
-11.17
-12.50
-13.08
-12.86
-11.92
-10.40
-8.52
-6.52
-4.60
-2.87
-1.37
-0.04
1.20
2.40
3.58
4.69
5.63
6.36
6.89
7.36
7.93
8.73
9.69
10.54
10.83
10.19
8.44
5.77
2.61
-0.55
-3.37
-5.78
-7.91
-9.99
-12.09
-14.12
-15.86
-17.02
-17.44
-17.03
-15.86
-14.05
-11.77
-9.21
-6.54
-3.91
-1.36
1.15
3.68
6.30
8.97
11.56
13.92
15.93
17.56
18.87
19.96
20.89
21.65
22.18
22.44
22.44
22.22
21.79
21.12
20.09
18.58
16.44
13.60
10.08
6.02
1.62
-2.82
-6.99
-10.61
-13.48
-15.58
-16.99
-17.85
-18.28
-18.29
-17.85
-16.94
-15.66
-14.21
-12.80
-11.60
-10.65
-9.91
-9.26
-8.63
-7.98
-7.30
-6.56
-5.71
-4.72
-3.56
-2.28
-0.96
0.30
1.38
2.19
2.66
2.77
2.60
2.29
1.99
1.74
1.44
0.86
-0.18
-1.73
-3.59
-5.46
-7.08
-8.32
-9.29
-10.14
-10.98
-11.80
-12.50
-12.95
-13.15
-13.17
-13.06
-12.84
-12.42
-11.67
-10.48
-8.82
-6.78
-4.52
-2.24
-0.08
1.89
3.67
5.34
6.93
8.46
9.88
11.11
12.07
12.75
13.20
13.50
13.74
13.94
14.02
13.85
13.27
12.13
10.42
8.27
5.93
3.71
1.88
0.56
-0.25
-0.65
-0.80
-0.83
-0.84
-0.89
-0.96
-0.99
-0.94
-0.80
-0.61
-0.44
-0.36
-0.35
-0.36
-0.30
-0.12
0.14
0.36
0.35
-0.01
-0.76
-1.85
-3.16
-4.52
-5.76
-6.72
-7.26
-7.35
-7.07
-6.60
-6.14
-5.82
-5.71
-5.75
-5.87
-5.99
-6.04
-5.91
-5.47
-4.61
-3.33
-1.76
-0.14
1.34
2.57
3.62
4.62
5.66
6.73
7.75
8.59
9.19
9.61
10.00
10.49
11.14
11.95
12.84
13.78
14.73
15.75
16.92
18.31
19.92
21.66
23.33
24.73
25.71
26.20
26.27
26.08
25.83
25.63
25.50
25.25
24.52
22.83
19.54
14.20
6.74
-2.41
-12.37
-22.06
-30.49
-37.05
-41.58
-44.52
-46.44
-47.81
-48.82
-49.54
-50.01
-50.25
-50.26
-49.95
-49.48
-48.91
-48.23
-47.35
-46.26
-45.09
-44.01
-43.17
-42.56
-42.44
-42.78
-43.24
-43.25
-42.38
-40.50
-37.84
-34.78
-29.39
-20.94
-10.13
1.22
11.37
19.46
25.42
29.53
32.04
33.42
33.71
33.00
31.61
30.09
28.94
28.40
28.48
29.09
29.56
29.23
27.82
25.50
22.85
20.56
19.17
18.94
19.74
21.19
22.65
23.52
23.52
22.68
21.24
19.52
17.76
16.13
14.73
13.56
12.63
11.97
11.64
11.63
11.88
12.33
12.91
13.57
14.22
14.65
14.67
14.12
13.04
11.64
10.29
9.38
9.16
9.65
10.64
11.76
12.63
12.97
12.65
11.69
10.24
8.45
6.51
4.60
2.84
1.35
0.18
-0.69
-1.39
-2.16
-3.25
-4.81
-6.85
-9.20
-11.58
-13.75
-15.53
-16.87
-17.76
-18.22
-18.32
-18.18
-18.01
-18.09
-18.63
-19.68
-21.07
-22.44
-23.42
-23.74
-23.37
-22.38
-20.93
-19.15
-17.11
-14.90
-12.63
-10.50
-8.67
-7.25
-6.23
-5.43
-4.64
-3.68
-2.53
-1.26
-0.03
1.08
2.07
3.04
4.22
5.76
7.68
9.81
11.92
13.78
15.26
16.34
17.01
17.39
17.61
17.73
17.72
17.56
17.26
16.90
16.51
16.10
15.73
15.41
15.09
14.63
13.93
12.91
11.51
9.55
6.21
1.17
-5.16
-11.74
-17.52
-21.72
-24.46
-25.87
-26.05
-25.28
-23.86
-22.22
-20.33
-18.34
-16.28
-14.05
-11.44
-8.36
-4.79
-0.69
3.66
7.77
11.01
12.79
12.75
10.96
7.97
4.78
2.54
2.10
3.61
6.45
9.59
12.23
13.80
14.11
13.32
11.76
9.77
7.65
5.65
3.98
2.84
2.31
2.35
2.78
3.31
3.51
3.11
2.02
0.35
-1.64
-3.67
-5.54
-7.10
-8.37
-9.44
-10.39
-11.30
-12.19
-13.02
-13.76
-14.36
-14.83
-15.20
-15.57
-15.98
-16.45
-16.85
-17.01
-16.71
-15.84
-14.40
-12.56
-10.62
-8.84
-7.40
-6.31
-5.40
-4.46
-3.30
-1.84
-0.16
1.63
3.40
5.11
6.75
8.36
9.93
11.38
12.57
13.35
13.64
13.38
12.63
11.51
10.19
8.93
7.96
7.45
7.41
7.70
8.07
8.30
8.28
8.04
7.75
7.54
7.48
7.50
7.45
7.20
6.67
5.88
4.93
3.93
3.00
2.24
1.69
1.37
1.16
0.95
0.59
0.01
-0.78
-1.70
-2.63
-3.51
-4.33
-5.13
-5.93
-6.69
-7.33
-7.72
-7.78
-7.51
-6.98
-6.29
-5.51
-4.69
-3.82
-2.91
-1.98
-1.09
-0.32
0.29
0.73
1.08
1.46
1.99
2.74
3.72
4.85
6.04
7.20
8.28
9.26
10.09
10.70
11.00
10.95
10.57
9.99
9.39
8.95
8.74
8.75
8.90
9.15
9.52
10.06
10.81
11.74
12.68
13.42
13.77
13.66
13.14
12.33
11.33
10.15
8.70
6.89
4.70
2.25
-0.20
-2.34
-3.89
-4.78
-5.13
-5.25
-5.55
-6.37
-7.86
-9.91
-12.23
-14.40
-16.06
-17.03
-17.31
-17.04
-16.44
-15.70
-14.98
-14.35
-13.85
-13.44
-13.12
-12.81
-12.46
-12.01
-11.40
-10.62
-9.70
-8.74
-7.85
-7.16
-6.72
-6.48
-6.34
-6.17
-5.96
-5.70
-5.45
-5.21
-4.97
-4.70
-4.33
-3.84
-3.21
-2.43
-1.49
-0.35
1.00
2.51
4.10
5.68
7.21
8.76
10.31
11.71
12.80
13.45
13.64
13.34
12.53
11.24
9.61
7.82
6.12
4.70
3.70
3.14
2.97
2.99
2.99
2.78
2.20
1.26
0.11
-0.97
-1.71
-1.94
-1.67
-0.96
-0.02
0.88
1.46
1.49
0.89
-0.29
-1.87
-3.64
-5.38
-6.89
-7.99
-8.54
-8.44
-7.61
-6.09
-3.72
-1.10
1.02
2.01
1.62
0.12
-1.95
-4.02
-5.65
-6.61
-6.99
-6.98
-6.81
-6.67
-6.62
-6.49
-6.15
-5.53
-4.61
-3.53
-2.43
-1.35
-0.31
0.75
1.84
2.91
3.89
4.73
5.45
6.17
7.10
8.32
9.81
11.33
12.59
13.36
13.59
13.39
12.98
12.57
12.28
12.08
11.90
11.62
11.23
10.70
10.06
9.28
8.37
7.35
6.31
5.35
4.57
4.01
3.65
3.42
3.23
2.98
2.63
2.17
1.61
1.00
0.37
-0.27
-0.96
-1.79
-2.84
-4.13
-5.59
-7.05
-8.36
-9.40
-10.15
-10.66
-11.01
-11.24
-11.32
-11.22
-10.91
-10.45
-9.97
-9.61
-9.46
-9.50
-9.56
-9.42
-8.94
-8.11
-7.06
-6.02
-5.18
-4.57
-4.12
-3.70
-3.21
-2.62
-2.04
-1.57
-1.32
-1.31
-1.50
-1.77
-2.00
-2.12
-2.11
-2.02
-1.93
-1.89
-1.85
-1.76
-1.57
-1.29
-1.06
-0.99
-1.17
-1.54
-1.95
-2.22
-2.24
-2.02
-1.65
-1.30
-1.07
-1.02
-1.12
-1.30
-1.43
-1.38
-1.07
-0.52
0.20
0.95
1.63
2.14
2.41
2.41
2.12
1.59
0.89
0.13
-0.51
-0.94
-1.15
-1.29
-1.47
-1.77
-2.13
-2.46
-2.61
-2.41
-1.72
-0.55
1.02
2.78
4.42
5.62
6.06
5.38
3.63
1.42
-0.45
-1.38
-1.20
-0.32
1.00
2.57
4.26
6.14
8.26
10.62
12.96
14.95
16.28
16.80
16.53
15.63
14.44
13.18
11.97
10.71
9.30
7.71
6.05
4.52
3.29
2.48
2.11
2.04
2.07
2.01
1.72
1.10
0.08
-1.34
-3.06
-4.95
-6.84
-8.62
-10.21
-11.59
-12.78
-13.77
-14.53
-15.00
-15.17
-15.09
-14.84
-14.57
-14.35
-14.18
-13.95
-13.49
-12.71
-11.64
-10.46
-9.37
-8.50
-7.85
-7.19
-6.25
-4.77
-2.70
-0.13
2.73
5.66
8.36
10.46
11.51
10.97
8.92
5.97
2.91
0.67
-0.07
0.92
3.28
6.34
9.39
11.98
13.88
15.03
15.44
15.06
13.83
11.76
9.02
5.98
3.10
0.75
-0.89
-1.82
-2.14
-2.06
-1.74
-1.32
-0.87
-0.39
0.11
0.59
0.96
1.12
0.96
0.42
-0.42
-1.36
-2.15
-2.56
-2.54
-2.18
-1.67
-1.21
-0.92
-0.79
-0.74
-0.66
-0.52
-0.35
-0.22
-0.17
-0.20
-0.23
-0.13
0.21
0.87
1.88
3.17
4.64
6.15
7.52
8.62
9.31
9.51
9.17
8.33
7.14
5.81
4.57
3.53
2.68
1.88
0.99
-0.07
-1.27
-2.51
-3.75
-4.99
-6.36
-7.92
-9.69
-11.52
-13.19
-14.48
-15.23
-15.37
-14.97
-14.17
-13.16
-12.17
-11.39
-10.96
-10.88
-11.01
-11.14
-11.03
-10.55
-9.69
-8.61
-7.50
-6.50
-5.62
-4.79
-3.91
-2.94
-2.03
-1.40
-1.22
-1.52
-2.11
-2.72
-3.05
-2.97
-2.44
-1.57
-0.48
0.70
1.81
2.69
3.19
3.30
3.17
3.12
3.48
4.45
5.97
7.72
9.22
10.09
10.17
9.57
8.55
7.44
6.43
5.59
4.88
4.28
3.83
3.63
3.80
4.34
5.14
5.93
6.46
6.54
6.17
5.48
4.72
4.08
3.67
3.45
3.36
3.31
3.27
3.29
3.39
3.56
3.72
3.78
3.69
3.54
3.44
3.48
3.63
3.77
3.72
3.36
2.71
1.87
0.97
0.06
-0.89
-1.92
-3.03
-4.08
-4.90
-5.37
-5.50
-5.39
-5.20
-4.99
-4.76
-4.39
-3.79
-2.97
-2.05
-1.22
-0.65
-0.44
-0.51
-0.71
-0.83
-0.70
-0.30
0.25
0.69
0.80
0.46
-0.25
-1.06
-1.62
-1.68
-1.20
-0.41
0.33
0.61
0.20
-0.92
-2.53
-4.27
-5.75
-6.68
-6.91
-6.48
-5.62
-4.60
-3.68
-3.01
-2.60
-2.33
-2.09
-1.78
-1.41
-0.98
-0.56
-0.16
0.25
0.74
1.36
2.21
3.28
4.54
5.84
7.05
8.01
8.70
9.15
9.43
9.62
9.70
9.62
9.30
8.76
8.08
7.43
6.98
6.85
7.04
7.48
7.99
8.32
8.25
7.62
6.42
4.87
3.36
2.31
2.03
2.52
3.48
4.36
4.65
4.10
2.81
1.22
-0.13
-0.85
-0.84
-0.24
0.66
1.64
2.54
3.29
3.83
4.08
4.05
3.88
3.85
4.28
5.38
7.06
9.02
10.77
11.90
12.22
11.71
10.56
8.98
7.11
5.03
2.75
0.27
-2.38
-5.10
-7.79
-10.34
-12.65
-14.66
-16.36
-17.75
-18.84
-19.65
-20.20
-20.50
-20.52
-20.24
-19.60
-18.58
-17.19
-15.49
-13.59
-11.63
-9.71
-7.86
-6.07
-4.30
-2.56
-0.92
0.50
1.58
2.25
2.58
2.75
2.99
3.45
4.13
4.89
5.50
5.82
5.79
5.50
5.08
4.62
4.17
3.71
3.23
2.76
2.33
1.93
1.53
1.06
0.51
-0.09
-0.64
-1.04
-1.23
-1.22
-1.04
-0.73
-0.33
0.11
0.51
0.77
0.79
0.54
0.08
-0.41
-0.76
-0.86
-0.71
-0.41
-0.06
0.28
0.64
1.12
1.72
2.37
2.90
3.14
3.01
2.59
2.12
1.84
1.90
2.37
3.15
4.13
5.19
6.20
7.08
7.78
8.29
8.70
9.11
9.61
10.23
10.90
11.53
12.04
12.39
12.62
12.82
13.03
13.27
13.47
13.52
13.26
12.49
11.08
8.95
6.16
2.87
-0.66
-4.14
-7.29
-9.93
-11.94
-13.31
-14.10
-14.47
-14.62
-14.76
-15.02
-15.45
-15.99
-16.50
-16.87
-17.03
-16.96
-16.73
-16.40
-16.03
-15.71
-15.50
-15.45
-15.55
-15.67
-15.65
-15.32
-14.59
-13.51
-12.25
-11.00
-9.91
-8.96
-8.05
-7.04
-5.83
-4.45
-3.00
-1.59
-0.30
0.84
1.86
2.79
3.62
4.27
4.66
4.71
4.41
3.85
3.21
2.64
2.28
2.11
2.00
1.78
1.32
0.63
-0.14
-0.76
-1.08
-1.07
-0.87
-0.69
-0.69
-0.95
-1.41
-1.93
-2.40
-2.77
-3.05
-3.24
-3.35
-3.36
-3.24
-3.00
-2.76
-2.67
-2.87
-3.46
-4.38
-5.46
-6.47
-7.20
-7.53
-7.47
-7.15
-6.70
-6.27
-5.90
-5.60
-5.34
-5.07
-4.77
-4.48
-4.20
-3.92
-3.58
-3.06
-2.25
-1.10
0.35
1.93
3.44
4.71
5.64
6.21
6.48
6.49
6.29
5.89
5.34
4.74
4.20
3.85
3.78
4.00
4.40
4.81
5.04
4.94
4.49
3.83
3.16
2.74
2.73
3.21
4.09
5.22
6.41
7.50
8.40
9.12
9.66
10.09
10.40
10.55
10.44
10.00
9.26
8.34
7.43
6.67
6.14
5.76
5.34
4.70
3.72
2.40
0.87
-0.71
-2.20
-3.40
-4.17
-4.40
-4.05
-3.22
-2.13
-0.97
-0.04
0.48
0.49
0.29
0.13
0.18
0.44
0.48
0.21
-0.34
-1.23
-2.32
-3.54
-4.79
-5.83
-6.35
-5.99
-4.56
-2.21
0.58
3.20
5.10
5.97
5.86
5.02
3.76
2.33
0.88
-0.52
-1.79
-2.87
-3.78
-4.65
-5.66
-6.93
-8.33
-9.59
-10.32
-10.27
-9.46
-8.17
-6.85
-5.87
-5.36
-5.21
-5.17
-4.99
-4.58
-4.02
-3.50
-3.21
-3.23
-3.48
-3.82
-4.06
-4.10
-3.89
-3.44
-2.80
-1.99
-1.08
-0.18
0.60
1.17
1.53
1.74
1.93
2.20
2.65
3.28
4.06
4.93
5.80
6.57
7.14
7.42
7.41
7.17
6.79
6.39
6.06
5.81
5.59
5.32
4.93
4.42
3.83
3.26
2.82
2.58
2.50
2.51
2.46
2.22
1.74
1.05
0.30
-0.32
-0.62
-0.51
-0.04
0.62
1.27
1.75
2.02
2.13
2.19
2.26
2.32
2.33
2.22
1.99
1.71
1.45
1.27
1.17
1.10
0.98
0.74
0.41
0.03
-0.29
-0.46
-0.49
-0.43
-0.40
-0.48
-0.66
-0.85
-0.94
-0.78
-0.33
0.36
1.16
1.89
2.38
2.56
2.41
2.05
1.63
1.27
1.07
1.02
1.07
1.14
1.20
1.24
1.26
1.26
1.21
1.06
0.82
0.54
0.27
0.08
-0.01
-0.03
-0.03
-0.07
-0.15
-0.19
-0.09
0.19
0.59
1.04
1.41
1.61
1.64
1.58
1.50
1.40
1.24
0.90
0.45
0.04
-0.16
-0.07
0.27
0.73
1.11
1.26
1.12
0.95
1.00
1.39
2.00
2.62
3.13
3.51
3.79
4.03
4.61
5.74
7.36
9.20
11.03
12.83
14.71
16.75
18.89
21.34
24.17
27.18
30.06
32.57
34.73
36.60
38.18
36.58
30.21
19.78
8.04
-2.20
-9.51
-13.86
-16.03
-17.08
-17.89
-18.51
-18.66
-18.12
-16.89
-15.22
-13.44
-12.03
-11.36
-11.53
-11.96
-11.89
-10.68
-7.86
-3.31
2.66
9.07
14.32
16.50
14.17
6.71
-5.74
-21.22
-36.36
-47.40
-51.37
-47.16
-35.94
-20.59
-4.82
7.87
15.36
17.12
14.09
7.99
0.75
-5.92
-10.70
-12.66
-11.41
-7.08
-0.54
6.56
12.07
14.16
12.10
6.78
0.42
-5.24
-10.16
-15.61
-22.98
-32.58
-43.08
-52.26
-57.99
-59.08
-55.38
-47.20
-34.66
-17.78
2.65
24.65
44.67
58.61
63.42
58.25
44.95
27.37
10.29
-3.10
-10.51
-11.35
-6.58
1.76
11.01
18.70
23.18
23.93
20.99
15.66
9.12
2.04
-4.99
-11.19
-15.48
-17.07
-15.36
-10.90
-5.03
0.52
3.85
4.39
2.78
0.40
-1.48
-2.21
-1.99
-1.38
-1.00
-1.15
-1.60
-1.94
-1.89
-1.42
-0.73
-0.14
0.20
0.22
-0.02
-0.41
-0.85
-1.37
-2.06
-2.91
-3.92
-5.00
-6.04
-6.89
-7.35
-7.24
-6.47
-5.11
-3.36
-1.53
0.06
1.19
1.79
1.96
1.90
1.85
1.99
2.42
3.10
3.89
4.58
4.97
4.89
4.30
3.25
1.90
0.47
-0.83
-1.85
-2.57
-2.99
-3.17
-3.22
-3.18
-3.10
-2.94
-2.64
-2.15
-1.63
-1.15
-0.83
-0.74
-0.91
-1.32
-1.86
-2.40
-2.82
-3.04
-3.00
-2.75
-2.37
-1.94
-1.48
-0.96
-0.31
0.47
1.28
2.03
2.60
2.98
3.19
3.29
3.31
3.21
2.92
2.41
1.76
1.14
0.69
0.47
0.40
0.34
0.15
-0.22
-0.74
-1.32
-1.87
-2.35
-2.71
-2.91
-2.89
-2.60
-2.05
-1.28
-0.43
0.38
1.05
1.54
1.86
2.07
2.20
2.26
2.26
2.19
2.02
1.75
1.38
0.94
0.46
-0.01
-0.46
-0.87
-1.25
-1.55
-1.76
-1.84
-1.83
-1.82
-1.93
-2.26
-2.81
-3.44
-3.95
-4.16
-3.94
-3.31
-2.33
-1.14
0.15
1.42
2.58
3.51
4.12
4.37
4.27
3.91
3.43
2.98
2.65
2.46
2.37
2.36
2.37
2.39
2.42
2.42
2.30
2.01
1.51
0.82
0.05
-0.67
-1.22
-1.55
-1.64
-1.54
-1.28
-0.90
-0.40
0.20
0.90
1.64
2.37
3.02
3.55
3.93
4.17
4.31
4.37
4.37
4.29
4.11
3.86
3.58
3.34
3.17
3.06
2.96
2.79
2.52
2.19
1.85
1.55
1.27
0.92
0.46
-0.12
-0.74
-1.29
-1.66
-1.81
-1.77
-1.57
-1.22
-0.72
-0.05
0.75
1.60
2.39
3.00
3.37
3.52
3.50
3.38
3.26
3.24
3.36
3.58
3.81
3.96
3.95
3.76
3.43
2.99
2.52
2.01
1.44
0.79
0.10
-0.55
-1.09
-1.50
-1.83
-2.08
-2.24
-2.34
-2.33
-2.09
-1.50
-0.45
0.99
2.63
4.40
6.13
7.59
8.65
9.37
9.97
10.69
11.74
13.24
15.56
18.71
22.27
25.49
27.70
28.56
28.19
27.07
25.85
25.48
26.19
27.37
28.03
27.42
25.42
22.60
19.81
15.44
9.54
3.30
-2.06
-6.28
-9.77
-12.93
-15.90
-18.67
-21.61
-24.56
-27.37
-29.94
-32.04
-33.38
-33.82
-32.84
-30.67
-27.92
-24.82
-21.62
-18.53
-15.74
-13.37
-11.48
-10.13
-9.40
-9.24
-9.25
-9.12
-8.79
-8.41
-8.17
-8.20
-8.44
-8.82
-9.12
-9.03
-8.43
-7.42
-6.23
-5.09
-4.08
-3.13
-2.13
-1.01
0.23
1.46
2.43
2.95
3.01
2.72
2.29
1.88
1.60
1.46
1.39
1.35
1.27
1.12
0.90
0.64
0.34
0.04
-0.28
-0.62
-0.99
-1.39
-1.80
-2.20
-2.58
-2.93
-3.24
-3.45
-3.48
-3.27
-2.79
-2.12
-1.35
-0.61
0.04
0.57
1.00
1.34
1.57
1.66
1.59
1.39
1.13
0.91
0.75
0.64
0.53
0.36
0.12
-0.13
-0.33
-0.45
-0.49
-0.50
-0.56
-0.73
-1.01
-1.39
-1.82
-2.24
-2.55
-2.70
-2.64
-2.33
-1.83
-1.18
-0.48
0.15
0.65
0.95
1.03
0.94
0.75
0.56
0.43
0.38
0.39
0.41
0.43
0.46
0.50
0.52
0.47
0.31
0.04
-0.31
-0.66
-0.98
-1.28
-1.58
-1.94
-2.35
-2.77
-3.11
-3.27
-3.19
-2.85
-2.24
-1.44
-0.53
0.36
1.11
1.64
1.98
2.15
2.23
2.22
2.10
1.83
1.43
0.98
0.59
0.35
0.29
0.34
0.39
0.35
0.21
-0.00
-0.24
-0.47
-0.72
-1.06
-1.54
-2.17
-2.86
-3.45
-3.76
-3.66
-3.13
-2.29
-1.31
-0.38
0.38
0.94
1.33
1.57
1.72
1.78
1.77
1.73
1.70
1.72
1.82
1.97
2.09
2.08
1.87
1.46
0.91
0.37
-0.05
-0.25
-0.28
-0.24
-0.24
-0.36
-0.62
-0.95
-1.27
-1.51
-1.65
-1.65
-1.52
-1.23
-0.80
-0.25
0.36
0.97
1.52
2.02
2.48
2.88
3.22
3.46
3.53
3.43
3.19
2.89
2.61
2.41
2.28
2.22
2.17
2.13
2.09
2.06
2.04
2.02
1.94
1.75
1.45
1.02
0.53
0.02
-0.45
-0.84
-1.18
-1.47
-1.70
-1.85
-1.84
-1.62
-1.21
-0.66
-0.09
0.43
0.89
1.34
1.86
2.45
3.03
3.46
3.62
3.46
3.04
2.50
1.99
1.59
1.34
1.20
1.09
0.97
0.84
0.74
0.69
0.69
0.69
0.60
0.35
-0.06
-0.61
-1.18
-1.73
-2.21
-2.64
-3.00
-3.24
-3.28
-3.04
-2.51
-1.78
-0.98
-0.25
0.32
0.72
1.03
1.27
1.49
1.64
1.70
1.63
1.46
1.24
1.04
0.91
0.90
1.00
1.16
1.28
1.30
1.17
0.93
0.66
0.40
0.18
-0.09
-0.49
-1.08
-1.82
-2.55
-3.11
-3.37
-3.30
-2.98
-2.52
-2.03
-1.57
-1.12
-0.66
-0.17
0.33
0.80
1.20
1.52
1.78
2.00
2.17
2.26
2.20
1.99
1.66
1.29
0.99
0.84
0.80
0.80
0.71
0.45
0.02
-0.51
-1.07
-1.61
-2.12
-2.64
-3.14
-3.58
-3.83
-3.78
-3.36
-2.60
-1.61
-0.55
0.44
1.26
1.85
2.22
2.37
2.34
2.19
2.00
1.85
1.78
1.75
1.71
1.59
1.37
1.11
0.86
0.67
0.50
0.29
-0.03
-0.48
-1.01
-1.53
-1.96
-2.28
-2.50
-2.68
-2.86
-2.99
-3.04
-2.93
-2.61
-2.09
-1.43
-0.70
0.04
0.73
1.34
1.84
2.21
2.45
2.59
2.68
2.80
2.97
3.16
3.30
3.29
3.07
2.65
2.09
1.49
0.91
0.42
0.05
-0.20
-0.31
-0.36
-0.44
-0.65
-1.05
-1.61
-2.21
-2.72
-3.01
-3.01
-2.73
-2.20
-1.51
-0.76
-0.02
0.63
1.17
1.64
2.09
2.56
3.06
3.52
3.89
4.09
4.09
3.88
3.46
2.88
2.22
1.59
1.11
0.87
0.86
0.99
1.15
1.23
1.19
1.07
0.88
0.64
0.35
-0.01
-0.44
-0.92
-1.44
-2.00
-2.63
-3.25
-3.78
-4.05
-3.95
-3.43
-2.58
-1.59
-0.63
0.15
0.75
1.19
1.55
1.89
2.21
2.48
2.66
2.72
2.69
2.62
2.56
2.56
2.59
2.59
2.51
2.34
2.12
1.91
1.74
1.57
1.33
0.96
0.48
-0.03
-0.46
-0.71
-0.81
-0.84
-0.97
-1.28
-1.78
-2.34
-2.84
-3.18
-3.36
-3.45
-3.53
-3.61
-3.65
-3.55
-3.23
-2.67
-1.92
-1.08
-0.28
0.40
0.93
1.31
1.59
1.77
1.88
1.90
1.82
1.67
1.48
1.31
1.20
1.12
1.01
0.80
0.46
0.07
-0.28
-0.44
-0.40
-0.17
0.13
0.37
0.45
0.30
-0.04
-0.49
-0.98
-1.43
-1.85
-2.24
-2.63
-2.99
-3.28
-3.43
-3.38
-3.10
-2.59
-1.90
-1.10
-0.28
0.47
1.08
1.48
1.68
1.71
1.62
1.47
1.35
1.28
1.29
1.34
1.37
1.33
1.17
0.94
0.69
0.52
0.46
0.50
0.56
0.54
0.38
0.09
-0.27
-0.60
-0.84
-1.00
-1.14
-1.35
-1.69
-2.16
-2.72
-3.26
-3.66
-3.84
-3.73
-3.33
-2.68
-1.86
-1.01
-0.23
0.40
0.86
1.18
1.41
1.58
1.70
1.79
1.87
1.98
2.14
2.35
2.57
2.72
2.71
2.51
2.10
1.54
0.92
0.39
0.04
-0.09
-0.04
0.08
0.14
0.05
-0.18
-0.52
-0.91
-1.30
-1.70
-2.14
-2.66
-3.24
-3.81
-4.28
-4.51
-4.42
-3.97
-3.22
-2.30
-1.36
-0.54
0.13
0.67
1.17
1.68
2.18
2.62
2.92
3.04
3.00
2.84
2.63
2.40
2.18
1.98
1.80
1.67
1.59
1.56
1.55
1.52
1.43
1.28
1.06
0.82
0.57
0.32
0.03
-0.33
-0.78
-1.29
-1.84
-2.36
-2.82
-3.20
-3.51
-3.77
-3.91
-3.89
-3.64
-3.13
-2.40
-1.54
-0.67
0.09
0.69
1.08
1.30
1.38
1.40
1.42
1.50
1.63
1.76
1.84
1.85
1.81
1.81
1.90
2.11
2.37
2.57
2.57
2.32
1.84
1.22
0.59
0.04
-0.37
-0.61
-0.71
-0.72
-0.73
-0.82
-1.08
-1.54
-2.15
-2.80
-3.30
-3.50
-3.37
-2.94
-2.34
-1.67
-0.95
-0.19
0.60
1.38
2.05
2.49
2.66
2.59
2.37
2.11
1.92
1.83
1.81
1.78
1.67
1.40
0.99
0.53
0.14
-0.07
-0.05
0.12
0.34
0.48
0.50
0.39
0.16
-0.22
-0.80
-1.62
-2.63
-3.64
-4.44
-4.83
-4.74
-4.27
-3.57
-2.82
-2.11
-1.45
-0.82
-0.20
0.40
0.93
1.33
1.57
1.70
1.76
1.77
1.74
1.61
1.37
1.03
0.66
0.35
0.16
0.11
0.10
0.09
0.03
-0.08
-0.21
-0.33
-0.48
-0.71
-1.06
-1.53
-2.08
-2.66
-3.22
-3.73
-4.13
-4.33
-4.22
-3.72
-2.83
-1.65
-0.43
0.62
1.30
1.57
1.54
1.38
1.28
1.33
1.51
1.71
1.79
1.68
1.41
1.08
0.83
0.75
0.82
0.96
1.04
0.94
0.61
0.10
-0.48
-0.97
-1.26
-1.31
-1.19
-1.02
-0.94
-1.06
-1.40
-1.92
-2.50
-3.05
-3.46
-3.67
-3.63
-3.29
-2.65
-1.73
-0.67
0.39
1.28
1.95
2.38
2.65
2.82
2.92
2.96
2.93
2.87
2.86
2.94
3.11
3.29
3.38
3.26
2.93
2.44
1.91
1.45
1.11
0.91
0.81
0.72
0.58
0.34
-0.02
-0.50
-1.08
-1.74
-2.49
-3.31
-4.14
-4.84
-5.23
-5.15
-4.58
-3.58
-2.36
-1.15
-0.12
0.66
1.21
1.60
1.90
2.13
2.34
2.56
2.80
3.05
3.29
3.44
3.44
3.29
3.06
2.83
2.69
2.64
2.67
2.72
2.72
2.63
2.43
2.09
1.63
1.08
0.50
-0.03
-0.46
-0.81
-1.12
-1.45
-1.82
-2.21
-2.57
-2.89
-3.17
-3.46
-3.75
-3.98
-4.05
-3.88
-3.49
-2.94
-2.30
-1.61
-0.84
0.05
1.03
1.99
2.78
3.28
3.46
3.42
3.29
3.17
3.10
3.03
2.91
2.72
2.47
2.25
2.12
2.10
2.18
2.28
2.28
2.11
1.73
1.18
0.57
-0.02
-0.51
-0.91
-1.24
-1.53
-1.76
-1.91
-1.98
-2.03
-2.14
-2.41
-2.85
-3.37
-3.84
-4.11
-4.13
-3.93
-3.59
-3.20
-2.77
-2.26
-1.62
-0.82
0.08
0.95
1.65
2.04
2.08
1.86
1.56
1.36
1.39
1.63
1.95
2.13
2.06
1.71
1.20
0.65
0.19
-0.14
-0.35
-0.42
-0.33
-0.08
0.30
0.68
0.87
0.73
0.18
-0.70
-1.79
-2.93
-3.98
-4.82
-5.34
-5.48
-5.21
-4.57
-3.65
-2.59
-1.48
-0.38
0.68
1.63
2.39
2.85
2.97
2.77
2.42
2.07
1.86
1.78
1.76
1.66
1.43
1.08
0.71
0.42
0.26
0.22
0.27
0.33
0.35
0.30
0.14
-0.13
-0.47
-0.84
-1.20
-1.54
-1.90
-2.32
-2.82
-3.36
-3.85
-4.18
-4.28
-4.18
-3.87
-3.38
-2.66
-1.67
-0.43
0.95
2.23
3.18
3.63
3.59
3.20
2.67
2.23
1.99
1.96
2.06
2.22
2.38
2.51
2.60
2.60
2.48
2.16
1.66
1.06
0.47
-0.00
-0.30
-0.50
-0.68
-0.93
-1.29
-1.70
-2.12
-2.50
-2.84
-3.13
-3.35
-3.43
-3.30
-2.90
-2.25
-1.40
-0.46
0.45
1.27
1.93
2.44
2.80
3.04
3.18
3.23
3.21
3.07
2.82
2.44
1.99
1.56
1.26
1.20
1.38
1.73
2.07
2.18
1.97
1.47
0.88
0.44
0.31
0.53
0.94
1.25
1.18
0.66
-0.17
-1.02
-1.60
-1.75
-1.46
-0.91
-0.40
-0.16
-0.16
-0.12
0.29
1.20
2.53
3.96
5.09
5.42
4.72
3.18
1.34
-0.26
-1.28
-1.72
-1.80
-1.88
-2.49
-4.07
-6.69
-10.02
-13.52
-16.56
-18.45
-18.50
-14.92
-7.09
3.44
13.52
20.28
22.43
20.36
15.52
9.73
4.53
0.53
-2.46
-4.89
-7.02
-8.87
-10.26
-10.95
-10.82
-10.33
-9.81
-9.63
-9.86
-10.18
-10.21
-9.65
-8.45
-6.78
-4.93
-3.26
-2.03
-1.25
-0.66
0.02
0.96
2.11
3.26
4.21
4.73
4.64
4.03
3.18
2.40
1.90
1.74
1.80
1.88
1.76
1.24
0.34
-0.79
-1.90
-2.76
-3.21
-3.21
-2.84
-2.31
-1.82
-1.46
-1.21
-0.95
-0.61
-0.23
0.08
0.18
-0.03
-0.51
-1.00
-1.12
-0.61
0.51
2.00
3.50
4.70
5.48
5.86
6.17
6.81
8.08
10.07
12.70
15.78
19.02
22.01
23.31
21.61
16.44
8.70
0.21
-7.16
-12.19
-14.46
-14.29
-12.48
-9.82
-6.94
-4.21
-1.79
0.30
2.08
3.61
4.83
5.67
6.19
6.53
6.84
7.18
7.45
7.48
7.24
6.51
5.31
3.90
2.62
1.74
1.35
1.30
1.35
1.26
0.88
0.21
-0.56
-1.21
-1.50
-1.33
-0.74
0.10
0.95
1.57
1.80
1.62
1.12
0.42
-0.38
-1.11
-1.71
-2.17
-2.50
-2.67
-2.67
-2.51
-2.29
-2.18
-2.38
-3.00
-4.04
-5.33
-6.63
-7.75
-8.56
-9.06
-9.29
-9.30
-9.12
-8.83
-8.49
-8.15
-7.87
-7.63
-7.35
-6.93
-6.29
-5.38
-4.22
-2.87
-1.49
-0.27
0.56
0.87
0.67
0.14
-0.44
-0.77
-0.68
-0.19
0.58
1.45
2.32
3.18
3.99
4.69
5.15
5.23
4.86
4.14
3.28
2.55
2.15
2.12
2.36
2.65
2.78
2.59
2.10
1.41
0.69
0.10
-0.30
-0.58
-0.83
-1.20
-1.77
-2.59
-3.67
-5.09
-6.89
-9.05
-11.31
-13.19
-14.12
-13.64
-11.70
-8.70
-5.39
-2.49
-0.45
0.73
1.36
1.84
2.48
3.34
4.31
5.28
6.18
7.01
7.85
8.74
9.68
10.61
11.47
12.18
12.66
12.88
12.86
12.61
12.16
11.51
10.66
9.62
8.43
7.20
6.03
4.99
4.12
3.46
3.02
2.83
2.92
3.30
3.95
4.82
5.77
6.57
6.93
6.51
5.10
2.69
-0.43
-3.77
-6.75
-8.93
-10.09
-10.23
-9.53
-8.22
-6.55
-4.74
-3.03
-1.69
-0.91
-0.78
-1.24
-2.08
-3.04
-3.89
-4.49
-4.85
-5.04
-5.17
-5.29
-5.42
-5.54
-5.65
-5.76
-5.90
-6.06
-6.15
-6.04
-5.60
-4.78
-3.66
-2.45
-1.34
-0.48
0.08
0.42
0.61
0.71
0.73
0.68
0.57
0.50
0.55
0.77
1.13
1.53
1.86
1.99
1.91
1.62
1.23
0.81
0.43
0.09
-0.23
-0.57
-0.93
-1.28
-1.58
-1.82
-2.04
-2.33
-2.80
-3.49
-4.30
-5.04
-5.47
-5.46
-5.00
-4.17
-3.15
-2.07
-1.04
-0.10
0.71
1.37
1.82
2.04
2.08
2.00
1.81
1.55
1.28
1.08
1.01
1.11
1.36
1.69
2.03
2.21
2.14
1.84
1.41
0.93
0.47
0.03
-0.38
-0.69
-1.03
-1.50
-2.05
-2.58
-3.00
-3.28
-3.43
-3.50
-3.54
-3.87
-4.74
-6.23
-8.18
-10.30
-12.23
-13.68
-14.42
-13.12
-9.27
-3.56
2.62
8.14
12.47
15.43
16.96
17.13
16.27
14.63
12.50
10.11
7.58
4.82
1.82
-1.31
-4.25
-6.56
-8.15
-9.05
-9.36
-9.19
-8.81
-8.14
-7.11
-5.71
-3.95
-2.03
-0.16
1.49
2.87
4.01
5.01
5.89
6.63
7.16
7.30
7.00
6.36
5.62
5.01
4.66
4.51
4.36
4.02
3.41
2.55
1.62
0.85
0.37
0.24
0.35
0.51
0.55
0.38
-0.01
-0.54
-1.14
-1.76
-2.37
-2.99
-3.62
-4.22
-4.71
-4.99
-4.96
-4.60
-3.94
-3.10
-2.21
-1.41
-0.80
-0.43
-0.30
-0.41
-0.70
-1.13
-1.62
-2.13
-2.60
-3.01
-3.33
-3.60
-3.85
-4.09
-4.37
-4.66
-4.96
-5.22
-5.38
-5.37
-5.16
-4.69
-3.98
-3.09
-2.14
-1.23
-0.46
0.16
0.72
1.33
2.13
3.16
4.43
5.90
7.54
9.34
11.31
13.38
15.39
17.05
18.07
18.25
17.65
16.52
15.29
14.30
13.70
13.37
13.03
12.40
11.38
10.03
8.53
7.07
5.71
4.41
3.09
1.69
0.22
-1.26
-2.65
-3.95
-5.17
-6.38
-7.63
-8.90
-10.09
-11.05
-11.66
-11.85
-11.68
-11.25
-10.69
-10.08
-9.46
-8.87
-8.36
-7.99
-7.78
-7.69
-7.59
-7.36
-6.99
-6.57
-6.32
-6.32
-6.47
-6.40
-5.65
-3.85
-1.01
2.53
6.08
8.96
10.76
11.49
11.50
11.22
10.98
10.81
10.56
9.93
8.61
6.43
3.35
-0.53
-5.05
-9.92
-14.85
-18.87
-20.97
-20.81
-19.08
-16.97
-15.37
-15.05
-15.55
-16.29
-16.80
-16.90
-16.70
-15.92
-14.42
-11.89
-8.08
-2.74
3.96
11.51
19.03
25.65
30.79
34.15
35.58
34.72
31.06
24.21
14.43
2.94
-8.39
-17.64
-23.78
-26.94
-28.22
-28.93
-29.82
-30.73
-30.83
-29.25
-25.58
-20.12
-13.68
-7.14
-1.22
3.61
7.01
8.79
8.82
7.20
4.47
1.66
-0.02
0.45
3.38
8.19
13.56
17.99
20.44
20.71
19.35
17.33
15.44
14.04
13.03
12.11
11.09
9.98
9.00
8.37
8.19
8.31
8.50
8.51
8.22
7.68
7.06
6.51
6.08
5.67
5.17
4.50
3.69
2.88
2.24
1.87
1.77
1.83
1.91
1.89
1.71
1.36
0.93
0.53
0.32
0.41
0.85
1.57
2.36
2.96
3.16
2.86
2.16
1.25
0.42
-0.05
0.07
0.87
2.27
4.03
5.82
7.33
8.32
8.71
8.59
8.11
7.38
6.37
5.01
3.25
1.16
-1.03
-3.10
-4.80
-6.07
-7.03
-7.92
-8.99
-10.27
-11.64
-12.82
-13.57
-13.71
-13.12
-11.81
-9.87
-7.42
-4.57
-1.43
1.82
4.49
5.92
6.01
5.35
4.87
5.10
5.94
6.83
7.11
6.41
4.93
3.26
2.04
1.63
1.96
2.71
3.46
3.94
3.98
3.55
2.61
0.99
-1.42
-4.55
-7.91
-10.78
-12.43
-12.41
-10.61
-7.17
-2.36
3.42
9.59
15.18
18.88
19.41
16.19
9.79
1.95
-4.98
-9.16
-10.10
-8.82
-7.31
-7.29
-9.25
-12.24
-14.49
-14.45
-11.43
-5.48
3.27
14.49
27.64
41.35
53.15
59.92
59.09
49.95
34.21
15.28
-3.44
-19.82
-33.43
-44.85
-54.48
-61.35
-64.74
-63.97
-59.48
-53.21
-47.71
-45.22
-46.99
-52.89
-61.10
-68.39
-70.99
-64.79
-47.73
-20.86
11.52
43.04
67.70
81.61
84.95
81.14
74.51
68.03
62.52
57.20
50.99
43.71
36.19
29.62
24.56
20.54
16.25
10.40
2.56
-6.40
-14.69
-20.39
-22.28
-20.52
-16.45
-12.10
-9.19
-8.43
-9.36
-10.78
-11.43
-10.73
-9.04
-7.40
-6.87
-7.98
-10.55
-13.95
-17.56
-20.92
-23.66
-25.31
-25.22
-23.00
-19.03
-14.54
-11.27
-10.59
-12.53
-15.54
-17.13
-15.09
-8.68
1.18
12.04
21.35
27.42
29.81
29.28
27.22
25.14
24.28
25.22
27.43
29.51
29.54
25.91
18.26
7.87
-2.76
-11.03
-15.62
-17.07
-17.61
-19.84
-25.48
-34.51
-45.54
-56.64
-65.97
-71.50
-70.73
-60.97
-41.06
-13.32
15.62
36.40
41.09
27.72
1.94
-25.18
-42.61
-44.62
-32.92
-14.36
3.80
17.76
28.14
37.83
48.66
59.51
67.09
67.90
61.59
50.83
40.06
33.48
33.01
37.90
45.53
52.81
56.69
55.34
48.06
35.44
19.23
1.88
-14.03
-26.54
-34.84
-39.27
-40.67
-39.94
-37.57
-33.52
-27.92
-21.35
-14.94
-9.95
-7.21
-6.62
-7.33
-8.14
-8.04
-6.67
-4.40
-2.04
-0.42
-0.04
-0.82
-2.30
-3.82
-4.87
-5.25
-4.99
-4.33
-3.57
-3.01
-2.90
-3.42
-4.53
-5.92
-7.06
-7.37
-6.54
-4.67
-2.27
-0.04
1.49
2.20
2.34
2.32
2.38
2.47
2.30
1.55
0.16
-1.61
-3.29
-4.44
-4.89
-4.82
-4.57
-4.46
-4.61
-4.89
-5.10
-5.11
-5.00
-5.01
-5.34
-6.04
-6.91
-7.58
-7.76
-7.39
-6.65
-5.98
-5.82
-6.42
-7.70
-9.32
-10.80
-11.72
-11.75
-10.77
-8.87
-6.29
-3.48
-0.98
0.65
1.02
0.10
-1.74
-3.76
-5.14
-5.24
-3.89
-1.45
1.34
3.73
5.22
5.80
5.74
5.30
4.47
2.87
-0.06
-4.57
-10.19
-15.65
-19.17
-19.15
-14.95
-7.21
2.28
11.15
17.35
19.75
18.47
14.55
9.52
4.86
1.72
0.91
2.83
7.58
14.97
24.39
34.85
44.94
53.30
58.89
61.46
61.33
59.23
55.92
52.06
48.07
44.12
40.31
36.63
33.06
29.22
24.56
18.69
11.71
4.31
-2.53
-7.78
-11.70
-13.91
-14.11
-12.68
-10.84
-10.14
-11.47
-15.45
-21.91
-29.87
-37.79
-44.37
-48.22
-48.72
-46.11
-41.29
-35.43
-29.49
-24.02
-19.15
-14.93
-11.45
-8.82
-7.01
-5.77
-4.79
-3.79
-2.67
-1.52
-0.65
-0.34
-0.76
-1.76
-3.04
-4.24
-5.18
-5.84
-6.34
-6.87
-7.54
-8.47
-9.66
-11.08
-12.70
-14.44
-16.20
-17.81
-19.13
-20.03
-20.50
-20.59
-20.34
-19.72
-18.60
-16.82
-14.39
-11.51
-8.60
-6.06
-4.18
-2.97
-2.28
-1.97
-2.03
-2.56
-3.58
-4.84
-5.78
-5.67
-3.93
-0.42
4.44
9.83
14.83
18.69
21.06
21.94
21.60
20.38
18.61
16.51
14.20
11.81
9.49
7.44
5.88
4.97
4.74
5.06
5.66
6.22
6.44
6.16
5.42
4.53
3.92
4.03
5.06
6.85
8.85
10.33
10.72
9.83
7.99
5.88
4.17
3.26
3.12
3.41
3.66
3.58
3.11
2.41
1.64
0.91
0.19
-0.66
-1.78
-3.24
-4.96
-6.78
-8.52
-10.00
-11.17
-12.05
-12.74
-13.31
-13.74
-13.91
-13.63
-12.79
-11.41
-9.66
-7.75
-5.84
-3.94
-1.93
0.33
2.91
5.73
8.59
11.21
13.33
14.75
15.38
15.30
14.69
13.86
13.11
12.66
12.57
12.74
12.98
13.08
12.94
12.56
12.03
11.42
10.80
10.15
9.41
8.53
7.48
6.34
5.23
4.25
3.41
2.57
1.54
0.14
-1.65
-3.67
-5.56
-6.95
-7.60
-7.44
-6.61
-5.32
-3.85
-2.40
-1.17
-0.17
0.61
1.19
1.56
1.70
1.59
1.26
0.77
0.19
-0.25
-0.40
-0.26
0.04
0.32
0.44
0.42
0.41
0.49
0.95
1.83
2.88
3.64
3.71
2.95
1.71
0.68
0.55
2.05
5.33
9.78
14.29
17.85
19.87
20.67
20.97
19.49
15.58
9.64
3.01
-3.20
-8.02
-12.15
-15.83
-19.02
-21.68
-23.29
-23.36
-21.50
-17.57
-11.47
-4.49
1.08
2.93
0.35
-5.05
-10.50
-13.69
-13.90
-12.14
-10.70
-10.87
-12.73
-15.30
-16.93
-16.42
-13.68
-9.67
-5.77
-3.04
-1.40
-0.33
0.70
1.97
3.08
3.54
3.28
2.61
1.73
0.45
-1.85
-5.67
-10.41
-14.28
-15.11
-11.16
-1.96
11.38
26.65
41.26
51.07
53.00
47.12
36.29
24.04
12.75
3.18
-4.87
-11.68
-17.13
-20.56
-21.35
-19.75
-16.92
-14.34
-13.13
-13.56
-15.11
-16.85
-17.91
-17.37
-15.13
-11.79
-8.32
-5.49
-3.66
-2.77
-2.49
-2.25
-1.50
-0.06
1.91
4.01
5.81
7.02
7.50
7.34
6.83
6.35
6.01
5.80
5.55
5.08
4.31
3.34
2.30
1.35
0.58
-0.03
-0.51
-0.86
-1.11
-1.24
-1.30
-1.36
-1.46
-1.64
-1.80
-1.92
-2.04
-2.37
-3.05
-4.13
-5.46
-6.79
-7.88
-8.50
-8.57
-8.31
-8.03
-7.96
-8.10
-8.23
-8.12
-7.67
-6.72
-5.34
-3.95
-3.14
-3.24
-4.14
-5.44
-6.74
-7.92
-8.74
-9.30
-10.15
-12.04
-15.31
-19.59
-23.90
-26.94
-27.47
-23.81
-14.86
-0.76
16.92
35.77
53.14
66.67
74.85
73.99
63.30
46.52
29.97
18.10
11.38
7.73
4.71
1.66
-1.38
-3.20
-2.88
-0.77
1.68
3.00
2.61
0.58
-2.24
-4.96
-6.52
-6.48
-5.32
-4.08
-3.63
-4.22
-5.53
-6.90
-7.83
-7.80
-6.73
-5.11
-3.75
-3.27
-3.76
-4.84
-5.90
-6.50
-6.34
-5.51
-4.38
-3.43
-2.93
-2.85
-2.99
-3.10
-3.10
-2.97
-2.75
-2.55
-2.40
-2.28
-2.10
-1.80
-1.31
-0.68
0.06
0.82
1.53
2.14
2.59
2.87
2.97
2.92
2.74
2.45
2.12
1.83
1.66
1.67
1.83
2.03
2.12
1.95
1.51
0.85
0.16
-0.39
-0.70
-0.74
-0.60
-0.39
-0.23
-0.19
-0.31
-0.56
-0.87
-1.11
-1.19
-0.99
-0.47
0.39
1.51
2.80
4.06
5.14
5.88
6.18
6.06
5.61
5.00
4.40
3.94
3.64
3.45
3.28
3.01
2.58
1.95
1.13
0.16
-0.90
-1.96
-2.91
-3.71
-4.34
-4.87
-5.39
-5.98
-6.70
-7.57
-8.58
-9.67
-10.74
-11.69
-12.43
-12.95
-13.31
-13.65
-14.13
-14.80
-15.54
-16.11
-16.29
-15.97
-15.16
-14.01
-12.67
-11.24
-9.75
-8.17
-6.52
-4.87
-3.22
-1.50
0.53
3.04
6.04
9.37
12.81
16.15
19.27
22.12
24.67
26.86
28.52
29.43
29.53
28.98
27.90
26.22
23.69
20.04
15.28
9.73
3.89
-1.76
-6.89
-11.01
-13.70
-14.91
-14.92
-14.05
-12.46
-10.38
-8.69
-7.47
-6.74
-6.49
-6.61
-6.94
-7.40
-7.59
-7.46
-7.06
-6.36
-5.36
-4.13
-2.81
-1.55
-0.46
0.42
1.03
1.37
1.58
1.70
1.78
1.85
1.96
2.12
2.35
2.49
2.43
2.14
1.63
0.95
0.17
-0.62
-1.39
-2.09
-2.76
-3.41
-4.00
-4.50
-4.86
-5.07
-5.14
-5.16
-5.25
-5.47
-5.80
-6.11
-6.25
-6.12
-5.80
-5.40
-5.07
-4.90
-4.84
-4.77
-4.56
-4.11
-3.37
-2.34
-1.06
0.35
1.74
2.91
3.72
4.14
4.29
4.36
4.48
4.69
4.93
5.06
5.00
4.76
4.47
4.26
4.21
4.27
4.33
4.27
4.06
3.76
3.56
3.57
3.83
4.19
4.40
4.25
3.73
2.97
2.26
1.81
1.69
1.85
2.11
2.28
2.30
2.18
2.03
1.99
2.17
2.74
3.87
5.60
7.79
10.21
12.57
14.66
16.39
17.78
18.82
19.44
19.33
18.07
15.40
11.28
5.90
-0.40
-7.39
-14.97
-22.39
-28.45
-32.27
-33.89
-34.21
-34.05
-33.61
-32.65
-30.81
-27.88
-24.09
-20.58
-17.60
-15.27
-13.56
-12.18
-10.87
-9.50
-8.09
-6.80
-5.73
-4.76
-3.64
-2.23
-0.31
2.12
4.84
7.48
9.64
11.15
12.10
12.74
13.52
15.21
18.40
23.12
28.82
34.55
39.44
42.90
44.64
42.73
36.21
25.62
12.82
-0.12
-11.74
-21.25
-28.26
-32.70
-34.54
-33.43
-29.14
-21.88
-12.66
-3.12
5.06
10.64
13.24
13.38
12.32
11.19
10.47
10.18
9.64
8.51
6.90
5.18
3.70
2.71
2.15
1.73
1.10
0.09
-1.16
-2.37
-3.33
-3.94
-4.20
-4.22
-4.18
-4.21
-4.38
-4.57
-4.61
-4.36
-3.75
-2.79
-1.63
-0.53
0.23
0.45
0.12
-0.59
-1.47
-2.32
-3.04
-3.67
-4.25
-4.82
-5.39
-5.88
-6.27
-6.65
-7.14
-7.88
-8.87
-9.92
-10.76
-11.06
-10.65
-9.53
-7.90
-6.02
-4.16
-2.48
-1.04
0.16
1.15
1.92
2.46
2.75
2.83
2.73
2.55
2.36
2.24
2.23
2.28
2.35
2.34
2.21
1.93
1.49
0.94
0.35
-0.18
-0.55
-0.68
-0.64
-0.53
-0.56
-0.88
-1.57
-2.54
-3.62
-4.58
-5.21
-5.37
-5.00
-4.11
-2.82
-1.31
0.17
1.45
2.43
3.12
3.63
4.01
4.28
4.38
4.26
3.97
3.60
3.29
3.11
3.02
2.92
2.71
2.37
1.93
1.48
1.10
0.80
0.59
0.45
0.33
0.19
-0.01
-0.30
-0.70
-1.16
-1.66
-2.13
-2.55
-2.85
-2.98
-2.88
-2.50
-1.85
-0.96
0.11
1.30
2.55
3.77
4.86
5.68
6.15
6.22
5.94
5.41
4.75
4.09
3.54
3.16
2.98
2.99
3.12
3.31
3.45
3.49
3.35
3.00
2.40
1.57
0.57
-0.48
-1.41
-2.14
-2.68
-3.13
-3.65
-4.35
-5.21
-6.06
-6.67
-6.84
-6.47
-5.60
-4.37
-2.99
-1.60
-0.31
0.87
1.91
2.78
3.44
3.82
3.94
3.90
3.85
3.95
4.23
4.63
4.96
5.08
4.94
4.61
4.26
4.01
3.91
3.88
3.81
3.61
3.21
2.62
1.87
1.06
0.30
-0.31
-0.70
-0.93
-1.11
-1.43
-2.06
-3.10
-4.53
-6.18
-7.81
-9.10
-9.81
-9.79
-9.06
-7.78
-6.21
-4.63
-3.22
-2.07
-1.18
-0.51
-0.01
0.39
0.77
1.19
1.70
2.31
2.91
3.42
3.75
3.88
3.87
3.81
3.76
3.72
3.68
3.61
3.51
3.40
3.27
3.06
2.68
2.06
1.26
0.42
-0.28
-0.71
-0.88
-0.96
-1.14
-1.53
-2.13
-2.81
-3.40
-3.81
-4.02
-4.09
-4.00
-3.72
-3.19
-2.39
-1.41
-0.35
0.68
1.61
2.42
3.09
3.57
3.79
3.69
3.32
2.82
2.36
2.08
2.02
2.11
2.26
2.36
2.41
2.41
2.39
2.33
2.19
1.92
1.54
1.09
0.64
0.24
-0.13
-0.48
-0.89
-1.40
-1.99
-2.67
-3.40
-4.13
-4.79
-5.31
-5.57
-5.47
-4.94
-4.00
-2.79
-1.50
-0.34
0.59
1.29
1.84
2.29
2.68
2.96
3.07
3.00
2.81
2.59
2.41
2.31
2.24
2.16
2.08
2.00
1.97
1.98
2.01
1.98
1.87
1.63
1.28
0.82
0.30
-0.26
-0.79
-1.29
-1.76
-2.28
-2.95
-3.83
-4.86
-5.87
-6.63
-6.91
-6.62
-5.81
-4.63
-3.27
-1.90
-0.62
0.48
1.35
1.95
2.29
2.42
2.45
2.47
2.54
2.66
2.76
2.81
2.80
2.78
2.79
2.87
2.97
3.07
3.12
3.07
2.94
2.69
2.34
1.90
1.41
0.92
0.47
0.07
-0.30
-0.67
-1.12
-1.68
-2.36
-3.09
-3.75
-4.19
-4.24
-3.82
-2.93
-1.67
-0.20
1.31
2.74
4.02
5.16
6.15
6.96
7.54
7.88
8.01
8.00
7.95
7.97
8.08
8.25
8.40
8.41
8.16
7.55
6.51
5.08
3.36
1.46
-0.45
-2.29
-3.99
-5.55
-6.96
-8.22
-9.32
-10.27
-11.05
-11.68
-12.17
-12.51
-12.71
-12.78
-12.72
-12.46
-11.91
-10.97
-9.58
-7.86
-5.99
-4.25
-2.79
-1.64
-0.66
0.28
1.23
2.07
2.61
2.71
2.41
1.96
1.67
1.79
2.31
3.03
3.64
3.94
3.86
3.54
3.17
2.90
2.76
2.62
2.37
1.91
1.29
0.62
0.01
-0.48
-0.90
-1.34
-1.89
-2.55
-3.22
-3.75
-4.00
-3.90
-3.45
-2.73
-1.86
-0.92
0.03
0.98
1.91
2.82
3.67
4.40
4.94
5.20
5.13
4.71
3.98
3.04
2.01
1.03
0.19
-0.47
-0.96
-1.34
-1.67
-2.02
-2.43
-2.85
-3.22
-3.41
-3.30
-2.82
-1.98
-0.93
0.16
1.00
1.38
1.14
0.31
-0.89
-2.11
-2.97
-3.17
-2.67
-1.60
-0.21
1.26
2.67
3.93
5.00
5.82
6.31
6.40
6.09
5.47
4.66
3.81
3.04
2.44
2.06
1.91
1.95
2.09
2.25
2.38
2.41
2.34
2.13
1.76
1.23
0.60
-0.05
-0.62
-1.05
-1.38
-1.70
-2.09
-2.59
-3.15
-3.68
-4.07
-4.27
-4.28
-4.11
-3.74
-3.14
-2.27
-1.13
0.20
1.56
2.77
3.68
4.23
4.46
4.46
4.33
4.14
3.90
3.64
3.35
3.03
2.69
2.32
1.94
1.59
1.37
1.36
1.59
1.96
2.28
2.30
1.87
1.05
0.08
-0.63
-0.71
0.05
1.63
3.82
6.21
8.37
9.86
10.36
9.77
8.24
6.15
4.08
2.62
2.22
3.13
5.34
8.63
12.66
17.01
21.30
25.17
28.36
30.63
31.77
31.62
30.12
27.50
24.23
20.91
17.99
15.51
13.07
10.00
5.79
0.41
-5.55
-11.13
-15.42
-17.92
-18.72
-18.35
-17.48
-16.66
-16.17
-15.99
-15.88
-15.41
-14.17
-11.83
-8.34
-4.01
0.57
4.70
7.79
9.56
10.08
9.64
8.59
7.16
5.44
3.44
1.12
-1.48
-4.31
-7.27
-10.26
-13.12
-15.62
-17.51
-18.57
-18.68
-17.86
-16.28
-14.14
-11.63
-8.86
-5.88
-2.72
0.51
3.60
6.29
8.22
9.12
8.79
7.24
4.71
1.63
-1.49
-4.17
-6.10
-7.20
-7.57
-7.42
-6.98
-6.46
-6.04
-5.88
-6.12
-6.78
-7.76
-8.87
-9.89
-10.65
-11.12
-11.38
-11.52
-11.58
-11.52
-11.29
-10.82
-10.12
-9.22
-8.18
-7.04
-5.84
-4.65
-3.57
-2.76
-2.35
-2.40
-2.83
-3.46
-4.10
-4.59
-4.92
-5.17
-5.41
-5.66
-5.79
-5.59
-4.91
-3.74
-2.27
-0.81
0.38
1.17
1.60
1.81
1.94
2.06
2.16
2.24
2.29
2.33
2.38
2.43
2.42
2.32
2.10
1.78
1.39
0.98
0.58
0.24
-0.03
-0.22
-0.35
-0.45
-0.58
-0.81
-1.19
-1.74
-2.46
-3.32
-4.21
-4.99
-5.44
-5.38
-4.74
-3.59
-2.20
-0.91
-0.01
0.34
0.22
-0.16
-0.47
-0.43
0.12
1.25
2.86
4.82
6.95
9.06
11.04
12.77
14.16
15.09
15.45
15.15
14.17
12.61
10.66
8.55
6.51
4.67
3.09
1.73
0.53
-0.58
-1.63
-2.66
-3.69
-4.78
-5.98
-7.35
-8.85
-10.36
-11.64
-12.44
-12.53
-11.86
-10.56
-8.85
-7.00
-5.21
-3.59
-2.19
-1.02
-0.10
0.58
1.08
1.48
1.83
2.16
2.43
2.58
2.59
2.49
2.41
2.44
2.62
2.92
3.23
3.44
3.49
3.37
3.13
2.79
2.40
2.01
1.65
1.37
1.19
1.07
0.92
0.57
-0.09
-1.07
-2.28
-3.48
-4.39
-4.77
-4.48
-3.52
-2.00
-0.08
2.03
4.14
6.14
7.98
9.70
11.39
13.16
15.09
17.24
19.66
22.40
25.39
28.45
31.21
33.18
33.85
32.92
30.40
26.61
22.11
17.53
13.42
10.22
8.21
7.46
7.84
8.98
10.33
11.28
11.31
10.17
7.91
4.80
1.26
-2.36
-5.77
-8.80
-11.30
-13.14
-14.22
-14.51
-14.09
-13.16
-11.98
-10.79
-9.75
-9.00
-8.61
-8.66
-9.18
-10.11
-11.30
-12.52
-13.56
-14.29
-14.68
-14.82
-14.77
-14.59
-14.28
-13.82
-13.24
-12.59
-11.94
-11.35
-10.88
-10.65
-10.81
-11.50
-12.73
-14.28
-15.73
-16.62
-16.70
-16.05
-15.03
-14.10
-13.57
-13.41
-13.32
-12.95
-12.13
-10.92
-9.60
-8.42
-7.46
-6.62
-5.72
-4.63
-3.40
-2.14
-1.04
-0.16
0.53
1.17
1.95
2.94
4.13
5.36
6.37
6.90
6.82
6.16
5.16
4.13
3.30
2.78
2.58
2.62
2.86
3.28
3.78
4.19
4.29
3.98
3.34
2.69
2.41
2.71
3.53
4.49
5.09
4.95
3.94
2.20
0.08
-2.04
-3.88
-5.25
-6.13
-6.56
-6.63
-6.43
-6.00
-5.37
-4.54
-3.54
-2.47
-1.42
-0.47
0.38
1.15
1.91
2.63
3.21
3.51
3.42
2.96
2.31
1.75
1.48
1.49
1.53
1.22
0.27
-1.32
-3.22
-4.91
-5.89
-5.94
-5.14
-3.85
-2.46
-1.27
-0.43
0.09
0.36
0.46
0.44
0.32
0.13
-0.10
-0.29
-0.34
-0.11
0.44
1.31
2.32
3.25
3.85
3.97
3.58
2.77
1.68
0.47
-0.67
-1.50
-1.68
-0.85
1.18
4.24
7.64
10.37
11.41
10.21
7.03
2.86
-0.99
-3.47
-4.20
-3.56
-2.35
-1.31
-0.79
-0.67
-0.68
-0.59
-0.45
-0.49
-0.92
-1.73
-2.66
-3.35
-3.48
-3.01
-2.12
-1.18
-0.51
-0.29
-0.46
-0.75
-0.84
-0.48
0.40
1.67
3.07
4.33
5.24
5.72
5.80
5.59
5.23
4.85
4.51
4.20
3.79
3.15
2.23
1.18
0.29
-0.08
0.25
1.18
2.32
3.11
3.12
2.19
0.51
-1.46
-3.25
-4.54
-5.30
-5.72
-6.05
-6.40
-6.67
-6.56
-5.76
-4.13
-1.81
0.85
3.45
5.72
7.58
9.10
10.32
11.10
11.19
10.36
8.59
6.20
3.70
1.66
0.45
0.21
0.82
2.08
3.76
5.67
7.60
9.33
10.58
11.07
10.59
9.04
6.48
3.08
-0.83
-4.85
-8.55
-11.51
-13.44
-14.15
-13.67
-12.22
-10.19
-8.07
-6.34
-5.33
-5.10
-5.49
-6.14
-6.65
-6.72
-6.24
-5.27
-3.96
-2.49
-1.01
0.38
1.62
2.55
3.05
3.00
2.37
1.29
-0.04
-1.37
-2.51
-3.39
-4.00
-4.32
-4.33
-3.96
-3.20
-2.13
-0.94
0.13
0.94
1.46
1.77
2.00
2.22
2.42
2.59
2.72
2.84
3.01
3.26
3.58
3.91
4.16
4.25
4.12
3.74
3.08
2.21
1.21
0.26
-0.49
-0.93
-1.06
-1.00
-0.91
-0.95
-1.19
-1.59
-2.01
-2.26
-2.20
-1.80
-1.13
-0.35
0.42
1.14
1.80
2.44
3.04
3.52
3.78
3.75
3.45
2.98
2.49
2.11
1.85
1.64
1.39
1.04
0.58
0.10
-0.30
-0.55
-0.66
-0.70
-0.79
-1.01
-1.35
-1.77
-2.17
-2.45
-2.52
-2.36
-1.98
-1.47
-0.92
-0.42
-0.01
0.33
0.65
1.01
1.40
1.74
1.97
2.01
1.92
1.78
1.67
1.64
1.64
1.60
1.47
1.26
0.99
0.75
0.56
0.42
0.31
0.20
0.11
0.03
-0.08
-0.29
-0.66
-1.18
-1.78
-2.28
-2.50
-2.34
-1.82
-1.06
-0.26
0.43
0.94
1.26
1.48
1.64
1.78
1.87
1.87
1.78
1.65
1.56
1.58
1.71
1.88
1.98
1.90
1.61
1.19
0.78
0.52
0.48
0.60
0.79
0.94
0.98
0.91
0.77
0.57
0.33
0.09
-0.10
-0.18
-0.10
0.14
0.51
1.01
1.66
2.52
3.58
4.76
5.86
6.66
7.01
6.91
6.53
6.08
5.69
5.40
5.13
4.81
4.40
3.99
3.67
3.53
3.59
3.78
3.99
4.10
4.03
3.69
3.07
2.14
0.99
-0.29
-1.53
-2.62
-3.46
-4.07
-4.49
-4.78
-4.92
-4.84
-4.46
-3.73
-2.73
-1.66
-0.79
-0.36
-0.51
-1.20
-2.28
-3.49
-4.59
-5.39
-5.81
-5.86
-5.61
-5.19
-4.69
-4.19
-3.75
-3.43
-3.30
-3.47
-4.01
-4.94
-6.16
-7.48
-8.69
-9.56
-9.98
-9.92
-9.41
-8.57
-7.51
-6.34
-5.18
-4.07
-3.03
-2.01
-0.95
0.22
1.52
2.94
4.40
5.79
6.91
7.55
7.55
6.90
5.75
4.40
3.19
2.37
2.00
1.99
2.13
2.28
2.34
2.33
2.25
2.08
1.79
1.30
0.67
-0.02
-0.60
-0.94
-1.01
-0.89
-0.75
-0.70
-0.81
-1.03
-1.28
-1.49
-1.64
-1.81
-2.07
-2.45
-2.86
-3.14
-3.12
-2.75
-2.12
-1.39
-0.76
-0.35
-0.17
-0.14
-0.15
-0.12
-0.05
0.09
0.26
0.48
0.74
1.00
1.22
1.33
1.32
1.20
1.00
0.77
0.59
0.50
0.53
0.67
0.83
0.90
0.77
0.41
-0.08
-0.55
-0.82
-0.79
-0.52
-0.15
0.15
0.27
0.23
0.10
0.03
0.13
0.44
0.93
1.51
2.07
2.55
2.95
3.32
3.70
4.05
4.29
4.24
3.79
2.92
1.74
0.46
-0.75
-1.76
-2.60
-3.27
-3.77
-4.04
-4.00
-3.68
-3.21
-2.80
-2.64
-2.77
-3.10
-3.42
-3.52
-3.32
-2.87
-2.31
-1.80
-1.42
-1.16
-0.92
-0.61
-0.17
0.35
0.84
1.18
1.30
1.24
1.13
1.07
1.10
1.17
1.21
1.15
1.00
0.83
0.71
0.65
0.60
0.49
0.28
0.02
-0.22
-0.37
-0.44
-0.50
-0.68
-1.04
-1.57
-2.15
-2.64
-2.90
-2.92
-2.78
-2.59
-2.43
-2.25
-1.97
-1.52
-0.94
-0.32
0.18
0.47
0.54
0.45
0.32
0.20
0.15
0.18
0.26
0.37
0.48
0.55
0.59
0.58
0.53
0.45
0.31
0.13
-0.10
-0.33
-0.54
-0.66
-0.71
-0.72
-0.77
-0.94
-1.27
-1.76
-2.31
-2.78
-3.01
-2.89
-2.43
-1.72
-0.91
-0.11
0.58
1.14
1.58
1.90
2.07
2.07
1.91
1.60
1.19
0.74
0.32
0.02
-0.13
-0.10
0.03
0.17
0.26
0.27
0.25
0.24
0.31
0.40
0.48
0.46
0.30
0.01
-0.37
-0.75
-1.07
-1.28
-1.37
-1.33
-1.19
-0.96
-0.66
-0.30
0.09
0.49
0.83
1.06
1.16
1.15
1.10
1.08
1.09
1.07
0.95
0.68
0.32
-0.05
-0.31
-0.39
-0.31
-0.17
-0.06
-0.04
-0.12
-0.25
-0.41
-0.60
-0.85
-1.17
-1.54
-1.92
-2.26
-2.53
-2.66
-2.62
-2.39
-1.94
-1.30
-0.54
0.23
0.91
1.40
1.68
1.76
1.70
1.58
1.47
1.44
1.50
1.63
1.75
1.79
1.67
1.43
1.13
0.87
0.71
0.62
0.50
0.28
-0.06
-0.43
-0.69
-0.73
-0.57
-0.29
-0.02
0.12
0.14
0.13
0.22
0.47
0.88
1.39
1.91
2.35
2.66
2.84
2.92
2.94
2.94
2.94
2.90
2.82
2.69
2.53
2.39
2.33
2.38
2.52
2.72
2.93
3.13
3.32
3.49
3.58
3.54
3.33
2.96
2.53
2.21
2.16
2.45
3.05
3.82
4.62
5.35
5.99
6.59
7.19
7.74
8.14
8.21
7.83
6.96
5.68
4.13
2.50
0.94
-0.44
-1.59
-2.49
-3.17
-3.74
-4.36
-5.23
-6.53
-8.36
-10.65
-13.21
-15.74
-17.92
-19.52
-20.44
-20.73
-20.55
-20.08
-19.41
-18.55
-17.42
-15.95
-14.11
-12.01
-9.83
-7.78
-5.99
-4.51
-3.29
-2.25
-1.29
-0.29
0.84
2.16
3.69
5.36
7.00
8.43
9.43
9.91
9.88
9.44
8.75
7.98
7.29
6.90
7.00
7.76
9.22
11.31
13.81
16.52
19.27
22.02
24.77
27.42
29.77
31.51
32.38
32.21
30.99
28.80
25.78
22.15
18.15
14.08
10.34
7.46
5.78
5.32
5.73
6.45
6.91
6.69
5.64
3.86
1.81
-0.07
-1.56
-2.59
-3.17
-3.25
-2.78
-1.74
-0.23
1.78
4.17
6.70
9.02
10.88
12.22
13.02
13.33
11.56
7.10
0.54
-6.66
-13.25
-18.69
-23.02
-26.37
-29.11
-31.35
-32.84
-33.48
-33.44
-33.20
-32.84
-32.31
-31.44
-30.08
-28.15
-25.59
-22.54
-19.07
-15.60
-12.59
-10.30
-8.75
-7.78
-7.11
-6.31
-5.10
-3.38
-1.28
0.90
2.90
4.45
5.42
5.82
5.79
5.52
5.11
4.64
3.89
2.94
1.95
1.14
0.67
0.62
0.93
1.39
1.76
1.85
1.68
1.37
1.10
1.01
1.11
1.33
1.52
1.52
1.29
0.91
0.53
0.31
0.35
0.69
1.30
2.12
3.06
4.04
5.00
5.86
6.47
6.72
6.51
5.87
4.95
4.00
3.32
3.10
3.41
4.17
5.17
6.19
7.03
7.54
7.61
7.18
6.22
4.82
3.15
1.49
0.11
-0.81
-1.24
-1.37
-1.48
-1.86
-2.65
-3.78
-5.08
-6.31
-7.36
-8.19
-8.87
-9.45
-9.95
-10.30
-10.41
-10.22
-9.72
-8.97
-8.08
-7.18
-6.40
-5.82
-5.45
-5.23
-5.06
-4.85
-4.57
-4.23
-3.87
-3.52
-3.17
-2.75
-2.21
-1.52
-0.74
0.04
0.70
1.19
1.48
1.59
1.53
1.32
0.94
0.36
-0.39
-1.21
-1.92
-2.31
-2.19
-1.51
-0.35
1.05
2.44
3.59
4.41
4.92
5.23
5.45
5.65
5.85
6.07
6.30
6.53
6.64
6.38
5.48
3.76
1.31
-1.46
-3.96
-5.63
-6.21
-5.79
-4.73
-3.46
-2.31
-1.42
-0.79
-0.40
-0.24
-0.37
-0.78
-1.42
-2.14
-2.76
-3.13
-3.12
-2.71
-1.96
-0.99
0.02
0.95
1.73
2.35
2.82
3.14
3.30
3.27
3.06
2.77
2.46
2.20
2.00
1.79
1.52
1.20
0.87
0.64
0.55
0.61
0.80
1.04
1.25
1.37
1.35
1.15
0.77
0.28
-0.21
-0.56
-0.69
-0.58
-0.28
0.10
0.46
0.72
0.85
0.83
0.72
0.58
0.48
0.50
0.63
0.81
0.93
0.93
0.80
0.66
0.64
0.85
1.31
1.89
2.42
2.77
2.91
2.85
2.67
2.39
1.99
1.43
0.73
-0.01
-0.65
-1.04
-1.12
-0.88
-0.39
0.29
1.08
1.93
2.74
3.42
3.86
4.02
3.91
3.61
3.24
2.91
2.66
2.48
2.31
2.07
1.72
1.25
0.75
0.30
0.00
-0.11
-0.07
0.06
0.17
0.15
-0.03
-0.39
-0.83
-1.28
-1.66
-1.95
-2.21
-2.52
-2.94
-3.44
-3.91
-4.21
-4.22
-3.92
-3.37
-2.70
-2.05
-1.53
-1.18
-1.01
-0.93
-0.82
-0.57
-0.12
0.46
1.05
1.48
1.64
1.57
1.37
1.21
1.20
1.37
1.65
1.94
2.18
2.34
2.43
2.49
2.54
2.57
2.58
2.51
2.32
1.97
1.46
0.84
0.19
-0.42
-0.96
-1.43
-1.84
-2.21
-2.50
-2.68
-2.74
-2.73
-2.67
-2.60
-2.49
-2.34
-2.16
-2.06
-2.12
-2.35
-2.67
-2.89
-2.82
-2.43
-1.85
-1.32
-1.03
-1.02
-1.18
-1.30
-1.28
-1.13
-0.97
-0.90
-0.89
-0.86
-0.65
-0.24
0.28
0.71
0.89
0.77
0.47
0.19
0.11
0.30
0.74
1.31
1.88
2.33
2.58
2.58
2.33
1.90
1.40
0.98
0.73
0.70
0.83
1.02
1.19
1.31
1.39
1.41
1.37
1.23
1.03
0.82
0.72
0.78
0.96
1.09
1.00
0.58
-0.14
-0.96
-1.63
-1.92
-1.77
-1.22
-0.41
0.46
1.25
1.82
2.10
2.04
1.67
1.08
0.47
0.03
-0.09
0.13
0.59
1.10
1.49
1.67
1.66
1.54
1.42
1.33
1.28
1.26
1.26
1.28
1.35
1.52
1.80
2.15
2.53
2.83
2.99
3.03
3.01
3.02
3.16
3.44
3.82
4.24
4.67
5.13
5.72
6.47
7.34
8.13
8.63
8.68
8.22
7.32
6.13
4.83
3.57
2.43
1.50
0.87
0.56
0.47
0.42
0.13
-0.55
-1.66
-3.10
-4.71
-6.32
-7.85
-9.32
-10.78
-12.21
-13.43
-14.22
-14.39
-13.92
-12.79
-11.04
-8.78
-6.14
-3.36
-0.69
1.56
3.20
3.83
3.51
2.86
2.82
3.96
6.08
