1513731868.00
64.000000
-0.00
-0.00
-0.00
-0.00
-0.00
-0.00
-0.00
-0.00
-0.00
-0.00
0.00
0.01
0.01
-0.00
-0.03
-0.05
-0.05
0.00
0.13
0.36
0.66
1.01
1.37
1.72
2.06
2.40
2.79
3.24
3.80
4.42
5.06
5.66
6.20
6.68
7.15
7.68
8.31
9.14
10.09
11.04
11.88
12.56
13.14
13.76
14.65
15.96
17.91
20.32
22.90
25.38
27.58
29.57
31.68
34.32
37.81
42.54
48.15
54.10
59.83
64.97
69.58
74.14
79.34
85.71
93.76
103.00
112.62
121.73
129.77
136.75
143.30
150.75
157.77
166.64
177.95
191.79
206.97
220.57
228.25
225.36
208.53
176.87
132.76
80.05
23.07
-34.94
-92.44
-149.16
-205.23
-260.37
-313.74
-363.87
-409.83
-450.91
-486.50
-515.74
-537.23
-549.22
-549.96
-538.37
-514.21
-478.67
-433.88
-382.45
-327.02
-269.84
-212.63
-156.66
-102.95
-52.37
-5.90
35.58
71.43
101.35
125.50
144.38
158.69
169.15
176.37
180.75
182.57
182.07
179.51
175.23
169.65
163.18
156.15
148.81
141.30
133.69
126.02
118.33
110.69
103.16
95.80
88.68
81.83
75.25
68.95
62.95
57.25
51.86
46.78
42.03
37.59
33.45
29.61
26.07
22.81
19.83
17.11
14.67
12.48
10.54
8.83
7.35
6.07
4.97
4.05
3.27
2.62
2.09
1.65
1.30
1.02
0.79
0.61
0.47
0.36
0.28
0.24
0.21
0.19
0.15
0.09
0.01
-0.09
-0.18
-0.23
-0.24
-0.21
-0.16
-0.12
-0.12
-0.15
-0.20
-0.26
-0.28
-0.24
-0.18
-0.10
-0.07
-0.13
-0.27
-0.46
-0.62
-0.68
-0.61
-0.44
-0.26
-0.21
-0.39
-0.79
-1.32
-1.80
-2.02
-1.90
-1.50
-1.06
-0.84
-1.07
-1.77
-2.74
-3.63
-4.08
-3.92
-3.25
-2.45
-1.98
-2.21
-3.19
-4.60
-5.89
-6.61
-6.49
-5.66
-4.52
-3.55
-3.13
-3.55
-5.04
-7.68
-11.10
-14.22
-15.27
-12.46
-4.81
7.03
20.74
33.20
41.70
44.87
43.00
37.50
30.06
21.93
13.79
6.04
-0.79
-5.97
-8.94
-9.58
-8.46
-6.67
-5.31
-5.20
-6.49
-8.66
-10.74
-11.63
-10.59
-7.45
-2.80
2.23
6.44
8.96
9.61
8.79
7.24
5.60
4.17
2.86
1.41
-0.28
-2.05
-3.47
-4.12
-3.79
-2.65
-1.11
0.27
1.07
1.05
0.24
-1.08
-2.57
-3.88
-4.80
-5.23
-5.21
-4.80
-4.14
-3.39
-2.69
-2.32
-2.52
-3.54
-5.26
-7.29
-8.93
-9.47
-8.36
-5.42
-0.78
5.43
12.54
19.72
26.21
31.47
35.32
37.88
39.48
40.38
40.78
40.60
39.86
38.63
37.12
35.56
33.97
32.26
30.19
27.75
25.11
22.66
20.73
19.25
17.74
15.53
12.23
7.95
3.28
-1.09
-4.72
-7.72
-10.64
-14.20
-18.88
-24.57
-30.63
-35.93
-39.32
-39.94
-37.53
-32.60
-26.21
-19.67
-13.94
-9.56
-6.43
-4.21
-2.52
-1.21
-0.30
0.22
0.46
0.73
1.29
2.29
3.68
5.23
6.69
7.83
8.51
8.64
8.20
7.26
5.92
4.33
2.63
0.86
-1.01
-3.00
-5.20
-7.60
-10.24
-13.14
-16.27
-19.54
-22.64
-25.17
-26.60
-26.48
-24.54
-20.84
-15.80
-10.06
-4.50
0.13
3.16
4.36
3.80
1.97
-0.47
-2.83
-4.54
-5.35
-5.22
-4.34
-2.98
-1.42
0.14
1.51
2.51
2.94
2.62
1.54
-0.17
-2.15
-3.97
-5.32
-6.14
-6.63
-7.14
-8.01
-9.41
-11.33
-13.63
-16.17
-18.88
-21.54
-23.86
-25.22
-24.98
-22.59
-17.97
-11.67
-4.62
2.09
7.69
11.91
14.98
17.22
18.82
19.70
19.62
18.51
16.59
14.44
12.70
11.83
11.86
12.44
13.03
13.17
12.64
11.47
9.87
7.97
5.87
3.49
0.71
-2.48
-5.95
-9.35
-12.20
-14.19
-15.30
-15.91
-16.67
-18.23
-20.84
-24.29
-27.89
-30.74
-31.99
-31.19
-28.25
-23.50
-17.54
-11.03
-4.63
1.23
6.26
10.39
13.60
15.86
17.17
17.58
17.34
16.84
16.50
16.52
16.87
17.19
17.18
16.69
15.84
14.98
14.33
13.91
13.38
12.26
10.17
7.03
3.23
-0.68
-4.08
-6.68
-8.54
-10.06
-11.75
-14.08
-17.36
-21.60
-26.61
-31.93
-36.91
-40.84
-43.08
-43.39
-42.00
-39.63
-37.30
-35.94
-36.09
-37.78
-40.55
-43.84
-47.26
-50.80
-54.85
-59.91
-66.27
-73.80
-81.97
-90.07
-97.68
-104.86
-112.11
-120.15
-129.49
-140.24
-152.11
-164.69
-177.59
-190.50
-203.00
-214.30
-223.09
-227.57
-225.64
-215.14
-194.22
-161.53
-116.46
-59.47
7.56
80.75
153.93
218.93
266.96
290.72
286.66
256.75
208.26
152.22
100.39
62.41
43.76
45.82
67.04
104.26
153.11
207.62
259.98
301.41
324.36
325.04
304.98
270.41
229.93
191.23
158.82
133.53
113.71
97.18
82.72
70.37
60.71
53.81
48.73
43.76
37.37
29.12
19.99
12.26
8.22
8.99
13.74
20.01
24.75
25.60
21.64
13.42
2.23
-10.52
-23.93
-37.50
-50.98
-64.14
-76.65
-88.18
-98.40
-107.05
-114.04
-119.37
-123.15
-125.41
-126.00
-124.51
-120.36
-113.01
-102.31
-88.80
-73.66
-58.55
-45.12
-34.62
-27.46
-23.23
-20.86
-19.06
-16.83
-13.66
-9.62
-5.12
-0.66
3.47
7.35
11.29
15.73
20.87
26.53
32.11
36.71
39.47
39.79
37.54
33.06
27.03
20.32
13.75
7.90
3.08
-0.65
-3.37
-5.12
-5.89
-5.54
-4.02
-1.43
1.89
5.40
8.57
11.00
12.58
13.33
13.37
12.74
11.50
9.82
8.02
6.58
5.93
6.23
7.33
8.78
10.06
10.84
11.15
11.27
11.56
12.24
13.27
14.45
15.51
16.26
16.64
16.62
16.12
15.05
13.35
11.12
8.63
6.27
4.36
3.10
2.52
2.72
3.97
6.72
11.37
18.02
26.17
34.66
41.97
46.60
47.52
44.51
38.09
29.34
19.49
9.63
0.53
-7.30
-13.52
-17.81
-19.95
-19.97
-18.29
-15.75
-13.40
-12.16
-12.42
-13.97
-16.12
-18.09
-19.46
-20.22
-20.81
-21.79
-23.51
-25.96
-28.75
-31.23
-32.73
-32.72
-30.98
-27.66
-23.20
-18.26
-13.51
-9.44
-6.22
-3.80
-1.99
-0.60
0.49
1.37
2.07
2.62
2.97
3.08
2.87
2.30
1.43
0.33
-0.85
-1.99
-2.99
-3.77
-4.23
-4.39
-4.32
-4.23
-4.41
-5.08
-6.33
-8.06
-10.05
-12.07
-13.95
-15.67
-17.33
-19.07
-21.08
-23.41
-25.94
-28.26
-29.77
-29.77
-27.82
-23.87
-18.39
-12.23
-6.34
-1.49
2.00
4.19
5.46
6.22
6.80
7.39
8.01
8.61
9.16
9.57
9.79
9.81
9.63
9.26
8.75
8.08
7.21
6.04
4.45
2.47
0.31
-1.63
-2.83
-2.87
-1.65
0.63
3.37
5.93
7.76
8.55
8.34
7.37
6.03
4.68
3.68
3.21
3.27
3.74
4.35
5.02
5.86
7.19
9.34
12.43
16.18
20.05
23.46
25.95
27.44
28.06
28.07
27.66
26.94
25.89
24.46
22.60
20.29
17.57
14.53
11.34
8.10
4.91
1.92
-0.64
-2.37
-2.84
-1.73
0.95
4.81
9.22
13.44
16.84
18.94
19.47
18.36
15.78
12.21
8.38
5.13
3.00
2.12
2.08
2.18
1.71
0.17
-2.71
-6.96
-12.44
-18.82
-25.55
-31.79
-36.62
-39.16
-38.84
-35.49
-29.30
-20.85
-10.95
-0.60
9.04
16.94
22.33
25.01
25.43
24.43
23.02
21.94
21.47
21.42
21.35
20.81
19.50
17.32
14.26
10.39
5.79
0.65
-4.83
-10.38
-15.84
-21.16
-26.44
-31.77
-37.09
-42.06
-46.08
-48.47
-48.69
-46.52
-42.09
-35.87
-28.52
-20.66
-12.86
-5.47
1.26
7.19
12.26
16.49
20.04
23.21
26.38
29.78
33.50
37.36
41.04
44.26
46.93
49.17
51.21
53.26
55.29
57.06
58.14
58.05
56.32
52.66
47.01
39.60
30.90
21.55
12.09
2.80
-6.52
-16.55
-28.35
-42.96
-61.06
-82.55
-106.43
-130.85
-153.51
-172.15
-185.13
-191.73
-192.25
-187.82
-180.05
-170.48
-160.19
-149.63
-138.82
-127.68
-116.40
-105.53
-95.81
-87.81
-81.66
-77.00
-73.03
-68.72
-62.91
-54.62
-43.14
-28.32
-10.71
8.61
28.24
46.94
63.90
78.85
91.83
102.88
111.97
119.05
124.10
126.99
127.34
124.44
117.43
105.94
90.54
72.86
55.14
39.38
26.69
17.01
9.47
2.84
-3.89
-11.37
-19.90
-29.48
-39.77
-49.99
-58.92
-65.12
-67.35
-65.03
-58.35
-48.24
-35.97
-22.80
-9.73
2.65
13.98
24.04
32.67
39.66
44.86
48.14
49.57
49.33
47.69
44.95
41.31
36.99
32.12
26.91
21.64
16.64
12.39
9.44
8.33
9.55
13.24
18.98
25.72
31.95
36.22
37.61
36.21
33.12
29.95
28.30
29.04
32.12
36.66
41.48
45.64
48.79
51.31
53.78
56.71
60.04
63.20
65.27
65.46
63.27
58.49
51.24
42.20
33.23
27.47
28.60
39.15
58.63
82.78
104.51
116.64
114.79
98.95
72.84
41.65
9.50
-21.85
-52.43
-82.65
-111.99
-138.96
-162.05
-180.87
-196.56
-211.14
-226.41
-242.92
-259.68
-274.36
-284.32
-287.59
-283.64
-273.78
-260.77
-247.88
-237.51
-230.05
-223.49
-214.20
-198.39
-173.73
-140.46
-101.18
-59.91
-20.78
13.10
40.16
60.43
75.31
87.17
98.61
111.76
127.38
144.62
161.23
174.41
181.82
182.34
176.37
165.49
152.07
138.82
128.36
122.90
123.78
131.13
143.67
158.93
173.80
185.36
191.51
191.42
185.65
175.75
163.74
151.56
140.55
131.24
123.41
116.35
109.31
101.78
93.62
85.02
76.34
67.90
59.91
52.42
45.35
38.48
31.56
24.33
16.66
8.61
0.42
-7.60
-15.14
-22.00
-28.07
-33.33
-37.77
-41.38
-44.22
-46.43
-48.19
-49.66
-50.96
-52.17
-53.37
-54.63
-56.07
-57.73
-59.53
-61.19
-62.38
-62.74
-62.04
-60.15
-57.01
-52.65
-47.17
-40.85
-34.18
-27.74
-22.13
-17.74
-14.75
-13.10
-12.55
-12.73
-13.24
-13.64
-13.59
-12.83
-11.33
-9.27
-6.97
-4.80
-3.02
-1.76
-1.06
-0.89
-1.23
-2.02
-3.16
-4.57
-6.13
-7.76
-9.44
-11.13
-12.86
-14.65
-16.62
-18.89
-21.56
-24.56
-27.53
-29.85
-30.81
-29.89
-26.96
-22.41
-16.91
-11.24
-6.07
-1.83
1.24
3.14
4.00
4.18
4.13
4.31
5.03
6.27
7.78
9.14
10.06
10.40
10.33
10.15
10.15
10.50
11.10
11.72
12.00
11.59
10.26
8.02
5.10
1.84
-1.39
-4.33
-6.86
-9.06
-11.14
-13.32
-15.76
-18.47
-21.26
-23.72
-25.38
-25.79
-24.67
-21.97
-17.91
-12.98
-7.73
-2.72
1.63
5.06
7.55
9.19
10.16
10.64
10.75
10.62
10.38
10.17
10.08
10.20
10.52
11.04
11.73
12.54
13.40
14.17
14.67
14.68
14.00
12.54
10.33
7.53
4.42
1.39
-1.18
-2.97
-3.90
-4.18
-4.31
-4.91
-6.48
-9.18
-12.77
-16.68
-20.14
-22.43
-23.05
-21.84
-19.06
-15.21
-10.94
-6.77
-2.96
0.45
3.52
6.25
8.51
10.12
10.96
11.16
11.00
10.86
10.99
11.47
12.20
13.02
13.78
14.35
14.64
14.61
14.29
13.77
13.17
12.53
11.82
10.91
9.75
8.40
7.02
5.76
4.67
3.63
2.45
1.01
-0.70
-2.55
-4.41
-6.21
-8.00
-9.88
-11.83
-13.65
-14.98
-15.38
-14.55
-12.46
-9.37
-5.71
-1.95
1.62
4.84
7.69
10.07
11.82
12.77
12.85
12.27
11.42
10.77
10.64
11.08
11.86
12.65
13.19
13.36
13.14
12.60
11.79
10.77
9.57
8.19
6.61
4.76
2.58
0.09
-2.57
-5.15
-7.34
-8.98
-10.08
-10.89
-11.76
-13.00
-14.76
-16.94
-19.21
-21.11
-22.26
-22.36
-21.41
-19.53
-16.97
-14.01
-10.98
-8.23
-6.16
-5.15
-5.44
-7.05
-9.68
-12.82
-15.89
-18.41
-20.24
-21.55
-22.73
-24.22
-26.34
-29.16
-32.56
-36.30
-40.20
-44.22
-48.34
-52.55
-56.66
-60.31
-63.04
-64.44
-64.20
-62.11
-58.07
-52.10
-44.35
-35.13
-24.84
-13.89
-2.56
9.02
20.76
32.45
43.71
53.98
62.69
69.42
74.03
76.64
77.49
76.86
75.04
72.26
68.78
64.82
60.55
56.17
51.86
47.79
44.15
41.01
38.28
35.76
33.18
30.39
27.38
24.29
21.27
18.33
15.30
11.93
8.08
3.87
-0.32
-3.96
-6.68
-8.43
-9.52
-10.57
-12.18
-14.74
-18.27
-22.36
-26.43
-29.82
-32.07
-32.95
-32.45
-30.74
-28.13
-25.08
-22.19
-20.12
-19.45
-20.48
-23.15
-26.98
-31.26
-35.29
-38.64
-41.30
-43.59
-46.04
-49.16
-53.21
-58.10
-63.31
-68.08
-71.61
-73.47
-73.74
-73.15
-72.97
-74.59
-78.97
-85.89
-93.39
-97.62
-93.55
-76.46
-43.72
3.65
60.81
120.23
174.06
216.46
244.97
260.51
266.03
264.84
259.36
250.75
239.27
224.69
206.63
184.46
157.45
125.28
88.88
50.92
15.55
-12.83
-31.18
-38.86
-37.72
-31.12
-22.50
-14.36
-7.95
-3.74
-1.93
-2.67
-5.77
-10.46
-15.25
-18.65
-19.74
-18.80
-17.22
-16.79
-18.91
-23.78
-30.47
-37.21
-42.34
-44.98
-45.25
-44.18
-43.16
-43.37
-45.46
-49.47
-55.06
-61.87
-69.76
-78.90
-89.74
-102.72
-117.91
-134.59
-151.12
-165.11
-173.78
-174.65
-166.03
-147.55
-120.24
-86.39
-49.15
-11.90
22.39
51.65
74.95
92.37
104.62
112.60
117.08
118.57
117.41
113.92
108.50
101.54
93.36
84.08
73.87
63.00
52.10
42.19
34.46
29.99
29.30
32.23
38.04
45.72
54.36
63.28
72.04
80.16
87.04
91.89
93.94
92.50
87.03
77.14
62.78
44.53
23.88
3.13
-15.09
-28.64
-36.72
-40.05
-40.40
-39.70
-39.20
-39.17
-39.23
-39.07
-38.95
-39.87
-43.10
-49.57
-59.48
-72.16
-86.35
-100.51
-113.16
-123.06
-129.29
-131.29
-129.01
-122.98
-114.21
-104.08
-93.98
-85.14
-78.29
-73.61
-70.73
-68.82
-66.82
-63.70
-58.77
-51.81
-43.09
-33.29
-23.15
-13.22
-3.68
5.52
14.50
23.17
31.21
38.07
43.02
45.41
44.85
41.40
35.66
28.63
21.37
14.94
10.05
6.90
5.31
5.02
5.96
8.13
11.61
16.22
21.88
28.48
35.51
42.00
46.93
49.49
49.31
47.03
43.86
42.22
44.56
51.80
62.34
72.81
79.08
77.06
64.61
41.20
9.27
-27.02
-64.12
-100.24
-134.88
-168.18
-200.66
-231.04
-256.95
-272.96
-272.29
-249.81
-204.13
-137.30
-54.25
37.62
133.22
216.65
271.05
290.33
281.48
256.74
226.61
202.00
181.75
163.98
146.77
130.32
116.08
104.73
93.51
80.72
65.48
46.89
25.60
2.14
-21.63
-43.15
-60.65
-73.90
-83.38
-90.06
-95.44
-99.73
-102.90
-103.92
-101.50
-95.27
-86.20
-75.72
-65.18
-55.61
-46.74
-37.88
-27.98
-16.23
-2.65
11.87
26.17
39.08
49.64
57.63
63.47
68.17
73.13
79.53
87.76
97.29
106.64
113.95
117.70
117.33
113.26
106.69
99.11
91.54
84.37
77.32
69.74
61.00
50.81
39.40
27.56
16.55
7.54
1.25
-2.53
-4.77
-6.90
-10.21
-15.41
-22.30
-29.95
-37.34
-43.84
-49.40
-54.28
-58.74
-62.74
-66.13
-68.53
-69.65
-69.91
-70.58
-73.49
-80.18
-91.32
-106.37
-123.82
-141.07
-155.21
-164.48
-169.14
-171.08
-172.62
-175.68
-181.23
-189.78
-200.14
-209.63
-214.84
-212.84
-201.73
-181.28
-153.44
-122.29
-93.42
-70.20
-52.41
-36.61
-18.24
7.09
42.11
87.05
143.17
200.88
245.19
266.72
268.37
259.60
248.57
237.23
222.65
201.10
171.54
140.10
114.11
99.70
97.38
101.78
104.17
97.24
78.45
49.88
17.29
-13.53
-37.07
-51.90
-55.22
-47.63
-33.23
-17.87
-6.40
-0.11
2.49
4.14
6.56
8.34
8.74
7.37
4.70
1.77
-0.12
-0.31
0.94
1.86
2.43
1.45
-1.87
-7.09
-12.81
-17.35
-19.60
-19.27
-17.22
-14.74
-13.46
-14.37
-17.35
-21.41
-25.27
-28.04
-29.45
-29.79
-29.60
-29.47
-29.57
-29.51
-28.64
-26.47
-22.99
-18.71
-14.33
-10.40
-7.31
-5.05
-3.45
-2.25
-1.33
-0.65
-0.16
0.25
0.77
1.51
2.51
3.64
4.73
5.57
6.00
5.87
5.05
3.40
0.85
-2.47
-6.20
-9.78
-12.55
-13.97
-13.77
-12.03
-9.15
-5.82
-2.85
-0.97
-0.68
-2.16
-5.23
-9.49
-14.50
-19.85
-25.22
-30.37
-35.04
-39.03
-42.22
-44.71
-46.77
-48.74
-50.88
-53.28
-55.89
-58.59
-61.32
-64.07
-66.83
-69.51
-71.91
-73.84
-75.17
-75.86
-75.83
-75.02
-73.23
-70.28
-66.02
-60.33
-53.09
-44.06
-32.82
-18.92
-2.07
17.66
39.59
62.64
85.45
106.77
125.77
142.05
155.63
166.80
175.94
183.39
189.39
194.03
197.27
198.96
198.94
197.07
193.37
188.05
181.43
173.89
165.61
156.47
146.05
133.81
119.39
102.87
84.78
65.93
46.99
28.29
9.72
-8.92
-27.66
-46.04
-63.39
-79.08
-92.83
-104.80
-115.27
-124.36
-131.82
-137.10
-139.74
-139.56
-136.85
-132.15
-126.06
-119.00
-111.19
-102.78
-93.97
-85.05
-76.32
-68.00
-60.16
-52.80
-45.86
-39.32
-33.05
-26.90
-20.61
-13.94
-6.76
0.82
8.42
15.59
21.99
27.63
32.78
37.86
43.16
48.64
53.97
58.49
61.48
62.34
60.73
56.58
50.04
41.39
30.96
19.07
5.83
-8.82
-24.97
-42.70
-62.04
-82.82
-104.35
-124.88
-141.72
-152.15
-154.32
-148.06
-135.05
-118.27
-101.04
-85.86
-73.70
-64.33
-57.58
-53.59
-52.69
-54.73
-58.64
-62.58
-64.58
-62.68
-55.66
-43.58
-27.04
-6.82
16.53
42.58
70.58
96.13
114.31
123.26
124.42
120.42
112.69
101.61
87.42
71.16
54.70
40.48
31.37
25.92
21.50
15.33
5.93
-6.32
-19.51
-31.20
-39.20
-42.62
-42.65
-41.31
-41.42
-44.69
-51.08
-58.70
-64.43
-64.81
-57.57
-42.88
-22.89
-0.98
19.79
37.77
52.86
65.97
78.20
90.00
100.67
109.13
114.25
115.58
113.33
108.12
100.50
90.84
79.42
66.61
53.30
40.79
30.60
23.87
20.89
20.96
22.62
24.22
24.39
22.54
18.89
14.36
10.10
7.18
6.23
7.26
9.70
12.61
14.96
15.98
15.39
13.44
10.74
8.08
6.05
4.93
4.66
4.97
5.50
5.96
6.18
6.16
6.02
5.94
6.10
6.64
7.58
8.84
10.28
11.69
12.78
13.17
12.48
10.51
7.32
3.46
-0.31
-3.18
-4.64
-4.56
-3.13
-0.63
2.73
6.84
11.58
16.74
21.94
26.81
31.14
34.97
38.61
42.53
47.13
52.65
59.05
65.97
72.75
78.53
82.24
82.82
79.38
71.45
59.06
42.80
23.83
3.71
-15.83
-33.13
-46.99
-56.89
-63.23
-67.06
-69.79
-72.56
-75.87
-79.48
-82.67
-84.76
-85.44
-84.82
-83.33
-81.37
-79.19
-76.84
-74.26
-71.32
-67.86
-63.76
-58.90
-53.36
-47.32
-41.10
-35.08
-29.54
-24.69
-20.66
-17.55
-15.43
-14.26
-13.86
-13.91
-14.11
-14.35
-14.76
-15.62
-17.19
-19.48
-22.25
-24.97
-27.11
-28.20
-28.12
-27.12
-25.70
-24.51
-24.03
-24.41
-25.49
-26.89
-28.22
-29.19
-29.75
-29.95
-29.79
-29.18
-27.90
-25.75
-22.68
-18.77
-14.26
-9.29
-3.92
1.95
8.41
15.33
22.28
28.54
33.33
36.12
36.80
35.73
33.49
30.77
28.10
25.85
24.32
23.65
23.79
24.45
25.14
25.35
24.74
23.36
21.54
19.70
18.11
16.79
15.57
14.30
12.99
11.82
11.01
10.64
10.57
10.51
10.18
9.49
8.49
7.36
6.18
4.85
3.25
1.35
-0.55
-1.87
-1.93
-0.42
2.49
6.13
9.69
12.54
14.49
15.72
16.51
16.99
17.10
16.73
15.89
14.80
13.84
13.32
13.25
13.42
13.39
12.77
11.37
9.24
6.67
4.10
1.89
0.23
-0.93
-1.81
-2.74
-3.92
-5.36
-6.89
-8.22
-9.15
-9.71
-10.17
-10.89
-12.14
-13.96
-16.09
-18.10
-19.60
-20.32
-20.14
-19.05
-17.01
-14.01
-10.19
-5.90
-1.67
1.93
4.62
6.53
8.08
9.63
11.20
12.51
13.19
13.08
12.34
11.48
11.01
11.23
12.05
13.07
13.80
13.89
13.19
11.47
8.64
4.74
-0.01
-5.25
-10.61
-15.70
-20.17
-23.82
-27.07
-30.34
-33.76
-37.16
-40.43
-43.56
-46.66
-49.83
-53.05
-57.01
-61.75
-66.21
-68.54
-67.29
-62.19
-54.14
-44.84
-36.08
-30.55
-29.41
-31.72
-35.08
-37.64
-38.98
-39.71
-40.75
-42.75
-47.70
-56.50
-68.23
-80.38
-90.71
-97.92
-101.31
-100.55
-84.64
-50.50
-5.66
36.08
64.81
77.80
77.26
67.32
52.40
36.44
20.80
6.61
-6.53
-15.31
-16.71
-9.58
5.37
25.68
47.47
64.97
73.84
72.68
64.24
55.06
51.98
58.57
73.25
90.45
102.80
107.36
104.39
97.52
90.85
86.16
82.49
77.24
68.00
53.57
34.83
14.14
-6.27
-23.82
-37.20
-46.24
-51.03
-51.56
-47.94
-40.91
-32.33
-24.48
-19.32
-17.81
-19.16
-20.96
-20.48
-16.17
-8.55
0.07
7.25
11.93
14.92
18.27
24.09
33.12
44.37
55.80
65.66
73.61
80.77
88.52
97.21
105.51
110.91
111.02
104.88
93.48
79.21
64.72
51.85
41.19
32.49
25.26
19.31
14.56
10.67
6.83
1.84
-5.27
-14.70
-25.71
-37.02
-47.35
-55.91
-62.50
-67.19
-70.01
-70.73
-69.06
-64.96
-58.96
-52.32
-46.74
-44.00
-45.23
-50.55
-58.82
-68.01
-75.73
-80.11
-80.36
-76.96
-71.27
-64.74
-58.30
-52.00
-45.41
-38.14
-30.35
-22.89
-16.97
-13.53
-12.73
-13.90
-15.76
-17.11
-17.26
-16.23
-14.51
-12.53
-10.40
-7.77
-4.21
0.45
5.88
11.21
15.39
17.53
17.23
14.52
9.84
3.75
-3.09
-9.99
-16.26
-21.31
-24.79
-26.62
-26.95
-26.00
-23.95
-20.94
-17.12
-12.64
-7.66
-2.41
2.92
8.02
12.46
15.83
17.84
18.49
18.14
17.35
16.62
16.20
16.00
15.76
15.23
14.28
12.99
11.45
9.74
7.84
5.73
3.51
1.39
-0.38
-1.52
-1.93
-1.62
-0.78
0.30
1.25
1.65
1.21
-0.22
-2.50
-5.36
-8.38
-11.18
-13.47
-15.06
-15.73
-15.22
-13.26
-9.63
-4.38
2.10
9.14
16.04
22.26
27.54
31.84
35.24
37.74
39.29
39.87
39.59
38.72
37.66
36.77
36.24
36.04
36.01
35.85
35.22
33.78
31.20
27.29
22.08
15.86
9.24
2.93
-2.41
-6.40
-8.99
-10.47
-11.25
-11.70
-12.08
-12.46
-12.79
-12.89
-12.45
-11.03
-8.18
-3.56
2.84
10.51
18.60
26.22
32.84
38.55
43.89
49.42
55.27
60.97
65.61
68.35
68.91
67.86
66.45
66.28
68.82
74.84
84.02
94.79
104.69
110.96
111.59
106.03
95.31
81.61
67.21
53.57
40.90
28.40
15.03
0.18
-15.90
-32.34
-48.25
-63.39
-78.30
-93.88
-110.57
-127.71
-143.54
-155.96
-163.68
-166.97
-167.45
-167.26
-167.88
-169.53
-171.43
-172.48
-171.83
-168.92
-162.98
-152.72
-136.51
-113.19
-82.99
-47.94
-11.41
22.91
51.99
74.21
89.44
98.72
103.67
105.77
105.89
103.96
99.25
90.77
77.90
60.87
40.70
18.94
-2.71
-22.87
-40.46
-54.79
-65.48
-72.46
-76.11
-77.10
-76.13
-73.51
-69.00
-61.87
-51.31
-37.05
-19.65
-0.54
18.43
35.54
49.81
61.02
69.67
76.57
82.50
87.92
92.98
97.54
101.28
103.83
104.75
103.72
100.50
95.03
87.58
78.70
69.28
60.33
52.73
46.88
42.47
38.50
33.58
26.48
16.56
4.05
-10.07
-24.49
-37.86
-49.17
-57.76
-63.36
-65.95
-65.82
-63.57
-59.97
-55.95
-52.30
-49.50
-47.59
-46.23
-44.81
-42.74
-39.59
-35.29
-30.06
-24.34
-18.62
-13.17
-8.05
-3.00
2.31
8.16
14.56
21.07
27.00
31.50
33.93
33.98
31.82
27.93
23.00
17.68
12.49
7.69
3.27
-1.06
-5.76
-11.20
-17.47
-24.16
-30.42
-35.15
-37.36
-36.59
-33.02
-27.59
-21.64
-16.61
-13.46
-12.50
-13.24
-14.70
-15.89
-16.22
-15.74
-14.91
-14.15
-13.46
-12.42
-10.51
-7.61
-4.30
-1.77
-1.27
-3.46
-8.22
-14.66
-21.62
-28.22
-34.01
-39.03
-43.47
-47.45
-51.00
-54.12
-56.92
-59.58
-62.21
-64.59
-66.19
-66.18
-63.84
-58.85
-51.54
-42.74
-33.55
-24.87
-17.06
-9.95
-2.87
5.07
14.72
26.61
40.75
56.63
73.40
90.28
106.86
123.17
139.38
155.37
170.29
182.48
189.91
190.84
184.51
171.33
152.75
130.65
106.84
82.76
59.43
37.50
17.42
-0.69
-16.99
-31.89
-45.83
-58.93
-70.69
-80.04
-85.60
-86.35
-82.01
-73.36
-61.99
-49.75
-38.16
-27.94
-19.02
-10.82
-2.82
5.18
13.02
20.51
27.77
35.47
44.55
55.70
68.94
83.42
97.62
109.96
119.27
125.01
127.25
126.30
122.45
116.03
107.41
97.25
86.49
76.23
67.35
60.12
54.08
48.00
40.55
30.94
19.50
7.85
-1.63
-6.69
-6.19
-0.55
8.42
18.23
26.67
32.36
35.13
35.70
35.27
35.00
35.71
37.71
40.80
44.53
48.27
51.61
54.42
56.97
59.75
63.29
67.80
73.18
79.13
85.34
91.78
98.57
105.71
112.81
119.07
123.59
125.91
126.42
126.17
126.22
126.73
126.39
122.68
112.80
94.85
68.66
35.80
-1.08
-39.30
-76.96
-113.13
-147.65
-180.77
-212.84
-244.59
-277.51
-313.86
-355.72
-403.34
-453.46
-499.13
-531.17
-541.19
-524.47
-481.65
-418.14
-342.05
-261.69
-183.91
-113.66
-54.13
-7.15
26.99
49.68
63.86
73.21
80.93
88.81
97.09
105.09
111.84
116.68
119.46
120.57
120.83
121.38
123.19
126.44
129.92
130.98
126.35
113.65
92.63
65.57
36.19
7.95
-17.58
-40.93
-64.00
-88.47
-114.59
-140.87
-164.71
-183.50
-195.41
-199.49
-195.20
-182.77
-163.65
-141.01
-119.31
-103.14
-96.09
-99.53
-112.46
-131.18
-150.62
-165.23
-169.74
-159.75
-132.58
-88.49
-31.40
31.94
94.70
150.89
196.09
227.18
242.47
241.90
227.09
201.05
167.53
131.59
99.68
77.31
65.42
59.90
55.41
49.19
41.82
31.78
23.36
20.75
25.35
34.57
42.68
43.01
32.12
8.03
-29.12
-74.34
-120.02
-158.31
-183.40
-191.92
-182.76
-157.15
-111.53
-53.21
3.56
45.86
70.27
82.16
89.63
97.33
104.40
106.05
96.41
74.55
45.13
15.89
-6.36
-17.96
-19.67
-15.85
-12.15
-14.89
-27.25
-47.75
-70.81
-89.12
-95.71
-87.39
-65.59
-35.28
-2.77
28.32
58.35
90.30
121.88
149.60
168.48
174.14
165.19
144.03
116.40
89.05
66.73
50.63
39.44
30.42
21.29
11.31
1.04
-8.38
-16.12
-22.42
-28.68
-36.16
-45.48
-55.71
-64.40
-68.60
-66.44
-58.31
-46.97
-36.28
-29.12
-26.50
-27.52
-30.52
-34.30
-38.53
-43.26
-47.91
-50.78
-49.31
-41.47
-26.75
-6.60
16.28
38.89
58.78
74.36
84.66
89.26
87.99
81.17
69.82
55.74
41.11
27.82
16.87
7.94
-0.50
-10.63
-24.40
-42.78
-65.31
-90.23
-115.26
-138.17
-157.24
-171.18
-178.93
-179.55
-172.34
-157.14
-134.31
-104.56
-68.58
-27.12
18.67
66.55
113.01
153.74
184.86
204.10
211.53
209.28
200.39
187.75
173.20
157.42
140.19
121.02
99.65
76.42
52.54
29.87
10.56
-3.65
-11.96
-14.83
-13.65
-10.11
-5.57
-0.60
5.02
12.08
21.45
33.58
47.93
62.61
74.40
79.34
73.91
56.69
29.61
-1.96
-30.57
-49.24
-54.16
-46.04
-29.62
-11.47
2.67
9.74
9.59
3.85
-5.58
-17.44
-31.03
-45.52
-59.32
-70.34
-76.92
-78.72
-77.05
-74.14
-71.99
-71.30
-71.13
-69.49
-64.43
-55.12
-42.27
-27.71
-13.46
-0.86
9.72
18.85
27.58
36.90
47.21
58.36
69.73
80.63
90.53
98.88
105.19
109.25
111.08
110.74
108.38
104.26
98.96
93.46
88.22
83.23
78.59
74.53
71.06
68.05
65.06
61.63
57.67
52.53
45.55
37.56
30.59
26.72
27.19
31.57
37.91
43.75
45.37
38.80
22.18
-4.56
-40.48
-83.37
-129.83
-177.07
-214.30
-231.13
-226.36
-206.50
-180.17
-154.55
-129.85
-104.81
-79.07
-53.27
-29.86
-13.84
-6.43
-5.00
-4.72
-4.08
-2.19
0.37
2.11
4.65
5.77
5.65
6.71
9.12
13.65
19.95
26.68
32.58
36.54
37.52
36.30
34.22
32.22
30.96
30.66
31.13
32.05
32.69
31.52
27.98
22.12
14.60
6.72
-0.13
-4.96
-7.42
-7.89
-7.84
-8.84
-12.70
-20.99
-34.43
-52.45
-73.24
-94.31
-113.36
-129.07
-140.80
-148.47
-152.00
-150.87
-144.44
-132.60
-116.23
-97.17
-77.66
-59.21
-42.32
-26.68
-11.65
3.18
17.79
31.86
45.07
57.23
68.83
80.26
91.40
101.64
110.13
116.13
119.26
119.41
116.71
112.42
108.22
105.84
106.68
111.27
119.16
128.78
137.68
143.01
143.32
138.04
127.77
114.34
100.52
89.67
84.74
86.77
87.57
79.47
57.59
22.62
-20.12
-64.06
-103.19
-133.52
-154.18
-167.03
-174.18
-177.43
-177.63
-174.81
-169.52
-163.02
-157.03
-153.52
-153.53
-155.62
-157.10
-156.97
-152.47
-143.03
-129.58
-113.56
-96.87
-81.36
-67.88
-56.54
-46.77
-37.43
-27.88
-17.99
-7.72
2.33
11.48
19.58
26.69
32.79
37.74
41.04
39.38
32.10
20.39
6.98
-4.69
-11.72
-12.53
-7.06
3.25
16.29
30.46
44.52
57.88
70.63
83.22
96.04
109.07
121.51
131.95
139.40
143.40
144.46
143.99
143.65
144.57
146.59
148.28
147.42
142.34
132.37
118.02
100.53
81.02
60.03
37.69
14.26
-9.56
-32.69
-54.48
-75.20
-95.90
-117.42
-139.54
-160.69
-178.57
-191.50
-199.19
-202.69
-203.35
-201.46
-195.68
-183.30
-161.63
-129.33
-87.27
-38.47
12.79
62.08
105.89
142.00
169.60
188.72
199.83
203.40
199.85
189.60
173.25
151.81
126.54
98.93
70.42
42.16
14.79
-11.49
-36.70
-60.48
-81.75
-98.66
-109.34
-112.83
-109.77
-102.47
-94.13
-87.62
-84.53
-84.72
-86.73
-88.48
-88.08
-84.36
-77.07
-66.85
-55.06
-43.57
-34.28
-28.62
-26.99
-28.45
-30.78
-30.93
-26.08
-14.47
3.88
27.27
52.99
78.35
101.53
121.83
139.47
154.93
168.41
179.68
188.34
194.21
197.48
198.50
197.25
192.98
184.30
169.81
148.85
122.00
91.07
58.62
27.21
-1.32
-25.98
-46.65
-63.60
-77.24
-87.84
-95.58
-100.69
-103.45
-104.36
-103.93
-102.69
-100.98
-98.93
-96.49
-93.47
-89.70
-85.12
-79.87
-74.27
-68.73
-63.62
-59.15
-55.36
-52.08
-49.01
-45.92
-42.68
-39.33
-36.13
-33.44
-31.58
-30.78
-31.01
-31.93
-32.95
-33.38
-32.54
-29.95
-25.37
-18.75
-10.17
0.25
12.37
25.94
40.46
55.09
68.73
80.28
88.95
94.50
97.32
98.15
97.69
96.27
93.82
89.99
84.54
77.61
69.78
61.92
54.88
49.14
44.73
41.22
37.84
33.84
28.72
22.31
14.91
7.02
-0.84
-8.24
-14.99
-21.15
-26.88
-32.29
-37.38
-42.07
-46.35
-50.38
-54.31
-58.22
-61.98
-65.12
-66.93
-66.91
-64.91
-61.39
-57.14
-52.58
-47.78
-42.71
-37.46
-32.46
-28.69
-27.23
-28.99
-34.26
-41.81
-49.51
-55.23
-56.97
-53.27
-43.33
-27.02
-5.20
20.42
48.52
77.70
106.02
131.67
153.08
169.20
179.54
183.86
182.04
175.31
165.10
151.84
135.62
116.31
93.95
71.29
53.61
39.33
26.11
15.57
8.01
3.17
0.44
-0.97
-1.91
-3.65
-7.79
-14.62
-23.81
-35.19
-48.21
-62.31
-77.05
-92.30
-108.19
-124.72
-140.40
-152.94
-160.49
-161.90
-157.08
-146.98
-133.19
-117.52
-101.68
-86.58
-72.85
-61.35
-52.69
-46.92
-43.22
-40.00
-35.39
-27.91
-16.62
-1.59
16.02
34.45
51.75
66.18
76.48
81.94
82.45
78.57
71.26
61.46
50.01
37.44
24.15
10.41
-3.49
-17.32
-30.96
-44.36
-57.31
-69.15
-78.68
-84.52
-85.80
-82.80
-77.02
-70.79
-66.18
-64.12
-64.22
-65.31
-66.37
-67.15
-68.08
-69.70
-72.06
-74.50
-75.93
-75.39
-72.59
-67.89
-62.07
-55.63
-48.58
-40.63
-31.49
-21.37
-11.12
-2.09
4.33
7.33
7.38
5.86
4.19
3.03
1.95
-0.29
-5.12
-13.41
-25.06
-38.22
-50.58
-60.64
-68.21
-74.03
-78.84
-82.90
-85.73
-86.69
-83.87
-75.89
-62.83
-46.13
-27.57
-8.08
12.33
34.17
57.41
83.12
111.68
142.16
172.44
200.39
224.80
245.27
261.87
265.40
249.50
215.33
172.41
131.92
100.41
78.80
64.36
54.87
45.91
36.62
28.04
21.54
17.70
16.36
17.11
18.40
18.97
17.06
12.53
5.78
-2.79
-13.01
-24.49
-36.28
-47.17
-56.13
-63.08
-67.71
-70.06
-70.70
-70.61
-70.66
-71.20
-72.11
-72.70
-72.06
-68.52
-60.59
-47.89
-31.68
-14.50
0.98
13.24
22.82
31.96
43.53
59.05
77.39
94.94
107.11
110.49
104.29
90.42
72.30
53.29
35.62
20.08
6.57
-5.21
-15.19
-23.00
-28.26
-31.14
-32.49
-33.48
-34.86
-36.01
-34.86
-28.56
-15.16
4.87
28.04
48.87
62.03
64.67
57.51
44.24
29.61
17.16
8.19
1.85
-3.64
-9.74
-16.84
-24.39
-31.46
-37.32
-41.65
-44.51
-46.16
-46.86
-46.80
-46.15
-45.12
-43.91
-42.65
-41.16
-38.89
-34.92
-28.20
-18.14
-5.01
9.69
23.49
33.67
38.28
37.01
31.45
24.51
19.17
17.21
18.38
20.73
21.51
18.56
11.18
0.30
-12.03
-23.58
-32.55
-37.94
-39.49
-37.50
-32.64
-26.02
-19.02
-13.07
-9.31
-8.13
-9.07
-10.94
-12.10
-11.04
-6.87
0.15
8.50
15.74
19.39
18.02
12.13
4.20
-2.22
-4.09
-0.27
7.93
17.31
24.26
26.22
22.52
14.32
3.86
-6.56
-15.30
-21.64
-25.68
-27.87
-28.68
-28.35
-26.91
-24.32
-20.66
-16.13
-10.98
-5.30
1.06
8.31
16.55
25.53
34.64
43.14
50.30
55.55
58.43
58.64
56.16
51.42
45.44
39.56
35.01
32.34
31.11
29.99
27.45
22.37
14.63
5.07
-4.89
-13.86
-21.00
-26.21
-30.05
-33.42
-37.16
-41.83
-47.64
-54.45
-61.83
-69.21
-75.84
-80.91
-83.59
-83.22
-79.45
-72.45
-62.96
-52.28
-42.05
-33.89
-28.93
-27.49
-28.77
-31.14
-32.51
-31.04
-25.70
-16.56
-4.73
8.00
19.67
28.69
34.16
36.09
35.27
33.08
31.06
30.52
32.11
35.69
40.38
44.84
47.88
48.87
48.10
46.58
45.57
45.83
47.17
48.45
48.02
44.54
37.60
28.00
17.55
8.52
3.03
2.46
7.14
16.13
27.41
38.23
45.85
48.25
44.71
35.98
23.89
10.83
-1.02
-10.09
-15.65
-17.72
-16.91
-14.20
-10.70
-7.53
-5.56
-5.31
-6.85
-9.77
-13.37
-16.81
-19.42
-20.93
-21.55
-21.80
-22.22
-23.10
-24.28
-25.28
-25.49
-24.49
-22.24
-18.98
-15.07
-10.74
-5.99
-0.80
4.74
10.23
14.97
18.22
19.40
18.36
15.41
11.15
6.37
1.72
-2.35
-5.67
-8.34
-10.65
-12.93
-15.37
-17.94
-20.29
-21.89
-22.24
-21.12
-18.69
-15.53
-12.51
-10.48
-10.09
-11.53
-14.48
-18.09
-21.17
-22.53
-21.36
-17.55
-11.81
-5.35
0.66
5.48
9.08
11.94
14.57
17.16
19.48
21.06
21.57
21.01
19.69
17.99
16.07
13.89
11.33
8.41
5.45
2.94
1.30
0.68
0.83
1.19
1.07
-0.06
-2.33
-5.32
-8.25
-10.31
-11.24
-11.61
-12.67
-15.77
-21.56
-29.44
-37.58
-43.53
-45.09
-41.16
-31.98
-18.98
-4.20
10.28
22.65
31.59
36.32
36.63
32.93
26.23
17.97
9.72
2.83
-1.85
-3.99
-3.73
-1.47
2.36
7.39
13.38
20.14
27.49
35.19
42.81
49.70
54.88
57.36
56.50
52.45
46.42
40.39
36.33
35.28
36.70
38.74
39.05
35.92
28.95
19.09
8.06
-2.44
-11.26
-17.90
-22.40
-25.19
-26.95
-28.55
-30.85
-34.51
-39.74
-46.25
-53.50
-60.98
-68.34
-75.34
-81.59
-86.21
-87.81
-84.86
-76.31
-62.33
-44.54
-25.88
-9.56
2.03
8.27
10.42
10.89
11.92
14.49
17.97
20.58
20.56
16.92
9.89
0.69
-8.94
-17.05
-21.51
-20.22
-11.61
4.66
26.89
51.30
72.84
86.74
90.19
83.25
68.62
50.41
32.54
17.56
6.29
-1.75
-7.60
-12.21
-16.14
-19.64
-22.89
-26.00
-28.99
-31.66
-33.57
-34.17
-33.03
-30.11
-25.89
-21.28
-17.46
-15.52
-16.15
-19.39
-24.62
-30.73
-36.48
-40.89
-43.43
-44.02
-42.75
-39.64
-34.49
-27.07
-17.49
-6.46
4.73
14.60
22.00
26.55
28.63
29.16
29.02
28.82
28.74
28.73
28.70
28.65
28.67
28.77
28.80
28.48
27.51
25.69
22.99
19.54
15.56
11.32
7.09
3.07
-0.62
-4.08
-7.53
-11.29
-15.52
-20.09
-24.55
-28.22
-30.42
-30.75
-29.14
-25.82
-21.15
-15.48
-9.25
-2.91
3.01
7.98
11.67
14.05
15.37
15.95
16.01
15.51
14.26
12.20
9.49
6.64
4.21
2.57
1.71
1.12
0.04
-2.20
-5.88
-10.77
-16.09
-20.91
-24.57
-26.98
-28.61
-30.22
-32.21
-34.27
-35.39
-34.19
-29.47
-20.32
-5.95
14.56
42.17
77.20
118.48
162.84
205.52
241.46
266.94
280.63
283.55
278.10
266.78
251.45
233.40
213.89
194.56
177.33
163.71
154.00
146.76
139.07
127.32
108.49
81.34
47.03
8.93
-28.54
-61.39
-87.45
-106.89
-121.67
-134.41
-147.08
-160.36
-173.89
-186.82
-198.55
-208.75
-217.16
-223.21
-225.84
-223.87
-216.54
-204.04
-187.63
-169.37
-151.49
-135.73
-122.90
-112.66
-103.89
-95.18
-85.48
-74.44
-62.38
-49.92
-37.55
-25.40
-13.35
-1.23
10.91
22.69
33.52
42.69
49.48
53.33
53.82
50.85
44.62
35.65
24.66
12.29
-1.00
-14.95
-29.38
-43.96
-58.10
-71.06
-82.12
-90.87
-97.32
-101.79
-104.68
-106.10
-105.68
-102.72
-96.52
-86.73
-73.72
-58.48
-42.35
-26.55
-11.92
1.18
12.66
22.54
30.77
37.26
41.93
44.87
46.31
46.57
45.97
44.63
42.52
39.49
35.33
29.79
22.61
13.55
2.52
-10.23
-24.11
-38.12
-51.04
-61.61
-68.70
-71.44
-69.42
-62.80
-52.31
-39.21
-25.01
-11.12
1.49
12.38
21.53
29.04
34.97
39.31
42.06
43.40
43.68
43.27
42.45
41.20
39.30
36.59
33.05
29.07
25.31
22.47
21.06
21.16
22.47
24.47
26.68
28.88
31.16
33.73
36.69
39.92
43.03
45.72
47.83
49.54
51.18
53.00
54.98
56.75
57.78
57.60
56.06
53.33
49.83
45.96
41.95
37.81
33.40
28.66
23.72
18.93
14.74
11.49
9.32
8.01
7.11
6.20
5.03
3.67
2.41
1.64
1.56
2.15
3.11
4.06
4.64
4.65
4.12
3.16
1.92
0.46
-1.20
-3.09
-5.12
-7.09
-8.69
-9.57
-9.54
-8.59
-6.96
-5.01
-3.12
-1.52
-0.27
0.68
1.39
1.73
1.49
0.38
-1.67
-4.47
-7.53
-10.28
-12.25
-13.26
-13.44
-13.07
-12.46
-11.75
-10.92
-9.87
-8.51
-6.82
-4.90
-2.93
-1.10
0.36
1.31
1.69
1.56
1.11
0.52
-0.11
-0.74
-1.33
-1.72
-1.62
-0.61
1.68
5.38
10.34
16.06
22.01
27.69
32.82
37.35
41.31
44.67
47.35
49.22
50.26
50.68
50.88
51.34
52.47
54.43
57.05
59.89
62.45
64.26
65.06
64.85
63.82
62.25
60.39
58.34
56.03
53.26
49.79
45.52
40.49
34.84
28.76
22.27
15.37
7.99
0.18
-7.80
-15.55
-22.66
-28.81
-33.89
-37.90
-40.90
-42.94
-44.05
-44.40
-44.31
-44.18
-44.35
-44.96
-45.94
-47.04
-48.03
-48.73
-49.12
-49.20
-48.97
-48.43
-47.57
-46.49
-45.41
-44.59
-44.25
-44.43
-45.01
-45.72
-46.32
-46.69
-46.92
-47.27
-48.06
-49.49
-51.53
-53.90
-56.17
-57.99
-59.16
-59.75
-59.99
-60.10
-60.14
-60.03
-59.63
-58.77
-57.35
-55.23
-52.28
-48.26
-43.00
-36.45
-28.77
-20.36
-11.71
-3.28
4.62
11.83
18.27
23.95
28.87
33.10
36.77
40.08
43.26
46.54
50.02
53.79
57.85
62.20
66.78
71.45
76.00
80.15
83.61
86.12
87.53
87.75
86.80
84.78
81.85
78.12
73.63
68.28
61.88
54.25
45.29
35.13
24.07
12.54
1.01
-10.10
-20.42
-29.58
-37.17
-42.85
-46.39
-47.84
-47.51
-45.96
-43.76
-41.37
-38.96
-36.50
-33.89
-31.04
-28.06
-25.24
-22.87
-21.20
-20.22
-19.74
-19.31
-18.56
-17.17
-15.10
-12.56
-9.90
-7.54
-5.78
-4.76
-4.45
-4.71
-5.30
-5.96
-6.49
-6.77
-6.76
-6.52
-6.09
-5.55
-5.00
-4.59
-4.52
-4.94
-5.88
-7.24
-8.76
-10.16
-11.21
-11.78
-11.83
-11.28
-10.07
-8.17
-5.68
-2.87
-0.12
2.23
4.04
5.43
6.66
8.01
9.63
11.41
13.15
14.64
15.81
16.82
17.92
19.30
21.06
23.13
25.39
27.71
29.96
32.02
33.74
34.97
35.54
35.37
34.49
32.99
31.02
28.70
26.13
23.33
20.26
16.89
13.20
9.24
5.17
1.24
-2.31
-5.36
-7.99
-10.38
-12.66
-14.73
-16.30
-16.93
-16.34
-14.51
-11.86
-8.96
-6.46
-4.80
-4.20
-4.62
-5.91
-7.74
-9.76
-11.56
-12.74
-12.96
-12.12
-10.36
-8.13
-6.05
-4.76
-4.71
-6.09
-8.73
-12.25
-16.20
-20.22
-24.06
-27.52
-30.35
-32.21
-32.73
-31.66
-28.92
-24.68
-19.20
-12.78
-5.75
1.51
8.47
14.50
18.95
21.43
21.87
20.62
18.32
15.74
13.59
12.30
11.92
12.13
12.26
11.61
9.70
6.36
1.79
-3.61
-9.41
-15.38
-21.34
-27.16
-32.58
-37.21
-40.63
-42.58
-43.12
-42.59
-41.58
-40.66
-40.24
-40.48
-41.29
-42.48
-43.90
-45.45
-47.02
-48.37
-49.06
-48.54
-46.32
-42.17
-36.11
-28.28
-18.85
-7.79
4.90
19.06
34.14
49.15
62.85
74.09
82.17
86.94
88.76
88.21
85.82
81.95
76.71
70.09
62.04
52.54
41.63
29.40
16.07
1.96
-12.44
-26.52
-39.57
-50.92
-60.15
-67.10
-71.95
-75.16
-77.23
-78.51
-79.05
-78.41
-75.82
-70.40
-61.58
-49.44
-34.89
-19.44
-4.83
7.57
17.04
23.58
27.59
29.56
29.70
28.03
24.52
19.37
13.20
6.96
1.67
-1.82
-3.00
-1.87
1.16
5.35
9.79
13.65
16.37
17.75
17.95
17.31
16.12
14.56
12.70
10.70
8.90
7.87
8.12
9.88
12.89
16.48
19.82
22.23
23.40
23.30
21.98
19.42
15.63
10.84
5.59
0.69
-3.19
-5.96
-8.30
-11.47
-16.71
-24.71
-35.25
-47.31
-59.42
-70.13
-78.21
-82.78
-83.26
-79.37
-71.20
-59.39
-45.08
-29.81
-15.21
-2.69
6.82
12.99
16.00
16.43
15.09
12.85
10.60
9.10
8.89
10.19
12.91
16.67
20.88
24.97
28.48
31.18
32.99
33.93
34.03
33.26
31.69
29.48
26.99
24.64
22.78
21.52
20.69
19.96
18.98
17.60
15.80
13.71
11.51
9.43
7.78
7.00
7.63
10.06
14.36
20.07
26.40
32.40
37.37
40.99
43.31
44.62
45.15
45.06
44.41
43.27
41.80
40.22
38.71
37.28
35.77
33.94
31.47
28.22
24.21
19.57
14.47
8.99
3.04
-3.53
-10.84
-18.82
-27.21
-35.57
-43.59
-51.15
-58.40
-65.66
-73.25
-81.32
-89.86
-98.61
-107.20
-115.03
-121.41
-125.55
-126.84
-125.06
-120.51
-114.00
-106.42
-98.46
-90.29
-81.66
-72.23
-61.83
-50.68
-39.20
-27.86
-16.85
-6.18
4.25
14.38
23.86
32.07
38.43
42.65
44.83
45.44
45.10
44.39
43.64
42.92
42.02
40.71
38.86
36.51
33.95
31.51
29.52
28.15
27.41
27.16
27.17
27.28
27.54
28.20
29.70
32.49
36.77
42.38
48.69
54.78
59.71
62.76
63.58
62.14
58.56
53.17
46.27
38.14
29.11
19.63
10.23
1.35
-6.74
-13.97
-20.29
-25.67
-30.13
-33.76
-36.62
-38.68
-39.83
-39.95
-39.01
-36.74
-33.01
-28.00
-22.13
-15.95
-9.83
-4.13
0.70
4.08
6.37
7.91
8.64
8.14
6.10
2.70
-1.44
-5.66
-9.45
-10.58
-7.33
0.48
11.33
23.25
35.04
46.43
57.77
69.55
85.10
106.86
134.38
164.12
191.50
213.08
227.17
233.50
232.74
230.13
230.89
237.60
249.64
265.27
283.56
304.33
327.24
325.54
281.95
197.64
92.44
-10.44
-97.18
-164.19
-213.45
-248.56
-271.57
-282.90
-281.84
-270.10
-252.82
-236.18
-224.65
-219.94
-221.49
-227.68
-232.83
-231.46
-221.28
-203.88
-182.71
-160.86
-140.17
-121.37
-104.43
-86.89
-66.17
-41.34
-13.66
14.49
40.70
63.07
80.27
91.69
98.53
102.70
105.72
108.15
109.80
110.19
108.79
105.15
98.91
90.10
78.73
64.56
47.31
27.27
5.79
-14.91
-32.35
-44.78
-51.92
-54.95
-55.95
-56.87
-58.69
-61.35
-64.19
-66.83
-69.63
-73.49
-79.01
-85.74
-91.91
-95.09
-93.43
-86.84
-77.20
-67.64
-61.14
-59.32
-61.97
-67.42
-73.55
-78.61
-81.49
-81.70
-78.94
-73.07
-64.24
-53.02
-40.55
-28.27
-17.53
-9.24
-3.71
-0.68
0.52
0.85
1.38
3.20
7.15
13.58
22.22
32.04
41.64
49.60
55.08
57.92
58.67
58.14
56.99
55.58
53.89
51.70
48.83
45.22
40.98
36.35
31.66
27.31
23.74
21.39
20.56
21.32
23.43
26.43
29.68
32.58
34.64
35.63
35.55
34.57
32.90
30.71
28.08
24.96
21.26
16.82
11.60
5.65
-0.71
-6.89
-12.03
-15.21
-15.72
-13.38
-8.65
-2.56
3.67
9.03
12.95
15.37
16.50
16.64
16.04
14.90
13.47
12.06
11.01
10.49
10.46
10.70
10.90
10.85
10.43
9.71
8.79
7.78
6.71
5.49
3.89
1.63
-1.53
-5.59
-10.27
-15.10
-19.66
-23.89
-28.11
-32.80
-38.09
-43.45
-47.68
-49.41
-47.78
-42.90
-35.85
-28.20
-21.27
-15.76
-11.64
-8.53
-6.03
-3.97
-2.35
-1.18
-0.36
0.27
0.79
1.00
0.50
-0.97
-3.07
-4.62
-3.72
1.72
13.17
30.83
53.27
77.69
100.69
119.36
131.91
137.91
137.91
132.91
124.08
112.54
99.48
86.44
75.22
67.32
63.26
62.27
62.54
62.42
60.47
55.87
48.49
38.86
27.67
15.87
4.35
-5.93
-13.03
-15.79
-14.11
-8.74
-0.47
10.06
22.75
37.37
53.21
70.51
88.39
105.05
118.85
129.28
136.62
141.88
145.50
147.04
147.51
146.71
143.35
136.10
124.75
110.10
94.42
80.07
57.27
25.13
-9.94
-39.61
-60.06
-69.90
-74.44
-76.88
-78.63
-80.27
-79.97
-76.77
-71.37
-65.43
-60.24
-56.55
-53.86
-51.65
-49.77
-46.87
-42.66
-37.99
-34.30
-32.53
-33.40
-36.79
-42.73
-51.25
-61.32
-72.19
-83.65
-95.67
-108.03
-120.38
-131.99
-142.33
-151.12
-157.73
-161.80
-163.23
-162.00
-157.90
-150.82
-140.67
-127.82
-113.00
-96.90
-80.13
-63.20
-46.42
-30.03
-14.36
0.11
12.94
23.80
32.82
40.49
47.37
53.89
60.07
65.65
70.23
73.45
75.05
74.79
72.46
67.97
61.56
53.95
46.21
39.40
34.15
30.31
27.06
23.35
18.36
11.90
4.44
-3.14
-10.00
-15.55
-19.65
-22.49
-24.41
-25.79
-26.81
-27.54
-27.99
-28.25
-28.56
-29.30
-30.88
-33.54
-37.23
-41.64
-46.29
-50.86
-55.16
-59.15
-62.69
-65.43
-66.79
-66.27
-63.76
-59.69
-55.00
-50.72
-47.66
-46.12
-45.99
-46.93
-48.51
-50.28
-51.69
-52.03
-50.60
-46.93
-41.08
-33.70
-25.73
-18.02
-10.93
-4.29
2.38
9.48
16.97
24.39
31.04
36.32
39.90
41.66
41.57
39.48
35.18
28.62
20.06
10.28
0.45
-8.15
-14.52
-18.14
-19.16
-18.31
-16.75
-15.72
-16.13
-18.39
-22.35
-27.45
-33.05
-38.61
-43.79
-48.61
-53.03
-56.91
-60.02
-62.18
-63.44
-63.85
-63.28
-61.40
-58.16
-53.66
-48.20
-42.28
-36.29
-30.70
-25.69
-21.23
-17.24
-14.31
-12.92
-13.15
-14.58
-16.32
-17.89
-18.92
-19.17
-18.31
-16.56
-13.92
-10.21
-5.37
0.59
6.78
12.32
16.67
23.57
34.40
48.11
62.00
72.49
80.75
88.24
96.04
103.79
110.34
113.91
113.69
110.25
105.40
101.80
101.06
103.76
109.26
115.86
121.13
123.02
120.56
113.63
103.14
89.47
73.42
56.41
40.67
28.49
21.35
18.31
16.03
9.56
-5.13
-27.24
-51.75
-72.86
-86.73
-92.87
-93.35
-93.29
-92.99
-91.27
-86.56
-78.58
-69.27
-61.26
-56.63
-55.98
-58.48
-60.62
-59.83
-54.86
-46.47
-37.76
-31.51
-29.39
-31.43
-36.44
-41.90
-44.58
-41.15
-29.54
-10.69
13.16
38.46
61.38
78.82
86.37
82.21
69.51
59.65
55.97
57.65
60.29
61.27
59.51
55.59
51.35
48.77
48.59
49.26
49.25
47.09
41.85
32.84
20.07
4.83
-10.68
-24.01
-33.80
-38.71
-38.15
-32.50
-23.38
-12.95
-3.05
5.25
11.50
15.35
17.17
17.66
17.57
17.37
17.36
17.81
18.77
20.00
20.75
20.46
18.87
16.07
12.48
8.66
5.26
2.71
1.06
-0.10
-1.31
-3.08
-5.62
-8.78
-12.12
-15.07
-17.25
-18.63
-19.64
-21.00
-23.43
-27.31
-32.38
-37.75
-42.08
-44.02
-42.63
-37.67
-29.67
-19.79
-9.44
0.06
7.70
12.99
15.90
16.79
16.28
15.00
13.58
12.57
12.41
13.38
15.59
18.84
22.64
26.34
29.25
30.82
30.81
29.28
26.56
23.19
19.77
16.86
14.86
13.84
13.58
13.53
13.05
11.61
9.03
5.61
2.00
-0.95
-2.52
-2.33
-0.42
2.82
6.81
10.89
14.45
16.93
17.93
17.28
15.14
12.06
8.84
6.27
4.70
3.83
2.83
0.67
-3.23
-8.65
-14.54
-19.44
-22.11
-22.17
-20.14
-17.28
-14.97
-14.10
-14.80
-16.56
-18.63
-20.42
-21.76
-22.71
-23.41
-23.88
-23.89
-23.11
-21.23
-18.09
-13.75
-8.49
-2.77
2.85
7.83
11.76
14.41
15.85
16.30
16.03
15.19
13.82
11.85
9.27
6.23
2.92
-0.45
-3.85
-7.39
-11.30
-15.77
-20.88
-26.58
-32.76
-39.37
-46.46
-54.18
-62.57
-71.50
-80.52
-89.00
-96.22
-101.65
-105.08
-106.67
-106.85
-106.14
-104.89
-103.12
-100.39
-95.92
-88.86
-78.59
-65.03
-48.73
-30.65
-11.85
6.83
24.89
42.09
58.16
72.63
84.88
94.35
100.79
104.30
105.21
103.88
100.51
95.23
88.33
80.39
72.24
64.61
57.76
51.32
44.46
36.42
26.98
16.79
7.09
-0.76
-5.93
-8.45
-9.12
-9.12
-9.51
-10.88
-13.30
-16.54
-20.20
-23.78
-26.71
-28.24
-27.61
-24.27
-18.24
-10.27
-1.81
5.37
9.75
10.55
8.01
3.20
-2.43
-7.68
-11.91
-15.25
-18.23
-21.34
-24.77
-28.18
-30.78
-31.63
-29.70
-24.10
-14.32
-0.69
15.28
30.95
43.18
49.63
49.80
45.44
39.83
36.28
36.66
40.78
46.81
52.52
56.50
58.77
60.34
62.46
65.66
69.49
72.78
74.19
72.94
68.90
62.67
55.16
47.10
38.88
30.62
22.37
14.42
7.39
2.01
-1.28
-2.58
-2.68
-2.69
-3.61
-5.90
-9.33
-13.22
-16.76
-19.37
-20.93
-21.66
-22.01
-22.39
-23.06
-24.11
-25.43
-26.79
-27.94
-28.62
-28.77
-28.50
-28.11
-27.89
-27.90
-27.87
-27.28
-25.64
-22.79
-19.01
-14.90
-11.05
-7.82
-5.22
-3.09
-1.30
0.08
0.87
0.92
0.31
-0.62
-1.47
-1.91
-1.85
-1.41
-0.76
-0.07
0.53
0.94
1.00
0.57
-0.40
-1.85
-3.48
-4.96
-5.94
-6.26
-6.00
-5.42
-4.96
-5.10
-6.22
-8.44
-11.46
-14.55
-16.70
-17.00
-14.97
-10.86
-5.56
-0.32
3.75
6.05
6.64
6.12
5.22
4.52
4.20
4.13
4.09
3.97
3.84
3.87
4.13
4.51
4.78
4.70
4.25
3.65
3.27
3.38
4.05
5.05
5.99
6.49
6.38
5.69
4.59
3.32
1.97
0.54
-1.10
-3.00
-5.10
-7.17
-8.88
-9.89
-9.94
-9.01
-7.24
-4.97
-2.59
-0.47
1.15
2.15
2.51
2.29
1.60
0.62
-0.49
-1.54
-2.33
-2.74
-2.72
-2.34
-1.77
-1.18
-0.73
-0.50
-0.50
-0.71
-1.05
-1.48
-1.95
-2.42
-2.89
-3.34
-3.79
-4.25
-4.72
-5.32
-6.20
-7.49
-9.28
-11.39
-13.36
-14.57
-14.45
-12.68
-9.43
-5.31
-1.11
2.43
4.88
6.17
6.55
6.37
6.00
5.65
5.39
5.19
4.96
4.71
4.44
4.25
4.17
4.19
4.17
4.02
3.70
3.32
3.04
2.93
2.91
2.76
2.26
1.28
-0.11
-1.70
-3.27
-4.72
-6.01
-7.21
-8.31
-9.22
-9.79
-9.80
-9.11
-7.66
-5.52
-2.91
-0.14
2.43
4.45
5.69
6.10
5.82
5.02
3.95
2.81
1.73
0.85
0.30
0.21
0.60
1.35
2.17
2.73
2.79
2.34
1.57
0.83
0.33
0.11
0.01
-0.13
-0.41
-0.75
-1.05
-1.34
-1.83
-2.83
-4.55
-6.85
-9.25
-11.01
-11.48
-10.37
-7.83
-4.38
-0.69
2.66
5.28
6.95
7.73
7.74
7.27
6.66
6.23
6.22
6.67
7.46
8.32
9.00
9.30
9.18
8.71
8.03
7.29
6.56
5.87
5.09
4.12
2.85
1.29
-0.44
-2.19
-3.82
-5.33
-6.80
-8.33
-9.95
-11.56
-12.94
-13.82
-13.94
-13.12
-11.42
-9.04
-6.39
-3.89
-1.91
-0.62
0.04
0.26
0.26
0.16
0.01
-0.16
-0.31
-0.32
-0.10
0.39
1.06
1.73
2.19
2.30
1.94
1.15
-0.02
-1.45
-3.07
-4.84
-6.78
-8.91
-11.20
-13.62
-16.12
-18.73
-21.54
-24.71
-28.34
-32.34
-36.44
-40.18
-43.11
-44.97
-45.81
-45.96
-45.93
-46.16
-46.90
-48.18
-49.88
-51.86
-54.05
-56.56
-59.67
-63.77
-69.28
-76.33
-84.54
-92.76
-99.17
-101.56
-97.99
-87.40
-70.06
-47.61
-22.67
1.78
23.17
39.83
51.30
58.26
62.38
65.67
69.98
76.31
84.50
93.29
100.82
105.34
105.93
102.73
96.86
89.95
83.59
79.00
76.84
77.26
79.95
84.20
89.01
93.41
96.81
99.24
101.29
103.69
106.82
110.42
113.67
115.58
115.52
113.35
109.36
103.86
97.00
88.78
79.27
68.86
58.23
48.20
39.38
31.96
25.79
20.49
15.72
11.31
7.33
3.96
1.40
-0.32
-1.31
-1.85
-2.29
-2.77
-3.22
-3.24
-2.39
-0.33
2.89
6.83
10.82
14.19
16.57
17.95
18.70
19.42
20.81
23.48
27.88
34.07
41.56
49.27
55.73
59.43
59.36
55.31
47.82
37.95
26.80
15.20
3.69
-7.41
-17.71
-26.71
-33.81
-38.41
-40.04
-38.29
-33.02
-24.41
-13.26
-0.94
10.82
20.35
26.55
29.09
28.28
24.66
18.53
9.81
-1.56
-15.13
-29.52
-42.66
-52.41
-57.40
-57.57
-54.11
-48.92
-43.89
-40.42
-39.26
-40.55
-44.01
-49.08
-54.93
-60.58
-65.12
-67.86
-68.50
-66.95
-63.21
-57.25
-49.08
-39.02
-27.91
-17.14
-8.42
-3.36
-2.93
-7.17
-15.18
-25.40
-36.08
-45.66
-53.07
-57.76
-59.66
-59.12
-56.86
-53.80
-50.96
-49.09
-48.50
-49.02
-50.12
-51.17
-51.72
-51.61
-50.85
-49.57
-47.88
-45.97
-44.02
-42.33
-41.18
-40.74
-40.97
-41.63
-42.39
-42.89
-42.88
-42.30
-41.21
-39.77
-38.17
-36.57
-35.14
-34.14
-33.93
-34.84
-37.01
-40.20
-43.77
-46.70
-47.96
-46.75
-42.90
-36.91
-29.80
-22.78
-16.81
-12.33
-9.25
-7.14
-5.52
-4.11
-2.89
-1.92
-1.24
-0.66
0.06
1.14
2.56
4.02
5.13
5.61
5.41
4.71
3.82
2.90
1.92
0.70
-0.98
-3.18
-5.74
-8.33
-10.68
-12.72
-14.69
-17.01
-19.99
-23.60
-27.30
-30.24
-31.49
-30.39
-26.84
-21.26
-14.46
-7.41
-0.98
4.28
8.10
10.52
11.76
12.10
11.84
11.26
10.62
10.17
10.13
10.67
11.77
13.22
14.64
15.54
15.53
14.49
12.53
10.01
7.35
4.88
2.70
0.76
-1.12
-3.15
-5.50
-8.32
-11.70
-15.66
-20.00
-24.22
-27.52
-29.04
-28.16
-24.74
-19.18
-12.23
-4.74
2.54
9.06
14.40
18.16
20.12
20.33
19.20
17.48
15.97
15.26
15.53
16.51
17.74
18.78
19.44
19.65
19.45
18.82
17.67
15.88
13.43
10.49
7.30
4.16
1.17
-1.71
-4.71
-8.11
-12.12
-16.78
-21.88
-26.96
-31.25
-33.87
-34.04
-31.24
-25.51
-17.47
-8.20
1.16
9.68
16.83
22.54
26.93
30.16
32.24
33.22
33.23
32.62
31.90
31.55
31.84
32.70
33.81
34.74
35.13
34.82
33.74
31.91
29.29
25.88
21.78
17.26
12.77
8.83
5.78
3.59
1.83
-0.20
-3.22
-7.68
-13.55
-20.25
-26.74
-31.78
-34.18
-33.20
-28.69
-21.19
-11.84
-2.02
6.98
14.33
19.74
23.45
25.88
27.39
28.21
28.48
28.37
28.19
28.29
28.85
29.82
30.85
31.53
31.61
31.11
30.26
29.32
28.38
27.26
25.71
23.54
20.74
17.53
14.15
10.84
7.72
4.82
2.07
-0.66
-3.60
-7.08
-11.36
-16.52
-22.22
-27.64
-31.63
-33.04
-31.17
-26.05
-18.51
-9.81
-1.29
6.12
12.05
16.57
19.94
22.33
23.80
24.36
24.16
23.57
23.07
23.06
23.61
24.51
25.36
25.78
25.57
24.77
23.59
22.24
20.86
19.48
18.04
16.46
14.60
12.36
9.64
6.46
3.00
-0.41
-3.42
-5.80
-7.61
-9.24
-11.33
-14.53
-19.24
-25.40
-32.36
-38.97
-43.78
-45.48
-43.27
-37.17
-28.10
-17.59
-7.35
1.21
7.39
11.23
13.39
14.74
16.00
17.53
19.26
20.87
22.10
22.88
23.42
24.07
25.09
26.43
27.74
28.53
28.45
27.54
26.15
24.77
23.73
22.92
21.88
19.99
16.82
12.41
7.31
2.43
-1.39
-3.68
-4.59
-4.86
-5.46
-7.24
-10.65
-15.55
-21.21
-26.61
-30.57
-32.13
-30.79
-26.62
-20.30
-12.93
-5.67
0.52
5.18
8.37
10.50
12.05
13.29
14.26
14.86
14.99
14.71
14.25
13.84
13.62
13.55
13.47
13.22
12.70
11.95
11.05
10.07
9.06
7.98
6.82
5.53
4.08
2.47
0.74
-1.01
-2.64
-4.02
-5.20
-6.40
-7.95
-10.20
-13.26
-16.93
-20.68
-23.82
-25.72
-25.92
-24.30
-21.05
-16.61
-11.58
-6.56
-2.03
1.75
4.70
6.91
8.49
9.53
10.03
9.99
9.49
8.79
8.20
8.02
8.37
9.17
10.20
11.21
12.03
12.57
12.76
12.59
12.05
11.21
10.20
9.15
8.08
6.91
5.46
3.61
1.41
-0.95
-3.19
-5.15
-6.87
-8.50
-10.25
-12.25
-14.55
-17.11
-19.76
-22.16
-23.84
-24.26
-22.99
-19.98
-15.56
-10.40
-5.26
-0.69
3.02
5.86
7.91
9.28
9.99
10.12
9.78
9.20
8.68
8.48
8.75
9.42
10.27
10.95
11.16
10.78
9.85
8.62
7.36
6.27
5.33
4.42
3.32
1.86
0.05
-2.00
-4.03
-5.80
-7.14
-8.02
-8.61
-9.21
-10.15
-11.66
-13.80
-16.42
-19.29
-22.08
-24.41
-25.89
-26.09
-24.68
-21.56
-17.01
-11.56
-5.95
-0.81
3.46
6.70
8.96
10.32
10.90
10.87
10.52
10.17
10.14
10.65
11.63
12.86
13.95
14.55
14.48
13.73
12.54
11.22
10.04
9.10
8.26
7.24
5.78
3.79
1.39
-1.08
-3.26
-4.92
-6.00
-6.64
-7.07
-7.54
-8.29
-9.52
-11.31
-13.58
-16.06
-18.32
-19.88
-20.35
-19.50
-17.37
-14.15
-10.16
-5.79
-1.43
2.53
5.74
7.94
9.00
9.02
8.27
7.17
6.09
5.32
5.04
5.27
5.97
7.02
8.24
9.38
10.17
10.35
9.85
8.77
7.41
6.08
5.00
4.14
3.26
2.13
0.58
-1.30
-3.25
-4.98
-6.28
-7.18
-7.85
-8.50
-9.33
-10.42
-11.77
-13.32
-14.89
-16.20
-16.81
-16.28
-14.30
-10.89
-6.45
-1.66
2.73
6.15
8.39
9.59
10.03
10.03
9.74
9.25
8.61
7.91
7.34
7.09
7.29
7.96
8.96
10.00
10.79
11.06
10.70
9.75
8.41
6.88
5.31
3.77
2.23
0.68
-0.82
-2.16
-3.18
-3.80
-4.07
-4.17
-4.39
-5.02
-6.31
-8.33
-10.97
-13.90
-16.65
-18.65
-19.38
-18.51
-15.98
-12.08
-7.39
-2.66
1.42
4.43
6.25
7.08
7.22
6.92
6.34
5.60
4.83
4.26
4.08
4.38
5.03
5.76
6.27
6.38
6.06
5.43
4.68
3.94
3.33
2.88
2.52
2.10
1.43
0.36
-1.14
-2.89
-4.61
-6.07
-7.17
-8.00
-8.78
-9.69
-10.86
-12.27
-13.77
-15.16
-16.11
-16.26
-15.26
-12.93
-9.42
-5.14
-0.74
3.23
6.37
8.55
9.79
10.16
9.72
8.62
7.12
5.66
4.67
4.45
5.01
6.12
7.38
8.40
8.93
8.91
8.41
7.63
6.74
5.90
5.16
4.47
3.72
2.78
1.63
0.29
-1.14
-2.56
-3.90
-5.16
-6.35
-7.53
-8.78
-10.19
-11.79
-13.50
-15.16
-16.43
-16.97
-16.46
-14.75
-11.92
-8.24
-4.21
-0.38
2.73
4.81
5.73
5.61
4.75
3.52
2.33
1.51
1.25
1.57
2.33
3.30
4.25
5.02
5.56
5.89
6.04
6.02
5.79
5.32
4.59
3.65
2.62
1.59
0.68
-0.09
-0.74
-1.38
-2.13
-3.10
-4.32
-5.72
-7.22
-8.72
-10.16
-11.46
-12.45
-12.86
-12.42
-10.90
-8.33
-4.96
-1.27
2.19
4.96
6.74
7.44
7.15
6.12
4.67
3.21
2.18
1.91
2.53
3.93
5.75
7.50
8.75
9.27
9.06
8.35
7.40
6.40
5.36
4.22
2.88
1.36
-0.19
-1.58
-2.70
-3.57
-4.34
-5.24
-6.36
-7.70
-9.12
-10.46
-11.60
-12.41
-12.73
-12.31
-10.87
-8.31
-4.79
-0.81
2.99
6.09
8.23
9.47
9.96
9.83
9.12
7.86
6.22
4.60
3.52
3.37
4.13
5.46
6.75
7.47
7.38
6.62
5.56
4.59
3.91
3.51
3.15
2.53
1.49
0.03
-1.64
-3.24
-4.56
-5.49
-6.12
-6.69
-7.43
-8.53
-10.00
-11.66
-13.23
-14.36
-14.71
-14.06
-12.33
-9.63
-6.22
-2.49
1.09
4.08
6.16
7.21
7.33
6.82
6.08
5.52
5.36
5.67
6.30
7.04
7.67
8.07
8.26
8.33
8.33
8.27
8.03
7.52
6.73
5.69
4.54
3.36
2.18
0.96
-0.33
-1.67
-2.98
-4.13
-5.11
-5.99
-6.92
-8.07
-9.46
-10.91
-12.06
-12.48
-11.85
-10.09
-7.38
-4.17
-0.99
1.68
3.57
4.64
5.01
4.85
4.39
3.78
3.21
2.83
2.76
3.06
3.68
4.52
5.39
6.13
6.63
6.82
6.73
6.41
5.91
5.24
4.36
3.25
1.90
0.37
-1.19
-2.61
-3.72
-4.49
-4.99
-5.39
-5.93
-6.76
-7.95
-9.34
-10.65
-11.51
-11.61
-10.78
-9.09
-6.78
-4.17
-1.60
0.70
2.57
3.93
4.75
5.03
4.79
4.09
3.12
2.12
1.38
1.14
1.50
2.34
3.39
4.27
4.67
4.43
3.61
2.48
1.33
0.41
-0.14
-0.36
-0.38
-0.35
-0.46
-0.84
-1.57
-2.63
-3.93
-5.34
-6.73
-7.99
-9.02
-9.67
-9.77
-9.15
-7.70
-5.51
-2.85
-0.13
2.22
3.93
4.93
5.34
5.37
5.22
4.97
4.68
4.38
4.12
3.94
3.88
3.88
3.86
3.74
3.49
3.16
2.82
2.52
2.21
1.79
1.14
0.20
-0.96
-2.22
-3.39
-4.39
-5.24
-6.05
-6.93
-7.93
-8.99
-9.98
-10.78
-11.25
-11.28
-10.78
-9.67
-7.93
-5.66
-3.09
-0.54
1.62
3.15
4.00
4.28
4.23
4.12
4.16
4.49
5.13
6.00
6.97
7.88
8.60
9.03
9.09
8.76
8.07
7.08
5.92
4.71
3.54
2.49
1.54
0.67
-0.15
-0.95
-1.70
-2.36
-2.92
-3.43
-3.99
-4.68
-5.49
-6.33
-6.97
-7.17
-6.73
-5.58
-3.79
-1.56
0.81
3.02
4.83
6.10
6.76
6.90
6.70
6.34
5.99
5.72
5.53
5.41
5.36
5.37
5.50
5.72
5.98
6.21
6.31
6.23
5.99
5.65
5.28
4.91
4.53
4.15
3.74
3.30
2.83
2.30
1.61
0.69
-0.52
-2.02
-3.68
-5.28
-6.56
-7.24
-7.15
-6.27
-4.78
-2.98
-1.18
0.42
1.77
2.97
4.16
5.37
6.55
7.51
8.10
8.23
7.98
7.53
7.09
6.79
6.67
6.67
6.68
6.59
6.35
5.98
5.53
5.09
4.66
4.18
3.54
2.61
1.44
0.16
-0.99
-1.84
-2.40
-2.84
-3.45
-4.38
-5.61
-6.91
-8.00
-8.72
-9.07
-9.16
-9.05
-8.70
-7.96
-6.69
-4.91
-2.81
-0.70
1.14
2.54
3.46
4.00
4.26
4.34
4.32
4.26
4.22
4.27
4.47
4.81
5.26
5.79
6.29
6.69
6.92
6.90
6.59
5.94
4.93
3.57
2.01
0.38
-1.11
-2.33
-3.24
-3.91
-4.49
-5.20
-6.19
-7.49
-9.04
-10.66
-12.18
-13.50
-14.52
-15.23
-15.62
-15.74
-15.65
-15.39
-15.02
-14.51
-13.78
-12.73
-11.35
-9.76
-8.24
-7.05
-6.33
-6.05
-6.05
-6.21
-6.56
-7.27
-8.48
-10.20
-12.23
-14.28
-16.16
-17.94
-19.90
-22.32
-25.29
-28.51
-31.37
-33.23
-33.65
-32.53
-30.03
-26.45
-22.02
-16.95
-11.42
-5.70
-0.13
5.03
9.75
14.22
18.78
23.71
29.05
34.57
39.81
44.21
47.29
48.68
48.17
45.72
41.42
35.56
28.56
21.00
13.54
6.96
1.98
-0.83
-1.23
0.60
4.08
8.42
12.84
16.72
19.70
21.63
22.48
22.30
21.18
19.41
17.53
16.24
16.16
17.57
20.17
23.00
24.79
24.47
21.63
16.88
11.57
7.32
5.33
5.98
8.73
12.43
15.78
17.73
17.72
15.68
11.94
7.09
1.86
-3.06
-7.03
-9.63
-10.69
-10.23
-8.47
-5.77
-2.57
0.59
3.18
4.77
5.17
4.50
3.07
1.25
-0.73
-2.83
-5.05
-7.32
-9.33
-10.68
-11.13
-10.77
-10.09
-9.69
-10.02
-11.09
-12.59
-14.12
-15.53
-16.97
-18.54
-19.96
-20.45
-19.12
-15.58
-10.50
-5.47
-2.49
-2.97
-7.05
-13.63
-20.86
-27.02
-31.05
-32.78
-32.58
-31.01
-28.50
-25.41
-22.11
-19.05
-16.65
-15.17
-14.48
-14.03
-13.11
-11.05
-7.59
-2.99
2.03
6.58
9.95
11.91
12.75
13.12
13.61
14.47
15.43
15.92
15.37
13.57
10.89
8.15
6.21
5.54
5.94
6.64
6.77
5.87
4.11
2.19
0.81
0.25
0.18
-0.13
-1.32
-3.52
-6.25
-8.71
-10.25
-10.63
-10.18
-9.50
-9.13
-9.37
-10.11
-11.04
-11.84
-12.31
-12.44
-12.32
-11.96
-11.28
-10.03
-8.05
-5.39
-2.48
0.02
1.40
1.27
-0.33
-2.95
-6.00
-8.96
-11.58
-13.74
-15.33
-16.14
-15.90
-14.49
-12.05
-9.09
-6.27
-4.17
-3.07
-2.93
-3.51
-4.57
-5.87
-7.16
-8.09
-8.11
-6.64
-3.23
2.30
9.80
18.96
29.42
40.97
53.49
66.83
80.63
94.36
107.34
118.90
128.49
135.71
140.21
141.64
139.71
134.25
125.39
113.54
99.42
83.78
67.37
50.75
34.49
19.15
5.30
-6.57
-16.32
-24.30
-31.17
-37.72
-44.41
-51.26
-57.78
-63.24
-67.03
-68.79
-68.45
-66.13
-62.11
-56.86
-51.15
-46.02
-42.64
-41.88
-44.00
-48.53
-54.39
-60.28
-65.01
-67.81
-68.35
-66.65
-62.92
-57.55
-51.02
-43.92
-36.82
-30.18
-24.14
-18.59
-13.20
-7.73
-2.10
3.50
8.76
13.40
17.26
20.35
22.67
24.19
24.86
24.67
23.80
22.60
21.44
20.51
19.70
18.65
16.96
14.47
11.33
8.00
4.97
2.59
0.91
-0.26
-1.20
-2.09
-2.89
-3.44
-3.55
-3.17
-2.45
-1.67
-1.10
-0.92
-1.13
-1.63
-2.36
-3.31
-4.52
-5.99
-7.61
-9.17
-10.44
-11.27
-11.73
-12.04
-12.45
-13.19
-14.31
-15.72
-17.21
-18.59
-19.69
-20.52
-21.17
-21.80
-22.49
-23.22
-23.75
-23.82
-23.20
-21.91
-20.18
-18.38
-16.84
-15.72
-14.98
-14.49
-14.16
-13.98
-13.94
-14.05
-14.17
-14.07
-13.59
-12.70
-11.59
-10.57
-9.94
-9.88
-10.39
-11.30
-12.33
-13.14
-13.45
-13.10
-12.10
-10.61
-8.80
-6.72
-4.26
-1.12
2.99
8.17
14.17
20.41
26.22
31.07
34.80
37.71
40.28
43.09
46.50
50.63
55.37
60.39
65.24
69.41
72.34
73.59
72.90
70.28
65.98
60.31
53.63
46.16
38.10
29.70
21.28
13.25
6.08
0.09
-4.57
-7.96
-10.29
-11.86
-12.95
-13.82
-14.68
-15.70
-16.93
-18.34
-19.76
-20.96
-21.71
-21.81
-21.20
-19.91
-18.08
-15.83
-13.31
-10.62
-7.90
-5.24
-2.75
-0.41
1.90
4.36
7.01
9.57
11.46
11.88
10.26
6.52
1.26
-4.40
-9.20
-12.13
-12.73
-11.07
-7.59
-2.84
2.62
8.22
13.31
17.11
18.91
18.25
15.19
10.27
4.40
-1.50
-6.73
-10.97
-14.21
-16.55
-17.97
-18.29
-17.31
-14.95
-11.40
-7.19
-2.99
0.49
2.74
3.53
3.04
1.71
0.16
-1.02
-1.49
-1.22
-0.41
0.68
1.87
3.13
4.49
5.97
7.55
9.28
11.31
13.92
17.35
21.50
25.91
29.74
32.17
32.72
31.41
28.72
25.33
21.80
18.44
15.31
12.25
9.04
5.33
0.86
-4.60
-11.01
-18.12
-25.47
-32.46
-38.52
-43.28
-46.61
-48.78
-50.36
-52.12
-54.69
-58.31
-62.65
-66.96
-70.39
-72.31
-72.64
-71.70
-70.04
-68.11
-66.12
-64.10
-62.05
-60.04
-58.26
-56.81
-55.71
-54.88
-54.17
-53.55
-53.09
-52.93
-53.17
-53.72
-54.27
-54.37
-53.53
-51.48
-48.28
-44.37
-40.43
-37.20
-35.14
-34.23
-33.89
-33.17
-31.12
-27.08
-21.06
-13.83
-6.75
-1.42
0.82
-0.73
-5.82
-13.43
-22.03
-30.05
-36.28
-40.09
-41.42
-40.57
-38.01
-34.12
-29.19
-23.28
-16.40
-8.43
0.86
11.71
24.17
37.86
51.86
64.75
74.90
80.95
82.13
78.43
70.58
59.69
46.95
33.45
19.98
7.17
-4.49
-14.53
-22.59
-28.33
-31.59
-32.28
-30.51
-26.59
-21.09
-14.64
-7.78
-0.74
6.61
14.54
23.16
32.13
40.69
48.02
53.67
57.86
61.38
65.06
69.19
73.35
76.56
78.00
77.47
75.61
73.51
72.18
72.11
73.18
74.93
76.88
78.79
80.57
82.19
83.51
84.23
84.05
82.78
80.43
77.13
73.12
68.55
63.52
58.15
52.46
46.56
40.53
34.53
28.73
23.36
18.60
14.46
10.79
7.30
3.70
-0.16
-4.15
-7.99
-11.33
-14.00
-16.06
-17.72
-19.25
-20.79
-22.37
-23.89
-25.21
-26.19
-26.62
-26.35
-25.26
-23.42
-21.08
-18.66
-16.62
-15.27
-14.71
-14.78
-15.24
-15.85
-16.42
-16.84
-17.03
-16.87
-16.30
-15.34
-14.09
-12.80
-11.65
-10.78
-10.16
-9.71
-9.32
-8.95
-8.73
-8.72
-8.97
-9.30
-9.45
-9.15
-8.36
-7.38
-6.74
-7.00
-8.46
-11.01
-14.12
-17.07
-19.12
-19.76
-18.82
-16.46
-13.10
-9.30
-5.66
-2.60
-0.33
1.27
2.50
3.70
5.08
6.61
8.10
9.29
10.11
10.67
11.31
12.34
13.88
15.77
17.58
18.83
19.25
18.85
17.89
16.73
15.59
14.45
13.15
11.49
9.52
7.50
5.77
4.54
3.71
2.92
1.67
-0.35
-3.14
-6.26
-9.02
-10.70
-10.84
-9.46
-7.02
-4.21
-1.75
-0.06
0.79
1.03
0.99
0.93
0.89
0.74
0.29
-0.56
-1.77
-3.20
-4.65
-5.97
-6.99
-7.63
-7.81
-7.58
-7.07
-6.50
-6.12
-6.11
-6.45
-6.99
-7.48
-7.70
-7.59
-7.51
-7.72
-8.25
-8.89
-9.55
-10.21
-11.07
-12.10
-13.11
-13.93
-14.14
-13.16
-10.49
-6.21
-0.75
5.16
11.05
16.97
22.86
29.15
36.54
45.11
53.59
59.67
60.76
55.16
42.52
21.74
-6.71
-40.20
-74.92
-107.59
-135.52
-157.38
-172.26
-179.84
-183.74
-185.63
-182.89
-171.16
-149.08
-119.19
-88.42
-63.75
-50.04
-54.40
-77.65
-112.01
-146.27
-173.02
-189.47
-198.19
-202.18
-204.35
-215.44
-242.82
-284.85
-333.62
-380.98
-418.77
-442.24
-447.82
-388.18
-256.17
-94.60
39.68
121.37
151.34
161.89
173.88
195.57
225.23
252.71
267.26
268.33
263.53
260.44
263.65
271.13
279.26
284.70
279.91
262.10
236.97
213.90
198.61
192.05
189.74
187.28
182.00
169.65
149.40
125.78
105.53
92.75
88.13
88.40
89.84
89.72
85.07
75.27
62.87
51.70
44.09
40.35
38.68
37.09
34.37
29.65
23.08
16.01
9.98
5.72
3.10
1.29
-0.46
-2.53
-4.93
-7.52
-10.03
-12.24
-13.96
-15.16
-15.91
-16.41
-16.93
-17.74
-19.01
-20.77
-22.84
-24.91
-26.60
-27.46
-27.06
-25.04
-21.34
-16.29
-10.63
-5.26
-0.92
1.99
3.57
4.21
4.45
4.65
5.03
5.66
6.58
7.80
9.24
10.75
12.07
12.99
13.46
13.60
13.68
13.97
14.58
15.44
16.40
17.21
17.74
17.99
18.19
18.61
19.43
20.69
22.11
23.25
23.63
22.90
20.96
17.97
14.33
10.54
7.03
3.87
0.71
-3.32
-9.36
-18.38
-30.59
-45.18
-60.50
-74.63
-86.12
-94.53
-100.26
-104.18
-106.99
-108.98
-110.02
-109.80
-108.02
-104.49
-99.23
-92.64
-85.68
-79.81
-76.69
-77.63
-82.94
-91.68
-101.84
-110.86
-116.35
-116.69
-111.42
-101.45
-88.79
-75.85
-64.62
-55.87
-48.89
-41.90
-33.05
-21.29
-6.74
9.53
26.13
41.81
55.62
66.77
74.45
77.99
77.22
72.82
66.26
59.41
53.80
50.14
48.09
46.60
44.46
40.87
35.73
29.59
23.31
17.73
13.34
10.13
7.74
5.49
2.69
-1.21
-6.38
-12.57
-18.99
-24.53
-27.92
-28.10
-24.49
-17.17
-6.93
4.88
16.54
26.38
33.11
36.19
35.92
33.30
29.72
26.45
24.32
23.64
24.26
25.74
27.57
29.21
30.15
29.93
28.30
25.33
21.47
17.45
14.03
11.66
10.32
9.49
8.38
6.11
2.01
-4.21
-12.33
-21.54
-30.55
-37.81
-42.01
-42.45
-39.42
-34.14
-28.32
-23.57
-20.72
-19.63
-19.41
-18.90
-17.36
-14.79
-11.85
-9.46
-8.27
-8.30
-8.87
-8.70
-6.17
0.43
12.50
30.66
54.30
81.35
108.52
132.18
149.51
159.31
162.13
159.67
153.67
145.13
134.11
120.42
104.51
88.14
74.09
65.26
63.35
68.04
76.91
86.33
92.82
94.19
90.03
81.40
69.91
56.89
42.91
27.97
12.05
-4.32
-19.94
-33.33
-43.30
-49.48
-52.42
-53.27
-53.29
-53.33
-53.63
-54.01
-54.11
-53.71
-52.89
-51.91
-51.15
-50.85
-51.10
-51.78
-52.67
-53.54
-54.14
-54.17
-53.28
-51.08
-47.21
-41.55
-34.28
-25.94
-17.25
-8.93
-1.53
4.59
9.28
12.54
14.52
15.54
16.12
16.77
17.84
19.34
20.88
21.81
21.49
19.47
15.66
10.33
3.97
-2.81
-9.40
-15.31
-20.34
-24.54
-28.34
-32.30
-36.94
-42.48
-48.58
-54.47
-59.15
-61.67
-61.56
-59.02
-54.89
-50.28
-46.23
-43.17
-40.92
-38.82
-36.10
-32.22
-27.08
-20.99
-14.44
-7.84
-1.30
5.34
12.33
19.82
27.66
35.47
42.72
48.88
53.50
56.26
57.00
55.71
52.64
48.23
43.01
37.38
31.49
25.25
18.48
11.34
4.43
-1.23
-4.66
-5.38
-3.64
-0.39
3.18
5.99
7.50
7.68
6.94
5.84
4.92
4.54
4.75
5.50
6.65
8.17
10.06
12.34
14.74
16.76
17.74
17.15
14.93
11.63
8.25
5.87
5.24
6.54
9.51
13.66
18.51
23.70
28.81
33.32
36.49
37.63
36.35
32.85
27.93
22.70
18.19
14.93
12.93
11.89
11.56
11.96
13.33
15.80
18.99
21.93
23.41
22.60
19.55
15.27
11.31
8.99
8.78
10.10
11.69
12.24
10.99
7.95
3.74
-0.88
-5.41
-9.80
-14.33
-19.25
-24.61
-30.11
-35.25
-39.45
-42.08
-42.51
-40.07
-34.32
-25.29
-13.86
-1.61
9.56
18.18
23.75
26.73
28.09
28.58
28.24
26.55
22.94
17.44
10.87
4.56
-0.42
-3.78
-6.08
-8.33
-11.32
-15.03
-18.71
-21.32
-22.19
-21.49
-20.25
-19.85
-21.46
-25.47
-31.42
-38.26
-44.77
-49.81
-52.56
-52.43
-49.25
-43.39
-35.84
-27.99
-21.24
-16.38
-13.16
-10.47
-7.01
-2.01
4.25
10.60
15.65
18.50
19.18
18.49
17.39
16.49
15.73
14.57
12.42
9.17
5.34
1.97
0.22
0.84
3.84
8.38
13.03
16.22
16.79
14.35
9.30
2.60
-4.65
-11.57
-17.51
-22.06
-24.82
-25.51
-24.08
-20.94
-16.98
-13.31
-10.84
-9.94
-10.46
-11.86
-13.60
-15.24
-16.31
-16.12
-13.76
-8.46
-0.05
10.62
21.85
31.57
38.12
40.74
39.70
35.90
30.40
24.05
17.44
10.98
4.99
-0.28
-4.82
-8.84
-12.64
-16.39
-19.95
-22.97
-25.01
-25.86
-25.60
-24.63
-23.36
-22.06
-20.75
-19.26
-17.39
-15.01
-12.07
-8.54
-4.27
0.87
6.85
13.30
19.55
24.91
28.93
31.69
33.82
36.21
39.57
44.11
49.40
54.57
58.69
60.99
61.15
59.18
55.37
50.15
44.11
37.96
32.45
28.22
25.52
24.14
23.46
22.78
21.75
20.55
19.73
19.78
20.70
21.80
22.00
20.21
15.91
9.26
0.92
-8.20
-17.30
-25.77
-33.17
-39.12
-43.30
-45.44
-45.41
-43.42
-39.95
-35.87
-32.24
-30.16
-30.39
-33.18
-38.12
-44.33
-50.72
-56.21
-60.04
-61.66
-60.71
-56.77
-49.52
-38.86
-25.20
-9.68
6.01
19.99
30.80
37.70
40.81
40.84
38.60
34.82
29.96
24.39
18.45
12.55
6.94
1.64
-3.51
-8.70
-13.96
-19.20
-24.40
-29.83
-36.13
-44.03
-53.99
-65.80
-78.56
-90.88
-101.32
-108.66
-112.20
-111.82
-107.90
-101.24
-92.82
-83.58
-74.08
-64.38
-54.11
-42.76
-30.02
-16.02
-1.36
13.16
26.66
38.42
47.96
54.99
59.47
61.65
61.97
61.03
59.46
57.83
56.58
55.98
56.00
56.21
55.81
53.80
49.34
42.22
32.99
23.01
14.08
7.99
6.05
8.71
15.33
24.32
33.55
40.95
45.20
46.08
44.44
41.63
38.84
36.65
35.01
33.54
32.00
30.40
28.90
27.57
26.12
24.01
20.61
15.52
8.80
0.96
-7.18
-14.70
-20.83
-25.16
-27.64
-28.61
-28.60
-28.17
-27.76
-27.68
-28.27
-29.96
-33.11
-37.88
-43.87
-50.08
-55.12
-57.71
-57.18
-53.74
-48.42
-42.64
-37.72
-34.56
-33.48
-34.34
-36.76
-40.24
-44.31
-48.51
-52.46
-55.77
-58.16
-59.27
-58.80
-56.49
-52.25
-46.24
-38.86
-30.75
-22.69
-15.51
-10.00
-6.70
-5.76
-6.77
-8.86
-10.90
-11.81
-10.98
-8.29
-4.05
1.30
7.41
14.11
21.28
28.67
35.76
41.83
46.25
48.66
49.13
48.02
45.85
43.12
40.32
37.92
36.56
36.93
39.46
44.00
49.57
54.51
56.96
55.62
50.22
41.66
31.66
22.20
14.87
10.46
8.89
9.22
10.07
9.95
7.78
3.19
-3.42
-10.94
-18.02
-23.50
-26.77
-27.70
-26.62
-23.95
-20.21
-15.94
-11.82
-8.50
-6.49
-5.90
-6.42
-7.47
-8.44
-9.00
-9.18
-9.24
-9.50
-10.16
-11.14
-12.18
-12.93
-13.20
-12.93
-12.34
-11.74
-11.46
-11.75
-12.77
-14.46
-16.62
-18.74
-20.05
-19.71
-17.15
-12.39
-6.23
-0.07
4.59
6.82
6.63
4.93
2.98
1.79
1.65
2.14
2.58
2.53
2.09
1.74
2.07
3.25
4.98
6.62
7.54
7.50
6.70
5.70
4.97
4.67
4.61
4.36
3.53
1.99
-0.09
-2.35
-4.41
-5.98
-6.93
-7.15
-6.50
-4.78
-1.83
2.32
7.33
12.57
17.27
20.76
22.71
23.19
22.53
21.22
19.72
18.34
17.28
16.63
16.35
16.32
16.32
16.13
15.60
14.69
13.48
12.16
10.90
9.81
8.91
8.11
7.28
6.35
5.28
4.11
2.91
1.72
0.51
-0.72
-1.86
-2.69
-2.81
-1.84
0.39
3.70
7.57
11.32
14.32
16.19
16.85
16.41
15.06
12.98
10.32
7.32
4.26
1.51
-0.64
-2.04
-2.76
-3.04
-3.23
-3.61
-4.34
-5.43
-6.75
-8.05
-9.12
-9.84
-10.23
-10.47
-10.78
-11.37
-12.33
-13.64
-15.16
-16.76
-18.28
-19.53
-20.27
-20.20
-19.10
-16.88
-13.77
-10.22
-6.83
-4.08
-2.16
-0.95
-0.15
0.49
1.00
1.17
0.80
-0.12
-1.35
-2.44
-3.00
-2.93
-2.43
-1.88
-1.66
-1.92
-2.67
-3.72
-4.90
-6.02
-6.98
-7.62
-7.93
-8.02
-8.13
-8.63
-9.75
-11.52
-13.68
-15.76
-17.25
-17.71
-16.93
-14.85
-11.67
-7.69
-3.42
0.60
3.87
6.13
7.41
7.99
8.17
8.11
7.82
7.16
6.11
4.80
3.56
2.69
2.31
2.31
2.43
2.45
2.30
2.06
1.87
1.77
1.64
1.30
0.58
-0.54
-2.00
-3.69
-5.53
-7.55
-9.77
-12.10
-14.21
-15.62
-15.78
-14.29
-11.14
-6.71
-1.72
3.01
6.83
9.46
10.98
11.67
11.90
11.88
11.72
11.41
10.97
10.50
10.16
10.06
10.18
10.36
10.37
9.97
9.03
7.66
6.12
4.66
3.44
2.44
1.44
0.10
-1.88
-4.72
-8.40
-12.70
-17.20
-21.28
-24.29
-25.67
-25.12
-22.73
-19.00
-14.69
-10.58
-7.26
-4.98
-3.77
-3.50
-4.10
-5.51
-7.64
-10.22
-12.78
-14.82
-15.97
-16.18
-15.72
-15.03
-14.53
-14.48
-14.99
-15.99
-17.30
-18.66
-19.84
-20.57
-20.74
-20.37
-19.60
-18.69
-17.85
-17.23
-16.89
-16.81
-16.81
-16.63
-15.84
-14.02
-10.88
-6.43
-1.03
4.72
10.19
14.94
18.80
21.82
24.12
25.77
26.79
27.14
26.85
26.02
24.82
23.44
22.15
21.17
20.66
20.61
20.79
20.75
20.09
18.63
16.50
14.16
12.03
10.31
8.92
7.53
5.88
3.84
1.52
-0.96
-3.45
-5.78
-7.68
-8.65
-8.16
-5.81
-1.60
3.99
10.16
16.03
21.01
24.85
27.62
29.47
30.52
30.79
30.32
29.30
28.07
27.07
26.63
26.79
27.27
27.64
27.50
26.68
25.24
23.38
21.30
19.05
16.66
14.13
11.58
9.12
6.78
4.45
1.83
-1.29
-4.95
-8.80
-12.23
-14.54
-15.32
-14.55
-12.70
-10.51
-8.63
-7.49
-7.13
-7.20
-7.39
-7.78
-8.80
-11.00
-14.77
-20.08
-26.48
-33.20
-39.29
-44.06
-47.38
-49.47
-50.72
-51.55
-52.43
-53.78
-55.99
-58.78
-61.78
-64.67
-67.30
-69.59
-71.60
-73.56
-75.81
-78.55
-80.58
-80.91
-79.40
-76.44
-72.14
-66.14
-57.95
-47.41
-34.79
-18.33
2.38
25.53
48.02
67.42
82.85
94.81
104.69
114.56
130.37
155.45
188.34
223.71
255.90
280.95
297.07
304.37
304.56
305.23
311.42
323.04
336.26
347.46
354.90
357.76
354.88
314.94
226.29
104.06
-20.76
-124.60
-198.60
-243.43
-264.11
-267.44
-262.96
-249.81
-227.25
-197.78
-166.46
-137.66
-113.61
-95.05
-81.69
-72.43
-62.25
-48.43
-32.07
-17.01
-6.65
-2.46
-4.16
-10.50
-19.67
-27.25
-30.53
-29.61
-26.63
-23.73
-22.03
-21.82
-22.94
-25.00
-26.40
-26.38
-25.52
-25.02
-25.68
-27.39
-29.58
-31.57
-33.02
-33.49
-33.09
-32.43
-32.22
-32.88
-34.54
-37.15
-40.69
-45.08
-50.08
-55.20
-59.79
-63.19
-64.88
-64.67
-62.67
-59.18
-54.51
-48.85
-42.28
-34.84
-26.63
-17.81
-8.52
1.20
11.39
22.03
32.95
43.63
53.30
61.10
66.39
68.98
69.08
67.10
63.33
57.85
50.55
41.41
30.61
18.56
5.71
-7.50
-20.71
-33.48
-45.29
-55.47
-63.53
-69.30
-73.08
-75.42
-76.93
-77.97
-78.68
-79.15
-79.59
-80.24
-81.31
-82.78
-84.37
-85.72
-86.53
-86.66
-86.08
-84.71
-82.49
-79.39
-75.64
-71.76
-68.49
-66.49
-66.03
-66.85
-68.24
-69.24
-68.89
-66.36
-61.05
-52.74
-41.64
-28.52
-14.53
-0.96
11.15
21.35
29.85
37.46
45.12
53.58
62.96
72.70
81.80
89.14
93.93
95.91
95.32
92.67
88.39
82.68
75.49
66.84
56.98
46.57
36.52
27.54
19.99
13.65
7.86
1.82
-4.99
-12.61
-20.55
-27.91
-33.79
-37.61
-39.37
-39.80
-40.10
-41.64
-45.47
-52.03
-61.11
-71.99
-83.62
-94.93
-104.81
-112.35
-116.82
-117.91
-115.85
-111.19
-104.45
-95.57
-83.75
-67.74
-46.67
-20.81
8.14
37.47
64.44
87.18
105.09
118.61
128.55
135.55
139.73
140.94
139.11
134.55
127.95
120.16
111.97
104.10
97.12
91.52
87.74
85.95
85.98
87.22
88.74
89.52
88.81
86.27
82.12
77.00
71.71
67.00
63.37
61.09
60.08
60.02
60.27
60.05
58.58
55.26
49.86
42.57
33.92
24.73
16.00
8.92
4.75
4.60
9.10
18.15
30.76
45.35
60.11
73.45
84.36
92.43
97.75
100.62
101.28
99.76
95.91
89.68
81.44
72.16
63.25
56.07
51.43
49.23
48.59
48.34
47.63
46.15
44.18
42.16
40.35
38.72
37.01
34.84
31.78
27.19
20.30
10.45
-2.51
-17.92
-34.39
-50.11
-63.44
-73.26
-79.15
-81.28
-80.23
-76.94
-72.65
-68.85
-67.00
-68.14
-72.48
-79.35
-87.29
-94.56
-99.56
-101.12
-98.75
-92.68
-83.87
-73.70
-63.59
-54.61
-47.22
-41.25
-36.28
-32.10
-28.79
-26.67
-25.83
-25.96
-26.25
-25.89
-24.52
-22.49
-20.86
-20.80
-23.07
-27.59
-33.54
-39.63
-44.75
-48.27
-50.13
-50.74
-50.61
-50.16
-49.58
-48.98
-48.39
-47.99
-48.09
-49.02
-50.91
-53.57
-56.46
-58.90
-60.26
-60.27
-59.18
-57.69
-56.76
-57.25
-59.58
-63.47
-68.16
-72.69
-76.32
-78.81
-80.38
-81.42
-82.26
-82.94
-83.30
-83.14
-82.19
-80.12
-76.48
-70.74
-62.61
-52.54
-41.71
-31.89
-24.77
-21.21
-20.89
-22.46
-24.21
-24.68
-23.13
-19.54
-14.29
-7.88
-0.62
7.27
15.64
24.23
32.74
40.71
47.70
53.32
57.30
59.53
60.09
59.14
56.78
53.02
47.84
41.35
33.97
26.54
20.21
16.14
15.19
17.59
22.97
30.47
39.11
48.11
57.05
65.74
74.00
81.52
87.80
92.26
94.57
94.69
92.88
89.61
85.40
80.71
76.07
71.94
68.64
66.21
64.26
62.19
59.36
55.44
50.51
44.95
39.26
33.81
28.81
24.31
20.32
16.74
13.40
10.10
6.67
3.09
-0.38
-3.25
-4.90
-4.90
-3.17
-0.04
3.82
7.64
10.79
12.88
13.78
13.54
12.34
10.41
8.03
5.56
3.34
1.71
0.84
0.66
0.94
1.35
1.52
1.21
0.32
-1.04
-2.60
-4.04
-5.10
-5.77
-6.26
-7.02
-8.39
-10.53
-13.26
-16.13
-18.60
-20.20
-20.67
-19.89
-17.96
-15.07
-11.52
-7.68
-3.88
-0.45
2.42
4.58
5.95
6.53
6.36
5.63
4.60
3.58
2.77
2.22
1.78
1.25
0.51
-0.40
-1.36
-2.15
-2.64
-2.88
-2.98
-3.09
-3.39
-4.00
-4.98
-6.35
-8.04
-9.89
-11.70
-13.27
-14.48
-15.22
-15.38
-14.73
-13.06
-10.27
-6.47
-2.07
2.34
6.18
9.13
11.15
12.43
13.16
13.43
13.16
12.27
10.86
9.24
7.94
7.41
7.90
9.25
10.98
12.48
13.22
12.99
11.89
10.37
8.97
8.24
8.45
9.46
10.78
11.71
11.74
10.76
9.18
7.81
7.50
8.86
11.99
16.47
21.38
25.43
27.16
25.22
18.90
8.49
-4.35
-16.94
-26.36
-30.59
-29.32
-24.10
-17.56
-12.04
-8.68
-7.08
-5.97
-4.23
-1.75
0.51
1.19
-0.62
-4.77
-10.08
-14.99
-18.25
-19.32
-18.36
-15.76
-11.77
-6.30
0.81
9.47
18.97
28.04
35.20
39.23
39.69
37.07
32.59
27.73
23.70
21.06
19.64
18.71
17.34
14.74
10.63
5.20
-0.93
-7.07
-12.63
-17.26
-20.89
-23.52
-25.17
-25.88
-25.87
-25.49
-25.26
-25.56
-26.57
-28.06
-29.62
-30.81
-31.42
-31.52
-31.25
-30.81
-30.25
-29.56
-28.78
-28.07
-27.77
-28.18
-29.44
-31.39
-33.53
-35.20
-35.76
-34.83
-32.35
-28.58
-24.04
-19.34
-14.97
-11.33
-8.62
-6.92
-6.25
-6.57
-7.77
-9.53
-11.41
-12.91
-13.61
-13.36
-12.30
-10.80
-9.28
-8.09
-7.44
-7.35
-7.79
-8.67
-9.87
-11.29
-12.80
-14.27
-15.65
-16.86
-17.84
-18.54
-18.98
-19.29
-19.71
-20.46
-21.52
-22.56
-22.96
-22.10
-19.64
-15.67
-10.79
-5.86
-1.71
1.05
2.19
1.77
0.08
-2.55
-5.69
-8.92
-11.79
-13.86
-14.84
-14.64
-13.45
-11.70
-9.91
-8.50
-7.61
-7.02
-6.24
-4.86
-2.68
0.13
3.18
6.07
8.56
10.62
12.32
13.66
14.51
14.62
13.84
12.29
10.45
8.96
8.49
9.39
11.62
14.69
17.87
20.38
21.69
21.67
20.57
18.89
17.05
15.25
13.39
11.25
8.62
5.56
2.34
-0.65
-3.10
-4.89
-6.10
-6.91
-7.49
-7.96
-8.40
-8.90
-9.51
-10.28
-11.14
-11.96
-12.59
-12.88
-12.86
-12.60
-12.28
-11.99
-11.68
-11.18
-10.20
-8.53
-6.05
-2.83
0.86
4.60
8.03
10.85
12.97
14.48
15.53
16.28
16.76
16.95
16.72
16.00
14.81
13.27
11.63
10.09
8.93
8.25
8.06
8.17
8.25
7.93
7.00
5.47
3.65
1.96
0.79
0.38
0.77
1.90
3.63
5.74
7.87
9.57
10.34
9.94
8.45
6.41
4.57
3.65
3.96
5.39
7.37
9.17
10.14
9.93
8.55
6.31
3.68
1.11
-1.09
-2.73
-3.75
-4.13
-3.93
-3.27
-2.42
-1.67
-1.34
-1.55
-2.28
-3.32
-4.48
-5.63
-6.71
-7.74
-8.69
-9.45
-9.91
-10.01
-9.81
-9.47
-9.31
-9.56
-10.42
-11.82
-13.52
-15.04
-15.84
-15.41
-13.49
-10.20
-6.02
-1.71
1.95
4.39
5.42
5.28
4.46
3.54
2.92
2.71
2.74
2.71
2.37
1.69
0.80
-0.02
-0.57
-0.83
-0.99
-1.40
-2.33
-3.81
-5.55
-7.14
-8.18
-8.57
-8.45
-8.16
-7.95
-7.89
-7.83
-7.62
-7.23
-6.78
-6.45
-6.28
-5.98
-5.09
-3.20
-0.14
3.86
8.30
12.57
16.20
18.97
20.90
22.11
22.72
22.88
22.70
22.35
22.05
21.98
22.25
22.87
23.68
24.48
25.06
25.22
24.91
24.14
23.06
21.82
20.55
19.34
18.27
17.31
16.39
15.34
13.93
12.04
9.62
6.75
3.59
0.26
-3.12
-6.47
-9.76
-13.03
-16.45
-20.50
-25.89
-33.46
-43.79
-56.82
-71.67
-86.80
-100.36
-110.70
-116.72
-118.01
-114.83
-107.97
-98.54
-87.75
-76.63
-65.85
-55.69
-46.08
-36.90
-28.18
-20.35
-14.08
-10.03
-8.50
-9.27
-11.62
-14.63
-17.59
-20.28
-23.23
-27.46
-34.01
-43.37
-54.87
-66.66
-76.10
-80.58
-78.25
-68.49
-51.96
-30.37
-6.11
18.14
39.76
56.66
67.72
73.07
73.97
72.38
70.25
68.90
68.95
70.50
73.47
77.76
83.17
89.27
95.41
100.91
105.43
109.07
112.17
114.93
117.15
118.27
117.67
115.01
110.46
104.67
98.44
92.41
86.87
81.70
76.47
70.73
64.17
56.88
49.47
42.90
38.09
35.57
35.12
35.92
36.81
36.87
35.64
33.25
30.10
26.68
23.39
20.48
18.17
16.57
15.72
15.36
15.01
14.05
11.98
8.68
4.33
-0.62
-5.80
-10.92
-15.91
-20.83
-25.79
-30.87
-36.16
-41.70
-47.49
-53.35
-59.01
-64.14
-68.51
-71.99
-74.57
-76.14
-76.49
-75.33
-72.49
-68.14
-62.76
-57.09
-51.81
-47.35
-43.80
-41.00
-38.72
-36.73
-34.85
-32.88
-30.63
-27.96
-24.86
-21.47
-18.04
-14.84
-12.05
-9.76
-8.01
-6.81
-6.20
-6.17
-6.66
-7.51
-8.52
-9.54
-10.54
-11.58
-12.80
-14.31
-16.15
-18.25
-20.43
-22.40
-23.80
-24.30
-23.58
-21.53
-18.17
-13.75
-8.73
-3.66
0.86
4.37
6.63
7.67
7.75
7.22
6.38
5.51
4.80
4.41
4.50
5.14
6.17
7.26
7.92
7.82
6.87
5.34
3.66
2.19
1.11
0.33
-0.32
-1.01
-1.88
-3.08
-4.76
-7.10
-10.11
-13.57
-16.98
-19.73
-21.16
-20.87
-18.73
-14.89
-9.80
-3.99
1.88
7.22
11.56
14.65
16.50
17.28
17.27
16.72
15.87
14.94
14.17
13.80
13.97
14.69
15.77
16.86
17.59
17.67
17.01
15.63
13.70
11.36
8.72
5.93
3.20
0.81
-0.96
-2.04
-2.61
-3.09
-4.00
-5.76
-8.44
-11.77
-15.17
-17.90
-19.31
-18.91
-16.54
-12.41
-7.05
-1.19
4.42
9.24
12.98
15.60
17.18
17.89
17.97
17.68
17.39
17.40
17.83
18.59
19.36
19.81
19.71
19.12
18.17
17.07
15.91
14.70
13.40
12.05
10.70
9.44
8.28
7.19
6.09
4.92
3.64
2.25
0.69
-1.17
-3.44
-6.17
-9.22
-12.22
-14.59
-15.79
-15.44
-13.46
-10.13
-5.95
-1.51
2.62
6.02
8.34
9.42
9.33
8.35
7.01
5.87
5.40
5.79
6.95
8.65
10.51
12.22
13.53
14.30
14.46
14.08
13.32
12.45
11.66
11.09
10.71
10.34
9.74
8.68
7.09
5.04
2.78
0.64
-1.11
-2.45
-3.61
-5.00
-6.96
-9.55
-12.42
-14.83
-15.98
-15.32
-12.74
-8.66
-3.87
0.80
4.65
7.32
8.75
9.07
8.59
7.66
6.69
6.08
6.17
7.14
8.85
10.96
12.93
14.23
14.59
13.97
12.66
11.04
9.49
8.21
7.24
6.44
5.54
4.34
2.74
0.88
-1.01
-2.59
-3.71
-4.44
-5.06
-5.98
-7.46
-9.53
-11.96
-14.38
-16.41
-17.74
-18.18
-17.61
-16.03
-13.55
-10.38
-6.86
-3.30
0.06
3.08
5.69
7.83
9.39
10.32
10.70
10.70
10.60
10.59
10.78
11.08
11.40
11.63
11.76
11.76
11.58
11.14
10.39
9.40
8.32
7.31
6.41
5.51
4.37
2.79
0.70
-1.80
-4.45
-7.02
-9.27
-11.11
-12.54
-13.68
-14.70
-15.74
-16.88
-18.07
-19.18
-20.00
-20.33
-19.95
-18.66
-16.34
-13.06
-9.06
-4.76
-0.70
2.67
5.09
6.48
6.98
6.80
6.27
5.64
5.21
5.17
5.56
6.25
6.95
7.44
7.59
7.47
7.18
6.84
6.44
5.92
5.27
4.55
3.95
3.57
3.42
3.26
2.84
1.92
0.52
-1.19
-2.94
-4.53
-5.89
-7.08
-8.18
-9.27
-10.39
-11.56
-12.81
-14.19
-15.60
-16.81
-17.38
-16.85
-14.90
-11.61
-7.43
-3.19
0.27
2.40
3.16
3.01
2.64
2.61
3.10
3.94
4.72
5.14
5.14
4.86
4.49
4.13
3.81
3.43
2.97
2.52
2.21
2.27
2.82
3.89
5.33
6.80
7.90
8.28
7.84
6.77
5.49
4.41
3.75
3.47
3.31
2.99
2.31
1.26
-0.11
-1.73
-3.59
-5.67
-7.81
-9.68
-10.83
-10.85
-9.59
-7.22
-4.19
-1.10
1.52
3.41
4.52
5.03
5.16
5.11
4.92
4.65
4.30
3.93
3.71
3.72
4.03
4.56
5.15
5.54
5.49
4.81
3.46
1.58
-0.55
-2.50
-3.88
-4.45
-4.24
-3.57
-2.91
-2.70
-3.14
-4.11
-5.28
-6.28
-6.93
-7.32
-7.71
-8.41
-9.59
-11.19
-12.96
-14.52
-15.45
-15.39
-14.18
-11.87
-8.74
-5.23
-1.78
1.24
3.70
5.55
6.80
7.43
7.43
6.92
6.15
5.51
5.28
5.50
5.92
6.11
5.77
4.84
3.60
2.43
1.67
1.41
1.47
1.54
1.37
0.89
0.20
-0.55
-1.30
-2.10
-3.10
-4.42
-6.02
-7.72
-9.34
-10.82
-12.31
-14.02
-16.01
-17.95
-19.24
-19.19
-17.47
-14.22
-10.12
-5.97
-2.44
0.17
1.89
2.86
3.20
2.95
2.22
1.23
0.31
-0.21
-0.23
0.13
0.58
0.79
0.61
0.10
-0.57
-1.21
-1.69
-2.01
-2.34
-2.87
-3.78
-5.13
-6.77
-8.47
-10.00
-11.19
-12.01
-12.54
-12.96
-13.47
-14.28
-15.57
-17.34
-19.35
-21.08
-21.82
-20.91
-18.11
-13.67
-8.31
-2.87
2.06
6.30
10.01
13.40
16.55
19.19
20.93
21.30
20.06
17.22
12.98
7.73
1.92
-3.79
-8.67
-11.94
-13.01
-11.68
-8.28
-3.43
2.14
7.81
13.23
18.17
22.47
25.97
28.52
30.05
30.57
30.11
28.60
25.98
22.37
18.25
14.54
12.21
11.96
13.76
16.90
20.26
22.91
24.50
25.34
26.21
27.97
31.10
35.65
41.06
46.46
50.79
53.07
52.65
49.34
43.47
35.68
26.71
17.17
7.52
-1.94
-10.88
-19.01
-26.11
-32.13
-37.25
-41.77
-45.89
-49.59
-52.66
-54.76
-55.68
-55.47
-54.43
-53.05
-51.78
-50.97
-50.74
-50.93
-51.16
-50.95
-49.84
-47.58
-44.31
-40.55
-37.10
-34.72
-33.84
-34.37
-35.82
-37.54
-39.03
-40.16
-41.12
-42.26
-43.80
-45.73
-47.83
-49.83
-51.57
-53.11
-54.69
-56.52
-58.73
-61.28
-64.00
-66.68
-69.15
-71.29
-73.06
-74.53
-75.74
-76.69
-77.30
-77.45
-76.97
-75.74
-73.64
-70.45
-65.90
-59.72
-51.70
-41.96
-30.89
-19.08
-7.19
4.37
15.46
26.16
36.60
46.75
56.38
65.22
73.05
79.85
85.72
90.72
94.82
97.89
99.79
100.54
100.33
99.43
98.11
96.47
94.45
91.96
88.92
85.36
81.38
77.08
72.50
67.58
62.26
56.54
50.64
44.97
40.13
36.68
34.98
35.00
36.33
38.34
40.42
42.15
43.34
43.93
43.82
42.89
41.07
38.43
35.27
32.04
29.17
26.99
25.68
25.34
26.10
28.05
31.19
35.15
39.19
42.28
43.35
41.64
37.04
30.04
21.61
12.75
4.21
-3.66
-10.86
-17.51
-23.61
-28.99
-33.40
-36.54
-38.29
-38.58
-37.34
-34.59
-30.40
-25.14
-19.47
-14.27
-10.42
-8.45
-8.36
-9.66
-11.61
-13.55
-15.21
-16.76
-18.67
-21.38
-24.97
-29.06
-32.77
-35.03
-34.84
-31.54
-25.05
-15.92
-5.38
4.68
11.94
14.34
10.83
2.17
-9.00
-18.88
-23.97
-22.53
-15.25
-4.76
5.69
13.79
18.93
21.98
24.24
26.39
28.05
28.16
25.72
20.45
12.88
3.93
-5.50
-14.91
-24.04
-32.65
-40.29
-46.32
-50.06
-50.95
-48.53
-42.45
-32.50
-18.82
-2.27
15.57
32.64
47.13
58.08
65.61
70.61
73.99
76.00
76.06
73.06
66.06
54.88
40.31
23.85
7.25
-7.91
-20.45
-29.64
-35.26
-37.44
-36.67
-33.56
-28.69
-22.52
-15.36
-7.59
0.30
7.66
13.95
19.03
23.28
27.48
32.42
38.39
45.05
51.53
56.91
60.69
62.89
63.85
63.82
62.68
60.04
55.51
49.22
41.82
34.31
27.47
21.31
14.96
7.02
-3.72
-17.55
-33.48
-49.41
-62.82
-71.73
-75.30
-74.00
-69.23
-62.66
-55.49
-48.23
-40.86
-33.27
-25.59
-18.22
-11.51
-5.49
0.34
6.70
14.03
22.07
29.76
35.55
38.01
36.31
30.55
21.59
10.78
-0.42
-10.69
-18.95
-24.52
-27.23
-27.38
-25.68
-22.84
-19.34
-15.29
-10.59
-5.29
0.26
5.26
8.93
10.90
11.37
10.98
10.36
9.74
8.81
7.03
4.14
0.42
-3.30
-6.00
-6.89
-5.69
-2.62
1.86
7.27
13.18
19.20
24.85
29.54
32.67
33.83
33.00
30.57
27.24
23.67
20.27
16.99
13.41
8.99
3.29
-3.90
-12.61
-22.87
-34.64
-47.76
-61.59
-74.94
-86.17
-93.56
-95.92
-92.93
-85.21
-74.16
-61.50
-48.96
-37.91
-29.25
-23.31
-19.87
-18.27
-17.58
-16.89
-15.61
-13.65
-11.44
-9.68
-8.86
-8.90
-9.20
-8.89
-7.44
-4.93
-1.90
1.18
4.44
8.68
15.05
24.17
35.62
47.80
58.45
65.44
67.45
64.22
56.44
45.56
33.43
22.03
13.05
7.55
5.55
6.07
7.54
8.47
8.04
6.47
4.88
4.79
7.50
13.43
21.86
30.97
38.38
41.91
40.30
33.60
23.09
10.84
-0.97
-10.67
-17.35
-20.90
-21.83
-21.06
-19.80
-19.29
-20.61
-24.33
-30.33
-37.83
-45.74
-52.95
-58.78
-63.00
-65.85
-67.73
-68.97
-69.65
-69.54
-68.11
-64.83
-59.44
-52.17
-43.75
-35.14
-27.09
-19.84
-13.16
-6.74
-0.59
4.66
8.14
9.18
7.83
4.96
1.90
-0.24
-0.93
-0.34
0.96
2.36
3.47
4.10
4.17
3.51
1.96
-0.49
-3.59
-6.76
-9.24
-10.36
-9.78
-7.66
-4.69
-1.95
-0.51
-0.95
-3.01
-5.54
-6.85
-5.42
-0.57
7.33
16.95
26.66
35.16
41.78
46.61
50.18
53.07
55.68
58.10
60.12
61.37
61.33
59.60
55.98
50.64
44.10
37.08
30.35
24.44
19.59
15.74
12.61
9.80
6.88
3.43
-0.82
-5.96
-11.81
-17.92
-23.75
-28.84
-33.01
-36.44
-39.53
-42.58
-45.49
-47.68
-48.24
-46.36
-41.66
-34.47
-25.67
-16.37
-7.45
0.57
7.57
13.63
18.74
22.81
25.71
27.36
27.93
27.77
27.32
26.99
26.96
27.27
27.73
28.08
28.06
27.44
26.06
23.87
20.89
17.31
13.34
9.32
5.54
2.24
-0.55
-2.98
-5.43
-8.35
-12.06
-16.68
-21.92
-27.16
-31.52
-34.07
-34.12
-31.36
-25.97
-18.70
-10.53
-2.50
4.60
10.36
14.77
18.06
20.49
22.27
23.49
24.22
24.55
24.65
24.61
24.50
24.20
23.54
22.36
20.65
18.58
16.38
14.27
12.23
10.10
7.58
4.47
0.79
-3.19
-7.03
-10.33
-12.90
-14.83
-16.43
-18.20
-20.53
-23.62
-27.33
-31.13
-34.25
-35.76
-34.91
-31.32
-25.17
-17.15
-8.33
0.19
7.54
13.21
17.12
19.50
20.77
21.38
21.66
21.78
21.75
21.55
21.22
20.92
20.80
20.94
21.24
21.43
21.23
20.39
18.93
16.99
14.78
12.49
10.15
7.70
5.06
2.22
-0.73
-3.63
-6.33
-8.78
-11.14
-13.71
-16.85
-20.69
-24.97
-28.97
-31.67
-32.15
-29.97
-25.34
-19.07
-12.15
-5.47
0.51
5.65
10.00
13.54
16.17
17.71
18.13
17.60
16.57
15.57
15.02
15.09
15.60
16.13
16.23
15.64
14.42
12.83
11.26
9.88
8.65
7.32
5.58
3.29
0.56
-2.31
-4.92
-6.97
-8.36
-9.24
-9.94
-10.93
-12.63
-15.30
-18.90
-23.01
-26.89
-29.74
-30.82
-29.68
-26.32
-21.06
-14.54
-7.47
-0.59
5.55
10.50
14.02
16.10
16.86
16.65
15.87
15.01
14.39
14.22
14.47
14.95
15.38
15.49
15.15
14.39
13.38
12.27
11.20
10.11
8.88
7.32
5.34
3.00
0.48
-2.00
-4.24
-6.14
-7.71
-9.02
-10.19
-11.43
-12.99
-15.13
-17.94
-21.22
-24.41
-26.71
-27.28
-25.60
-21.70
-16.10
-9.68
-3.34
2.30
6.93
10.51
13.07
14.58
14.96
14.28
12.82
11.13
9.87
9.57
10.32
11.82
13.42
14.45
14.56
13.74
12.31
10.72
9.27
8.07
6.96
5.74
4.19
2.28
0.11
-2.11
-4.19
-6.05
-7.74
-9.43
-11.26
-13.35
-15.68
-18.20
-20.80
-23.31
-25.42
-26.68
-26.60
-24.79
-21.16
-16.09
-10.29
-4.56
0.44
4.43
7.41
9.54
10.94
11.66
11.66
11.01
9.95
8.81
8.01
7.80
8.21
9.04
9.94
10.60
10.81
10.57
9.98
9.13
8.11
6.91
5.56
4.11
2.64
1.21
-0.15
-1.46
-2.74
-4.00
-5.28
-6.72
-8.50
-10.82
-13.77
-17.17
-20.52
-23.13
-24.32
-23.71
-21.30
-17.45
-12.70
-7.57
-2.44
2.37
6.55
9.72
11.57
11.91
10.91
9.08
7.09
5.63
5.11
5.54
6.72
8.22
9.61
10.57
10.96
10.77
10.13
9.22
8.13
6.85
5.30
3.44
1.36
-0.69
-2.47
-3.88
-5.02
-6.18
-7.64
-9.50
-11.69
-13.97
-16.18
-18.22
-20.05
-21.57
-22.45
-22.24
-20.56
-17.27
-12.61
-7.22
-1.91
2.59
5.82
7.68
8.35
8.17
7.42
6.34
5.10
3.90
3.01
2.70
3.11
4.13
5.47
6.74
7.65
8.08
8.03
7.53
6.60
5.22
3.45
1.47
-0.48
-2.24
-3.78
-5.23
-6.79
-8.58
-10.59
-12.72
-14.84
-16.83
-18.49
-19.56
-19.66
-18.51
-16.01
-12.38
-8.08
-3.63
0.52
4.14
7.08
9.23
10.51
10.85
10.33
9.18
7.77
6.44
5.43
4.84
4.64
4.74
5.03
5.40
5.67
5.68
5.27
4.39
3.06
1.40
-0.49
-2.49
-4.47
-6.32
-7.90
-9.15
-10.12
-11.04
-12.19
-13.80
-15.87
-18.11
-20.01
-21.00
-20.64
-18.75
-15.45
-11.12
-6.24
-1.36
3.06
6.61
9.04
10.23
10.25
9.33
7.89
6.41
5.34
4.97
5.29
6.10
7.06
7.87
8.34
8.46
8.28
7.84
7.10
6.01
4.52
2.74
0.85
-0.94
-2.47
-3.75
-4.88
-6.09
-7.58
-9.50
-11.87
-14.53
-17.17
-19.34
-20.57
-20.48
-18.88
-15.83
-11.68
-6.91
-2.08
2.32
5.91
8.49
10.00
10.53
10.24
9.39
8.25
7.14
6.32
5.95
6.06
6.52
7.15
7.72
8.13
8.30
8.23
7.92
7.34
6.41
5.09
3.44
1.61
-0.19
-1.80
-3.18
-4.41
-5.69
-7.21
-9.12
-11.36
-13.69
-15.69
-16.87
-16.77
-15.13
-12.02
-7.75
-2.93
1.81
5.90
9.00
10.99
11.90
11.88
11.11
9.90
8.58
7.54
7.07
7.29
8.06
9.05
9.87
10.17
9.80
8.82
7.40
5.76
4.10
2.52
1.07
-0.19
-1.30
-2.33
-3.37
-4.58
-6.09
-7.96
-10.11
-12.32
-14.25
-15.56
-15.97
-15.32
-13.60
-10.94
-7.57
-3.82
-0.05
3.38
6.15
8.02
8.92
8.99
8.53
7.91
7.42
7.13
6.91
6.58
6.03
5.38
4.87
4.79
5.16
5.73
6.06
5.72
4.59
2.86
0.91
-0.85
-2.25
-3.37
-4.42
-5.70
-7.35
-9.34
-11.42
-13.17
-14.16
-14.03
-12.68
-10.21
-6.96
-3.33
0.31
3.61
6.34
8.26
9.21
9.14
8.19
6.78
5.41
4.58
4.47
4.97
5.74
6.36
6.56
6.28
5.65
4.86
4.06
3.31
2.60
1.87
1.09
0.19
-0.82
-1.99
-3.35
-4.90
-6.67
-8.59
-10.51
-12.13
-13.08
-13.00
-11.64
-9.08
-5.66
-1.94
1.53
4.39
6.50
7.89
8.69
9.00
8.93
8.61
8.19
7.81
7.56
7.41
7.29
7.18
7.12
7.16
7.31
7.40
7.21
6.51
5.23
3.53
1.69
-0.03
-1.47
-2.65
-3.66
-4.59
-5.53
-6.58
-7.81
-9.24
-10.74
-11.99
-12.58
-12.14
-10.54
-7.94
-4.69
-1.23
2.06
4.90
7.09
8.44
8.86
8.40
7.31
6.01
5.00
4.62
4.98
5.92
7.07
8.07
8.63
8.59
7.97
6.90
5.58
4.27
3.19
2.46
2.05
1.86
1.64
1.12
0.09
-1.58
-3.82
-6.46
-9.15
-11.47
-13.06
-13.61
-12.99
-11.20
-8.45
-5.12
-1.70
1.31
3.55
4.94
5.63
5.94
6.14
6.37
6.65
6.94
7.18
7.39
7.52
7.53
7.31
6.86
6.21
5.50
4.80
4.10
3.22
2.06
0.63
-0.86
-2.11
-2.90
-3.18
-3.12
-2.94
-2.89
-3.12
-3.76
-4.85
-6.37
-8.15
-9.87
-11.07
-11.37
-10.59
-8.84
-6.45
-3.80
-1.21
1.12
3.07
4.49
5.24
5.23
4.60
3.69
2.95
2.69
2.93
3.40
3.70
3.51
2.82
1.80
0.76
-0.07
-0.60
-0.87
-0.91
-0.78
-0.50
-0.16
0.12
0.19
-0.05
-0.60
-1.41
-2.36
-3.43
-4.61
-5.90
-7.32
-8.79
-10.19
-11.30
-11.89
-11.75
-10.77
-8.96
-6.55
-3.84
-1.18
1.12
2.85
3.93
4.33
4.16
3.59
2.90
2.38
2.25
2.63
3.45
4.50
5.51
6.21
6.46
6.25
5.67
4.89
4.02
3.15
2.29
1.46
0.70
0.07
-0.41
-0.84
-1.42
-2.31
-3.55
-4.97
-6.29
-7.31
-8.07
-8.83
-9.92
-11.48
-13.32
-14.92
-15.71
-15.32
-13.74
-11.31
-8.52
-5.79
-3.36
-1.24
0.61
2.22
3.51
4.34
4.61
4.39
3.92
3.53
3.47
3.82
4.46
5.16
5.71
5.99
6.01
5.80
5.33
4.59
3.58
2.45
1.45
0.81
0.63
0.77
0.92
0.74
0.12
-0.84
-1.95
-3.02
-4.02
-5.04
-6.20
-7.46
-8.74
-9.93
-11.02
-12.12
-13.26
-14.29
-14.80
-14.30
-12.44
-9.32
-5.49
-1.73
1.29
3.25
4.26
4.64
4.69
4.54
4.21
3.66
3.05
2.62
2.64
3.15
3.99
4.84
5.43
5.69
5.76
5.85
6.02
6.18
6.09
5.58
4.66
3.51
2.42
1.57
1.00
0.60
0.18
-0.40
-1.15
-2.04
-2.97
-3.83
-4.59
-5.26
-5.87
-6.47
-7.07
-7.67
-8.26
-8.83
-9.34
-9.71
-9.80
-9.45
-8.53
-7.02
-5.05
-2.92
-0.94
0.64
1.71
2.31
2.56
2.59
2.50
2.41
2.41
2.61
3.10
3.89
4.88
5.82
6.43
6.54
6.08
5.24
4.24
3.27
2.44
1.74
1.12
0.58
0.14
-0.16
-0.40
-0.67
-1.15
-1.89
-2.82
-3.78
-4.57
-5.09
-5.42
-5.74
-6.28
-7.17
-8.39
-9.79
-11.09
-11.98
-12.26
-11.79
-10.60
-8.86
-6.78
-4.57
-2.45
-0.58
0.92
1.97
2.61
2.96
3.22
3.55
4.05
4.74
5.52
6.32
7.04
7.64
8.08
8.29
8.19
7.69
6.82
5.67
4.41
3.24
2.35
1.76
1.45
1.31
1.20
0.99
0.59
-0.06
-0.98
-2.06
-3.18
-4.23
-5.13
-5.90
-6.62
-7.43
-8.39
-9.50
-10.60
-11.47
-11.81
-11.39
-10.13
-8.16
-5.81
-3.49
-1.56
-0.17
0.74
1.41
2.04
2.67
3.21
3.47
3.44
3.26
3.25
3.65
4.48
5.49
6.29
6.59
6.30
5.63
4.93
4.51
4.43
4.51
4.45
4.03
3.23
2.24
1.29
0.54
0.01
-0.39
-0.77
-1.21
-1.74
-2.40
-3.25
-4.37
-5.73
-7.25
-8.71
-9.91
-10.70
-11.02
-10.83
-10.15
-8.97
-7.34
-5.38
-3.30
-1.27
0.54
2.04
3.16
3.85
4.10
3.94
3.50
3.00
2.67
2.71
3.17
4.03
5.12
6.26
7.20
7.77
7.88
7.54
6.89
6.05
5.17
4.36
3.69
3.22
3.02
3.08
3.26
3.33
3.01
2.17
0.88
-0.56
-1.82
-2.71
-3.30
-3.92
-4.92
-6.51
-8.61
-10.86
-12.82
-14.06
-14.33
-13.58
-11.88
-9.39
-6.39
-3.20
-0.21
2.23
3.88
4.68
4.77
4.42
3.95
3.70
3.90
4.63
5.81
7.18
8.41
9.21
9.40
8.98
8.14
7.07
6.00
5.04
4.29
3.79
3.55
3.51
3.49
3.30
2.75
1.78
0.50
-0.90
-2.20
-3.28
-4.18
-4.99
-5.81
-6.72
-7.70
-8.69
-9.63
-10.40
-10.83
-10.77
-10.06
-8.70
-6.82
-4.67
-2.52
-0.56
1.11
2.45
3.45
4.03
4.15
3.87
3.37
3.03
3.16
3.88
5.05
6.31
7.26
7.62
7.36
6.68
5.87
5.16
4.65
4.29
3.94
3.50
2.97
2.41
1.91
1.44
0.91
0.16
-0.92
-2.30
-3.84
-5.41
-6.97
-8.55
-10.25
-11.98
-13.50
-14.43
-14.43
-13.40
-11.54
-9.22
-6.78
-4.41
-2.13
0.05
2.05
3.71
4.82
5.31
5.29
5.04
4.86
4.94
5.29
5.77
6.18
6.38
6.37
6.18
5.89
5.51
5.02
4.36
3.53
2.55
1.46
0.33
-0.82
-1.91
-2.88
-3.61
-4.01
-4.09
-4.03
-4.12
-4.68
-5.95
-7.90
-10.31
-12.79
-14.95
-16.47
-17.13
-16.83
-15.49
-13.13
-9.86
-5.96
-1.86
1.96
5.05
7.19
8.33
8.67
8.48
8.00
7.45
6.95
6.63
6.60
6.89
7.40
7.95
8.29
8.24
7.77
7.04
6.34
5.91
5.82
5.92
5.95
5.60
4.69
3.24
1.47
-0.29
-1.72
-2.65
-3.18
-3.56
-4.21
-5.44
-7.37
-9.86
-12.50
-14.68
-15.84
-15.54
-13.70
-10.61
-6.81
-2.95
0.45
3.14
5.08
6.34
7.00
7.10
6.72
6.09
5.56
5.51
6.18
7.49
9.12
10.60
11.58
11.91
11.68
11.11
10.38
9.63
8.87
8.10
7.32
6.50
5.61
4.56
3.30
1.83
0.30
-1.07
-2.11
-2.78
-3.27
-3.89
-5.04
-6.88
-9.29
-11.87
-14.05
-15.33
-15.42
-14.28
-12.06
-9.04
-5.58
-2.05
1.15
3.65
5.19
5.76
5.56
4.99
4.46
4.32
4.72
5.61
6.80
8.04
9.09
9.75
9.91
9.59
8.92
8.07
7.25
6.52
5.85
5.15
4.30
3.34
2.35
1.48
0.78
0.18
-0.50
-1.49
-2.91
-4.73
-6.81
-8.90
-10.79
-12.28
-13.19
-13.33
-12.54
-10.72
-7.95
-4.48
-0.75
2.80
5.78
7.92
9.15
9.46
9.01
8.02
6.81
5.75
5.11
5.01
5.32
5.80
6.12
6.07
5.61
4.85
3.98
3.18
2.60
2.27
2.22
2.35
2.55
2.62
2.44
1.94
1.16
0.22
-0.76
-1.66
-2.44
-3.09
-3.71
-4.44
-5.45
-6.86
-8.63
-10.46
-11.83
-12.12
-10.90
-8.07
-4.01
0.59
4.97
8.56
11.11
12.66
13.47
13.77
13.69
13.27
12.55
11.61
10.71
10.10
9.99
10.40
11.12
11.88
12.42
12.63
12.49
12.07
11.36
10.41
9.35
8.41
7.93
8.10
8.79
9.50
9.55
8.30
5.56
1.57
-3.14
-7.99
-12.58
-16.76
-20.46
-23.52
-25.69
-26.65
-26.22
-24.53
-21.95
-18.98
-15.98
-12.98
-9.70
-5.71
-0.80
4.88
10.63
15.48
18.47
18.98
17.04
13.25
8.56
3.95
0.11
-2.67
-4.46
-5.51
-6.05
-6.26
-6.27
-6.29
-6.52
-7.10
-7.94
-8.71
-9.07
-8.91
-8.59
-8.86
-10.49
-13.88
-18.75
-24.34
-29.78
-34.51
-38.32
-41.10
-42.47
-41.54
-37.23
-28.94
-17.16
-3.57
9.40
19.48
25.47
27.57
27.16
25.99
25.33
25.51
25.99
25.89
24.65
22.47
20.17
18.86
19.29
21.49
24.75
27.94
30.01
30.44
29.24
26.84
23.78
20.70
18.36
17.77
19.84
24.97
32.44
40.40
46.44
48.58
46.27
40.70
34.20
29.12
26.70
26.65
27.48
27.40
25.29
21.03
15.36
9.28
3.52
-1.73
-6.77
-12.05
-17.93
-24.45
-31.40
-38.48
-45.50
-52.44
-59.42
-66.42
-73.03
-78.35
-81.15
-80.56
-76.64
-70.65
-64.56
-59.95
-56.93
-53.85
-48.13
-37.70
-22.47
-4.56
12.55
25.66
33.19
35.46
34.09
30.90
27.09
23.12
19.16
15.54
12.90
11.88
12.73
15.08
17.97
20.25
20.90
19.42
15.94
11.08
5.83
1.28
-1.55
-1.85
0.84
6.37
13.94
22.15
29.32
34.03
35.61
34.32
31.13
27.18
23.28
19.54
15.53
10.58
4.34
-2.98
-10.69
-17.96
-24.21
-29.39
-33.86
-38.15
-42.48
-46.55
-49.59
-50.74
-49.55
-46.20
-41.39
-35.80
-29.51
-21.88
-12.13
-0.07
13.23
25.69
35.19
40.73
43.03
44.12
46.13
49.94
54.68
58.20
58.48
54.70
47.63
38.93
30.26
22.38
15.21
8.31
1.40
-5.34
-11.50
-16.79
-21.34
-25.62
-30.18
-35.29
-40.73
-45.67
-48.70
-48.11
-42.54
-31.65
-16.63
-0.07
14.89
25.78
31.79
33.92
34.09
34.02
34.11
33.53
30.83
25.10
16.63
6.81
-2.53
-10.00
-15.10
-18.25
-20.30
-22.08
-24.04
-26.17
-28.17
-29.73
-30.69
-31.13
-31.24
-31.16
-30.66
-29.15
-25.90
-20.56
-13.58
-6.21
-0.09
3.62
4.87
4.80
5.25
7.79
12.91
19.76
26.64
31.84
34.40
34.38
32.57
29.98
27.38
25.10
23.08
21.07
18.81
16.16
13.20
10.15
7.28
4.71
2.38
0.21
-1.56
-2.09
-0.03
5.86
15.90
28.95
42.44
53.33
59.33
59.87
56.12
50.22
44.13
38.76
33.93
28.85
22.93
16.12
8.87
1.70
-5.19
-12.05
-19.33
-27.31
-35.91
-44.64
-52.75
-59.56
-64.56
-67.63
-68.96
-69.03
-68.37
-67.26
-65.49
-62.34
-56.88
-48.61
-37.90
-26.30
-16.01
-9.06
-6.32
-7.08
-9.35
-10.84
-9.95
-6.36
-0.89
5.14
10.69
15.28
18.87
21.48
22.92
22.84
21.01
17.69
13.57
9.55
6.31
4.00
2.27
0.56
-1.57
-4.22
-7.10
-9.79
-11.91
-13.32
-14.14
-14.61
-14.98
-15.36
-15.63
-15.37
-13.98
-10.93
-6.07
0.01
5.99
10.10
10.90
8.04
2.52
-3.48
-7.53
-7.98
-4.65
1.08
7.05
11.20
12.40
10.67
6.91
2.29
-2.21
-6.09
-9.17
-11.37
-12.58
-12.67
-11.61
-9.60
-7.16
-5.00
-3.79
-3.87
-5.09
-6.82
-8.18
-8.43
-7.25
-4.95
-2.33
-0.28
0.52
-0.14
-2.04
-4.66
-7.39
-9.65
-10.84
-10.44
-8.14
-4.03
1.15
6.21
9.88
11.26
10.29
7.72
4.77
2.68
2.19
3.34
5.62
8.24
10.47
12.01
13.05
14.13
15.85
18.41
21.43
24.00
25.13
24.23
21.45
17.66
13.93
11.02
9.00
7.39
5.57
3.19
0.50
-1.89
-3.33
-3.44
-2.15
0.47
4.46
9.84
16.35
23.30
29.54
33.95
35.94
35.83
34.70
33.75
33.62
34.09
34.30
33.34
30.88
27.36
23.78
21.05
19.59
19.09
18.76
17.70
15.17
10.72
4.19
-4.34
-14.61
-26.17
-38.40
-50.67
-62.36
-72.99
-82.09
-89.24
-94.07
-96.42
-96.37
-94.21
-90.30
-84.72
-77.28
-67.65
-55.74
-41.94
-27.26
-13.03
-0.47
9.59
16.92
21.72
24.41
25.42
25.08
23.60
21.18
18.03
14.49
11.08
8.51
7.53
8.68
12.00
16.79
21.77
25.47
26.75
25.20
21.34
16.46
12.17
9.94
10.65
14.37
20.40
27.44
34.00
38.80
41.09
40.80
38.47
34.93
30.99
27.09
23.23
19.04
14.06
7.99
0.94
-6.53
-13.62
-19.47
-23.60
-25.96
-26.99
-27.43
-28.04
-29.25
-31.04
-32.89
-33.97
-33.38
-30.30
-24.26
-15.27
-4.09
7.78
18.34
25.68
28.76
27.91
24.78
21.67
20.56
22.24
26.08
30.61
34.17
35.75
35.11
32.56
28.53
23.34
17.18
10.32
3.27
-3.25
-8.49
-11.95
-13.54
-13.55
-12.51
-10.90
-8.98
-6.69
-3.77
0.12
5.19
11.53
19.02
27.42
36.32
45.25
53.70
61.27
67.77
73.10
77.16
79.57
79.71
76.98
71.19
62.97
53.66
44.90
37.97
33.44
31.01
30.09
30.17
31.15
33.28
36.78
41.44
46.66
51.57
55.30
57.17
56.79
54.17
49.97
45.38
42.12
41.94
45.76
52.94
61.20
67.35
68.61
63.91
54.29
42.65
32.45
26.23
24.55
26.08
28.59
30.22
30.26
28.71
26.06
22.53
17.49
9.54
-2.71
-19.72
-40.54
-62.93
-85.16
-105.22
-121.04
-130.95
-134.38
-132.04
-125.60
-117.02
-107.94
-101.40
-98.71
-98.89
-99.56
-98.85
-96.56
-94.07
-93.54
-97.02
-109.27
-132.55
-165.55
-204.33
-244.82
-284.30
-321.16
-354.18
-381.93
-407.42
-431.89
-453.35
-467.13
-468.72
-456.01
-429.74
-393.41
-325.12
-221.38
-97.73
20.56
116.52
187.94
240.67
280.63
310.48
330.77
337.52
329.93
311.79
289.73
269.36
253.00
241.42
232.62
225.31
215.65
202.05
185.58
169.31
155.97
146.19
138.66
130.97
121.24
106.49
86.21
62.27
38.48
19.61
9.05
7.86
14.98
28.42
44.63
60.66
73.65
82.10
86.06
86.36
83.86
78.91
71.50
60.72
46.03
26.35
2.03
-24.56
-49.94
-70.71
-83.96
-87.33
-80.03
-56.89
-21.22
14.55
36.45
38.43
24.24
3.19
-15.18
-28.15
-34.82
-36.92
-36.01
-32.08
-24.11
-11.74
3.68
22.35
41.94
60.34
74.73
83.50
87.09
87.77
87.88
88.51
88.76
85.47
75.47
56.29
28.48
-3.59
-33.26
-54.35
-63.69
-62.03
-53.78
-44.27
-38.30
-38.12
-43.06
-50.56
-58.01
-64.01
-68.53
-72.31
-75.45
-77.20
-76.21
-71.26
-62.34
-51.07
-40.30
-32.94
-30.93
-34.09
-40.32
-46.34
-49.09
-46.89
-40.09
-30.96
-22.80
-18.76
-20.85
-29.36
-42.66
-57.51
-69.56
-74.44
-69.13
-53.21
-29.42
-3.06
19.90
34.86
40.14
37.04
28.71
18.48
8.77
1.01
-3.88
-4.96
-1.47
6.46
17.20
27.72
34.66
35.74
30.91
22.40
13.89
8.85
9.13
14.26
21.72
27.99
29.84
25.30
14.21
-1.87
-19.93
-35.95
-45.54
-45.08
-33.00
-10.88
16.47
42.16
59.53
64.45
56.65
39.38
17.79
-3.13
-20.11
-31.88
-38.79
-41.88
-42.29
-40.94
-38.42
-35.06
-31.04
-26.45
-21.55
-16.71
-12.41
-9.19
-7.71
-8.80
-13.49
-22.71
-36.74
-54.52
-73.57
-90.43
-101.71
-105.47
-101.99
-93.66
-84.10
-76.73
-73.74
-75.57
-81.05
-87.88
-93.33
-94.69
-89.83
-77.57
-57.99
-32.48
-3.56
25.84
53.03
76.19
94.45
107.62
115.75
118.79
116.49
108.77
95.91
78.71
58.43
36.49
14.07
-8.00
-29.26
-49.28
-67.28
-82.13
-92.56
-97.66
-97.39
-92.63
-84.76
-74.99
-63.85
-51.17
-36.60
-20.25
-3.06
13.46
27.89
39.44
48.08
54.16
57.95
59.42
58.37
54.90
49.64
43.65
37.99
33.25
29.34
25.65
21.36
15.84
8.85
0.62
-7.95
-15.37
-19.87
-20.04
-15.56
-7.40
2.62
12.79
22.43
32.07
42.85
55.46
69.45
83.25
94.98
103.41
108.49
111.08
112.22
112.37
111.19
107.96
102.26
94.39
85.37
76.39
68.17
60.51
52.36
42.56
30.64
17.38
4.80
-4.71
-9.54
-9.77
-7.37
-5.37
-6.55
-12.20
-21.64
-32.47
-41.25
-44.23
-37.73
-18.82
13.74
58.22
109.23
158.55
197.62
220.80
227.57
222.32
211.68
200.95
191.71
181.83
167.84
147.84
123.14
97.71
75.95
60.02
48.92
39.21
26.65
8.17
-16.79
-45.70
-73.53
-94.03
-101.94
-94.57
-72.56
-40.23
-4.66
26.10
45.07
48.13
34.97
8.76
-24.29
-55.80
-77.83
-85.16
-77.09
-57.30
-32.40
-9.28
6.54
12.37
8.85
-1.75
-16.81
-34.31
-52.52
-70.73
-85.42
-93.70
-97.49
-99.58
-101.92
-104.20
-106.20
-107.77
-108.85
-109.35
-109.46
-108.97
-106.63
-101.06
-92.13
-81.14
-70.16
-61.01
-55.27
-55.29
-64.16
-81.26
-104.44
-128.83
-146.99
-152.64
-143.82
-124.04
-100.73
-81.38
-71.98
-68.02
-62.77
-50.60
-29.18
0.45
34.47
68.02
96.26
113.64
119.40
117.85
115.53
117.00
123.05
130.67
135.44
134.37
127.36
117.24
106.65
97.74
88.00
75.66
60.76
45.19
31.91
23.13
19.57
19.23
17.79
10.98
-2.51
-21.13
-41.89
-60.48
-73.96
-81.49
-81.63
-77.73
-76.45
-82.99
-97.73
-116.11
-131.37
-137.96
-133.24
-118.18
-97.18
-75.52
-57.13
-43.85
-36.58
-33.45
-32.91
-33.49
-33.79
-32.83
-29.11
-20.04
-2.48
26.83
67.34
113.78
156.67
184.96
190.49
172.49
138.96
103.12
77.69
69.01
74.91
87.56
98.49
102.96
101.50
98.93
97.97
98.77
98.79
94.63
84.62
69.98
53.97
40.22
30.88
25.58
22.41
19.09
14.23
8.43
3.67
1.79
2.96
5.11
4.23
-4.15
-20.55
-44.35
-72.30
-99.63
-121.94
-136.75
-144.28
-146.78
-146.88
-146.38
-145.36
-142.24
-135.25
-123.87
-109.19
-93.15
-77.46
-62.60
-48.21
-33.06
-15.97
2.73
20.72
34.63
41.57
40.16
30.92
15.08
-5.02
-26.92
-49.46
-73.05
-98.45
-125.42
-152.22
-176.12
-195.00
-206.08
-206.46
-194.34
-169.63
-133.96
-90.53
-44.21
5.04
48.96
77.71
88.44
87.64
85.51
89.21
100.11
114.69
127.61
134.77
136.84
138.28
143.68
154.49
168.11
179.30
184.43
179.81
164.89
143.29
120.74
101.99
88.80
80.16
73.91
68.08
61.74
55.03
49.05
44.89
42.46
40.33
36.57
30.81
23.88
17.22
12.20
9.56
8.84
8.36
5.85
-0.44
-10.89
-24.57
-39.70
-54.39
-67.20
-77.41
-84.83
-89.53
-91.58
-91.07
-88.48
-84.65
-80.49
-76.63
-73.06
-69.33
-64.80
-59.13
-52.41
-45.00
-37.16
-28.70
-19.19
-8.30
3.75
16.08
27.44
36.72
43.32
47.41
49.72
51.16
52.38
53.46
53.86
52.71
49.10
42.47
32.94
21.47
9.80
0.05
-6.03
-7.82
-6.28
-3.72
-2.92
-5.98
-13.59
-24.84
-37.85
-50.51
-61.15
-68.78
-73.05
-74.16
-72.71
-69.70
-66.36
-63.79
-62.58
-62.65
-63.45
-64.39
-65.17
-65.92
-67.04
-68.87
-71.32
-73.87
-75.67
-75.80
-73.60
-68.80
-61.63
-52.74
-43.06
-33.56
-25.09
-18.11
-12.59
-7.97
-3.38
1.98
8.51
15.90
23.29
29.68
34.41
37.44
39.32
40.82
42.46
44.29
45.80
46.21
44.71
40.75
34.29
25.99
17.23
9.89
5.83
6.09
10.44
17.15
23.58
27.15
26.28
20.97
12.68
3.58
-4.23
-9.36
-11.37
-10.53
-7.44
-2.85
2.52
7.88
12.43
15.39
16.31
15.15
12.46
9.11
6.15
4.33
4.00
4.94
6.56
8.21
9.37
9.82
9.71
9.30
8.90
8.57
8.20
7.47
5.98
3.43
-0.25
-4.85
-9.86
-14.52
-17.97
-19.46
-18.57
-15.36
-10.36
-4.39
1.73
7.39
12.23
16.11
18.91
20.45
20.59
19.38
17.18
14.65
12.49
11.23
11.00
11.53
12.36
12.98
13.09
12.57
11.53
10.19
8.81
7.55
6.40
5.19
3.63
1.45
-1.45
-4.91
-8.52
-11.79
-14.15
-15.23
-14.73
-12.56
-8.87
-4.00
1.49
6.92
11.73
15.52
18.16
19.69
20.24
19.92
18.85
17.20
15.24
13.29
11.71
10.76
10.51
10.82
11.35
11.73
11.69
11.16
10.27
9.30
8.47
7.91
7.50
6.98
6.07
4.50
2.22
-0.70
-3.96
-7.15
-9.66
-10.92
-10.42
-7.94
-3.75
1.50
6.93
11.73
15.35
17.65
18.72
18.83
18.18
16.90
15.14
13.17
11.37
10.17
9.84
10.36
11.41
12.53
13.28
13.43
12.94
11.90
10.35
8.27
5.63
2.50
-0.86
-4.00
-6.58
-8.62
-10.49
-12.79
-15.78
-19.15
-21.95
-23.08
-21.84
-18.51
-14.17
-10.26
-7.78
-6.93
-7.25
-8.04
-8.95
-10.03
-11.49
-13.20
-14.53
-14.60
-12.90
-9.65
-5.84
-2.71
-1.16
-1.28
-2.48
-3.80
-4.48
-4.28
-3.41
-2.34
-1.48
-1.03
-0.98
-1.26
-1.87
-2.93
-4.63
-7.01
-9.87
-12.60
-14.42
-14.60
-12.82
-9.45
-5.44
-1.94
0.10
0.31
-1.01
-3.19
-5.59
-7.89
-10.15
-12.64
-15.54
-18.77
-21.99
-24.85
-27.12
-28.79
-30.00
-30.81
-31.12
-30.66
-29.11
-26.23
-22.00
-16.56
-10.21
-3.25
3.97
11.08
17.62
23.12
27.13
29.36
29.77
28.72
26.89
25.18
24.47
25.27
27.47
30.29
32.43
32.49
29.31
22.33
11.68
-1.82
-16.87
-31.94
-45.60
-56.89
-65.55
-72.02
-77.17
-81.86
-86.44
-90.48
-92.90
-92.38
-87.93
-79.39
-67.44
-53.32
-38.21
-22.88
-7.55
7.85
23.37
38.87
54.16
69.25
84.45
100.24
116.84
133.89
150.33
164.70
175.55
181.95
183.52
180.46
173.39
163.24
151.15
138.25
125.53
113.46
102.12
91.26
80.65
70.24
60.11
50.38
41.04
31.99
23.19
14.76
7.06
0.50
-4.67
-8.55
-11.55
-14.37
-17.57
-21.44
-25.80
-30.07
-33.39
-35.02
-34.65
-32.49
-29.25
-25.82
-22.96
-21.12
-20.43
-20.80
-22.05
-23.93
-26.12
-28.23
-29.87
-30.75
-30.78
-30.05
-28.75
-27.14
-25.44
-23.85
-22.53
-21.55
-20.86
-20.30
-19.63
-18.71
-17.61
-16.63
-16.19
-16.56
-17.79
-19.62
-21.60
-23.27
-24.27
-24.38
-23.48
-21.58
-18.75
-15.29
-11.55
-7.98
-4.97
-2.66
-1.04
0.06
0.80
1.26
1.38
1.14
0.60
-0.05
-0.63
-1.05
-1.40
-1.90
-2.79
-4.16
-5.91
-7.81
-9.58
-11.01
-12.01
-12.61
-12.89
-12.90
-12.76
-12.56
-12.48
-12.74
-13.53
-14.91
-16.69
-18.45
-19.62
-19.68
-18.35
-15.69
-12.14
-8.26
-4.64
-1.64
0.62
2.22
3.31
3.94
4.11
3.84
3.24
2.54
2.02
1.84
1.95
2.15
2.21
1.99
1.52
0.93
0.35
-0.20
-0.78
-1.45
-2.18
-2.85
-3.33
-3.59
-3.75
-4.05
-4.68
-5.74
-7.21
-8.98
-10.87
-12.67
-14.05
-14.66
-14.19
-12.57
-10.06
-7.17
-4.43
-2.16
-0.29
1.48
3.44
5.61
7.67
9.09
9.47
8.82
7.53
6.26
5.53
5.50
5.95
6.46
6.60
6.27
5.57
4.77
4.14
3.73
3.44
3.04
2.31
1.17
-0.28
-1.84
-3.26
-4.33
-5.02
-5.43
-5.78
-6.33
-7.26
-8.62
-10.31
-12.12
-13.70
-14.69
-14.74
-13.65
-11.46
-8.51
-5.40
-2.70
-0.78
0.38
1.08
1.75
2.57
3.47
4.09
4.11
3.42
2.28
1.13
0.43
0.40
0.95
1.73
2.39
2.71
2.71
2.57
2.48
2.49
2.48
2.24
1.63
0.65
-0.53
-1.64
-2.49
-2.98
-3.17
-3.23
-3.38
-3.80
-4.61
-5.85
-7.42
-9.25
-11.20
-13.24
-15.27
-17.10
-18.41
-18.76
-17.83
-15.48
-11.97
-7.85
-3.77
-0.21
2.61
4.79
6.59
8.19
9.58
10.55
10.82
10.24
8.92
7.26
5.79
4.98
4.98
5.63
6.50
7.20
7.52
7.48
7.28
7.10
6.98
6.86
6.55
5.97
5.14
4.24
3.42
2.79
2.30
1.75
0.90
-0.40
-2.13
-4.07
-5.88
-7.29
-8.18
-8.70
-9.16
-9.89
-11.07
-12.71
-14.67
-16.75
-18.68
-20.19
-20.86
-20.34
-18.36
-15.01
-10.73
-6.33
-2.56
0.10
1.64
2.38
2.75
2.96
3.00
2.71
2.03
1.10
0.29
-0.05
0.29
1.14
2.11
2.71
2.67
2.00
1.03
0.17
-0.30
-0.36
-0.24
-0.28
-0.69
-1.47
-2.43
-3.33
-4.03
-4.55
-5.01
-5.59
-6.41
-7.51
-8.90
-10.52
-12.26
-13.93
-15.31
-16.23
-16.64
-16.63
-16.39
-16.17
-16.14
-16.32
-16.55
-16.50
-15.72
-13.83
-10.66
-6.41
-1.64
2.94
6.65
9.11
10.28
10.51
10.22
9.81
9.48
9.33
9.36
9.57
10.00
10.67
11.50
12.35
13.03
13.38
13.38
13.16
12.93
12.87
13.00
13.15
13.07
12.54
11.48
10.01
8.34
6.72
5.31
4.16
3.16
2.16
1.04
-0.30
-1.79
-3.32
-4.71
-5.90
-6.90
-7.84
-8.89
-10.20
-11.85
-13.82
-16.02
-18.22
-20.09
-21.15
-20.92
-19.15
-15.92
-11.74
-7.34
-3.46
-0.51
1.43
2.62
3.37
3.87
4.16
4.25
4.20
4.21
4.50
5.22
6.32
7.59
8.73
9.52
9.89
9.95
9.87
9.87
10.03
10.38
10.78
11.09
11.16
10.85
10.10
8.95
7.53
6.00
4.53
3.23
2.08
0.98
-0.18
-1.48
-2.88
-4.24
-5.42
-6.32
-6.98
-7.54
-8.23
-9.29
-10.88
-13.05
-15.70
-18.49
-20.95
-22.56
-22.87
-21.65
-18.97
-15.14
-10.75
-6.39
-2.62
0.26
2.18
3.38
4.26
5.15
6.21
7.33
8.25
8.72
8.78
8.69
8.88
9.66
10.95
12.34
13.20
13.10
12.04
10.45
8.97
8.07
7.81
7.81
7.59
6.82
5.57
4.16
3.00
2.26
1.86
1.49
0.87
-0.19
-1.70
-3.57
-5.67
-7.79
-9.69
-11.13
-11.97
-12.28
-12.37
-12.70
-13.66
-15.41
-17.82
-20.45
-22.73
-24.02
-23.75
-21.61
-17.68
-12.50
-6.95
-1.99
1.69
3.92
5.01
5.55
6.05
6.74
7.52
8.15
8.57
8.88
9.39
10.31
11.61
13.03
14.16
14.71
14.61
14.04
13.26
12.55
11.98
11.49
10.92
10.14
9.20
8.20
7.35
6.72
6.21
5.55
4.47
2.74
0.39
-2.39
-5.26
-7.85
-9.92
-11.37
-12.36
-13.20
-14.24
-15.80
-17.97
-20.56
-23.03
-24.67
-24.81
-23.06
-19.45
-14.50
-9.01
-3.84
0.32
3.21
4.92
5.83
6.34
6.74
7.08
7.28
7.27
7.04
6.78
6.74
7.10
7.94
9.06
10.20
11.02
11.35
11.20
10.75
10.19
9.63
9.07
8.35
7.39
6.14
4.69
3.21
1.79
0.48
-0.82
-2.18
-3.63
-5.16
-6.74
-8.41
-10.33
-12.69
-15.64
-19.12
-22.70
-25.71
-27.34
-26.94
-24.38
-20.08
-14.87
-9.69
-5.25
-1.72
1.08
3.50
5.75
7.71
9.06
9.58
9.38
8.93
8.83
9.52
10.98
12.80
14.39
15.29
15.36
14.80
13.96
13.16
12.49
11.84
11.03
9.86
8.24
6.23
3.98
1.77
-0.15
-1.65
-2.81
-3.90
-5.33
-7.45
-10.42
-14.10
-18.11
-21.79
-24.49
-25.59
-24.80
-22.09
-17.81
-12.57
-7.02
-1.77
2.79
6.41
8.99
10.50
11.03
10.77
10.02
9.14
8.46
8.22
8.46
9.13
10.05
11.01
11.77
12.09
11.84
10.97
9.61
7.97
6.28
4.70
3.20
1.70
0.06
-1.79
-3.84
-5.92
-7.87
-9.60
-11.17
-12.87
-15.05
-17.99
-21.69
-25.77
-29.49
-31.93
-32.31
-30.22
-25.85
-19.87
-13.24
-6.91
-1.48
2.85
6.21
8.86
10.98
12.59
13.68
14.25
14.47
14.64
15.04
15.82
16.96
18.21
19.25
19.76
19.52
18.51
16.92
15.09
13.38
11.98
10.82
9.59
7.96
5.78
3.20
0.54
-1.85
-3.87
-5.64
-7.39
-9.28
-11.40
-13.70
-16.26
-19.23
-22.77
-26.73
-30.56
-33.29
-33.96
-31.93
-27.28
-20.70
-13.23
-5.86
0.75
6.35
10.88
14.32
16.63
17.78
17.95
17.59
17.30
17.55
18.46
19.78
21.05
21.89
22.17
22.08
21.92
21.92
22.06
22.12
21.82
20.98
19.61
17.92
16.11
14.36
12.69
11.06
9.43
7.85
6.39
5.02
3.59
1.77
-0.86
-4.56
-9.23
-14.39
-19.28
-23.11
-25.31
-25.61
-23.95
-20.53
-15.66
-9.78
-3.51
2.51
7.80
12.12
15.54
18.21
20.20
21.40
21.57
20.64
18.82
16.64
14.74
13.62
13.44
14.00
14.94
15.90
16.67
17.19
17.51
17.63
17.50
17.02
16.02
14.42
12.16
9.33
6.17
2.90
-0.23
-3.10
-5.73
-8.27
-10.90
-13.87
-17.37
-21.48
-26.16
-31.04
-35.44
-38.49
-39.33
-37.40
-32.75
-26.02
-18.30
-10.78
-4.31
0.77
4.61
7.57
9.99
11.97
13.43
14.29
14.65
14.86
15.31
16.27
17.67
19.11
20.03
20.04
19.09
17.49
15.76
14.35
13.45
12.94
12.46
11.53
9.85
7.32
4.11
0.63
-2.65
-5.39
-7.47
-9.11
-10.69
-12.65
-15.29
-18.60
-22.29
-25.87
-28.71
-30.24
-30.03
-27.89
-23.92
-18.54
-12.41
-6.35
-1.03
3.18
6.33
8.73
10.73
12.51
14.01
15.01
15.38
15.21
14.86
14.77
15.21
16.13
17.13
17.71
17.49
16.46
14.91
13.33
12.07
11.22
10.57
9.73
8.42
6.51
4.11
1.47
-1.21
-3.89
-6.59
-9.41
-12.42
-15.67
-19.25
-23.22
-27.57
-32.04
-36.05
-38.70
-39.10
-36.70
-31.55
-24.43
-16.54
-9.10
-2.94
1.70
4.99
7.31
8.86
9.76
10.00
9.71
9.24
9.06
9.58
10.95
12.89
14.82
16.15
16.46
15.76
14.43
12.97
11.76
10.85
9.98
8.79
7.10
4.95
2.69
0.64
-1.01
-2.32
-3.55
-4.98
-6.79
-9.05
-11.75
-14.84
-18.24
-21.72
-24.86
-27.06
-27.62
-26.00
-21.99
-15.86
-8.34
-0.46
6.73
12.48
16.47
18.80
19.83
19.98
19.55
18.78
17.92
17.24
17.02
17.33
18.05
18.80
19.20
18.99
18.17
16.93
15.52
14.10
12.65
11.10
9.39
7.51
5.52
3.47
1.39
-0.69
-2.69
-4.54
-6.21
-7.80
-9.61
-11.99
-15.16
-19.05
-23.12
-26.52
-28.31
-27.75
-24.61
-19.21
-12.25
-4.69
2.64
9.05
14.12
17.61
19.47
19.82
18.99
17.52
16.03
15.05
14.89
15.47
16.44
17.33
17.71
17.36
16.29
14.74
13.00
11.36
9.91
8.61
7.28
5.74
3.96
2.03
0.20
-1.32
-2.44
-3.25
-4.04
-5.20
-7.09
-9.91
-13.63
-17.93
-22.26
-25.92
-28.14
-28.35
-26.24
-21.97
-16.13
-9.63
-3.44
1.64
5.15
7.07
7.68
7.43
6.76
6.07
5.66
5.72
6.34
7.50
9.06
10.77
12.41
13.83
14.99
16.02
17.07
18.19
19.26
20.02
20.24
19.78
18.63
16.92
14.82
12.39
9.64
6.51
2.87
-1.45
-6.63
-12.84
-20.09
-28.04
-35.96
-42.82
-47.55
-49.39
-48.14
-44.34
-39.01
-33.47
-28.86
-25.96
-25.00
-25.82
-27.99
-30.96
-34.26
-37.53
-40.42
-42.54
-43.43
-42.75
-40.41
-36.58
-31.51
-25.48
-18.68
-11.24
-3.22
5.05
13.04
19.96
24.98
27.83
28.57
27.57
25.36
22.46
19.17
15.63
11.79
7.55
3.61
0.44
-1.84
-3.35
-4.11
-3.92
-2.20
1.49
7.37
16.66
29.56
45.22
62.26
79.71
97.24
115.30
134.12
153.38
174.33
196.70
218.76
238.22
253.60
264.34
271.04
273.80
271.99
267.20
259.60
248.02
231.05
208.57
181.61
152.61
123.36
79.19
17.55
-52.43
-116.19
-164.29
-193.73
-212.25
-225.91
-238.69
-253.03
-265.99
-275.51
-281.45
-285.15
-288.08
-291.24
-294.13
-296.08
-296.24
-291.48
-279.96
-261.83
-238.92
-213.56
-188.07
-163.65
-141.22
-121.19
-102.14
-83.14
-64.12
-45.72
-28.51
-12.79
1.91
15.88
29.03
41.49
52.63
61.33
66.49
67.67
65.15
60.03
53.48
46.61
40.56
36.21
34.08
34.47
37.63
43.67
52.68
64.52
78.72
94.52
111.07
127.61
143.78
159.58
175.23
190.78
205.87
219.66
231.01
238.87
242.43
241.27
235.30
224.76
210.29
192.96
174.29
155.89
139.12
124.62
112.28
101.47
91.40
81.55
71.73
61.97
52.32
42.68
32.74
22.06
10.30
-2.77
-17.21
-32.96
-49.85
-67.62
-85.81
-103.72
-120.36
-134.60
-145.22
-151.11
-151.44
-145.78
-134.27
-117.62
-97.07
-74.23
-50.78
-28.23
-7.72
10.12
25.05
37.13
46.49
53.27
57.51
59.26
58.62
55.76
50.88
44.13
35.50
24.85
12.00
-3.05
-20.03
-38.33
-57.09
-75.33
-92.15
-106.78
-118.72
-127.78
-134.18
-138.52
-141.65
-144.44
-147.41
-150.40
-152.51
-152.30
-148.26
-139.37
-125.62
-108.15
-89.01
-70.59
-55.05
-43.73
-37.06
-34.62
-35.43
-38.34
-42.19
-45.94
-48.71
-49.93
-49.29
-46.96
-43.52
-39.94
-37.35
-36.90
-39.47
-45.53
-54.99
-67.06
-80.39
-93.20
-103.78
-110.99
-114.62
-115.46
-114.93
-114.50
-115.17
-117.21
-120.30
-123.87
-127.37
-130.33
-132.21
-132.09
-128.79
-121.06
-108.12
-90.16
-68.47
-45.15
-22.55
-2.56
13.85
26.75
36.96
45.56
53.43
60.98
68.27
75.25
82.05
89.02
96.58
104.93
113.90
122.94
131.49
139.14
145.87
151.95
157.69
163.13
167.96
171.58
173.33
172.75
169.76
164.77
158.59
152.30
147.01
143.52
142.22
142.81
144.42
145.68
145.01
141.16
133.60
122.74
109.77
96.22
83.18
70.80
58.16
43.68
25.88
4.10
-21.25
-48.82
-76.91
-103.96
-128.93
-151.30
-170.98
-188.13
-203.00
-215.86
-226.84
-235.93
-242.96
-247.62
-249.63
-248.90
-245.58
-240.06
-232.70
-223.65
-212.62
-198.91
-181.67
-160.30
-134.78
-105.91
-75.26
-44.81
-16.19
9.59
32.22
51.78
68.49
82.61
94.29
103.62
110.64
115.61
118.87
120.71
121.29
120.71
119.23
117.11
114.36
110.57
105.58
99.39
92.14
83.94
75.05
66.37
58.74
52.33
46.26
40.26
34.39
28.84
23.70
19.12
16.66
17.54
21.58
26.20
30.25
33.37
35.70
37.26
38.06
40.32
45.62
53.53
60.10
64.21
66.38
68.32
71.60
77.67
90.34
112.01
141.73
173.30
203.45
230.40
253.29
270.78
264.56
225.15
158.96
99.18
52.35
17.39
-11.87
-36.99
-59.10
-79.28
-95.94
-108.22
-117.42
-128.71
-142.97
-158.57
-172.54
-182.97
-189.05
-189.14
-183.13
-173.07
-164.07
-157.55
-152.46
-146.28
-136.99
-123.55
-104.89
-81.30
-54.61
-28.39
-3.79
19.31
41.21
60.92
76.45
86.24
89.41
86.01
76.29
61.69
43.54
22.80
0.57
-20.67
-36.31
-41.01
-30.90
-5.95
29.91
69.80
106.52
135.13
154.37
166.03
172.96
177.00
178.17
175.24
167.11
153.91
137.15
119.02
101.38
84.90
69.07
52.52
33.76
11.65
-14.04
-42.57
-72.24
-100.69
-125.46
-144.51
-156.56
-161.12
-158.30
-148.63
-133.19
-113.67
-92.36
-71.77
-54.03
-40.37
-30.89
-24.74
-20.60
-17.12
-13.23
-8.27
-2.15
4.68
11.27
16.57
19.75
20.68
19.91
18.46
17.23
16.53
15.94
14.43
10.98
5.05
-2.96
-11.68
-19.02
-22.84
-21.69
-15.36
-5.18
6.43
16.81
24.03
27.66
28.81
29.56
31.97
37.18
44.85
53.38
60.44
63.83
62.03
54.59
42.20
26.48
9.65
-6.03
-19.02
-29.01
-37.16
-45.75
-57.18
-72.79
-92.03
-112.31
-129.87
-141.13
-144.18
-139.39
-129.06
-116.24
-103.40
-91.65
-80.68
-69.52
-57.46
-44.59
-31.65
-19.44
-8.32
2.01
12.03
21.87
30.92
37.98
41.87
42.11
39.31
35.03
31.30
29.95
31.93
37.03
43.98
50.72
55.12
55.59
51.55
43.59
33.29
22.89
14.80
11.10
13.17
21.10
33.57
48.03
61.42
71.23
76.45
77.81
77.27
76.75
77.05
77.46
76.39
72.42
65.42
56.58
47.74
40.17
33.73
26.81
17.15
2.95
-16.21
-39.23
-63.97
-88.01
-109.31
-126.36
-138.26
-144.50
-145.14
-140.90
-133.33
-124.61
-117.01
-112.19
-110.59
-111.14
-111.58
-109.31
-102.32
-89.99
-73.29
-54.30
-35.49
-18.84
-5.43
4.60
11.86
17.38
22.44
28.30
35.82
44.95
54.35
61.40
63.05
57.00
42.92
22.96
1.16
-17.79
-30.05
-33.57
-28.36
-16.06
0.74
19.15
36.40
50.20
59.02
62.18
59.93
53.11
42.76
29.92
15.50
0.58
-13.30
-24.12
-29.80
-29.08
-22.32
-11.82
-1.30
5.58
6.71
2.50
-4.37
-10.33
-12.68
-10.78
-6.07
-1.10
1.91
1.98
-0.49
-4.35
-8.44
-12.01
-14.67
-16.06
-15.68
-13.04
-7.91
-0.82
6.91
13.43
16.87
16.04
10.79
2.21
-7.83
-17.30
-24.64
-29.15
-30.94
-30.52
-28.46
-25.31
-21.70
-18.38
-16.13
-15.36
-15.74
-16.27
-15.63
-12.95
-8.30
-2.70
2.39
5.79
7.05
6.48
4.80
2.76
0.87
-0.57
-1.34
-1.29
-0.35
1.35
3.48
5.69
7.73
9.59
11.43
13.42
15.71
18.37
21.38
24.48
26.91
27.49
24.88
18.38
8.65
-2.09
-10.66
-14.14
-11.06
-2.16
10.09
22.58
32.87
40.06
44.60
47.45
49.11
48.96
45.55
37.55
24.88
9.22
-6.40
-18.79
-26.00
-28.00
-26.38
-23.21
-19.96
-17.01
-14.06
-10.97
-8.32
-7.16
-8.23
-11.16
-14.28
-15.32
-12.55
-5.73
3.64
12.93
19.50
21.68
19.35
13.80
7.11
1.31
-2.26
-3.29
-2.27
-0.22
1.85
3.15
3.12
1.49
-1.70
-6.00
-10.39
-13.56
-14.27
-11.94
-6.93
-0.43
6.19
12.03
17.09
22.10
27.96
35.06
42.98
50.59
56.58
59.99
60.51
58.51
54.77
50.18
45.36
40.46
35.01
28.18
19.19
8.00
-4.30
-15.68
-23.89
-27.55
-26.72
-23.01
-18.81
-16.47
-17.60
-22.79
-31.70
-43.20
-55.61
-66.77
-74.49
-76.97
-73.47
-64.50
-51.67
-37.16
-23.13
-11.33
-2.94
1.48
2.08
-0.26
-4.00
-7.38
-9.00
-8.30
-5.67
-2.11
1.22
3.59
4.84
5.34
5.74
6.61
8.33
10.90
13.86
16.24
16.74
14.23
8.31
-0.08
-8.77
-14.82
-15.62
-9.90
1.82
17.40
33.96
48.85
60.32
67.55
70.44
69.13
63.88
55.17
43.89
31.47
19.68
10.16
3.85
0.72
-0.22
-0.49
-1.52
-4.14
-8.23
-12.84
-16.42
-17.38
-14.54
-7.52
3.03
15.38
26.79
34.19
35.07
28.67
16.58
2.61
-8.56
-13.10
-9.48
1.05
15.24
29.28
40.24
46.90
49.63
49.75
48.79
47.97
47.91
48.66
49.70
50.13
49.01
45.79
40.45
33.54
25.81
17.96
10.39
3.36
-2.98
-8.48
-13.06
-16.80
-19.94
-22.72
-25.27
-27.54
-29.34
-30.49
-30.82
-30.21
-28.36
-25.01
-20.16
-14.35
-8.77
-4.90
-3.82
-5.63
-9.35
-13.34
-15.95
-16.24
-14.21
-10.66
-6.63
-3.01
-0.21
1.77
3.18
4.20
4.87
5.07
4.61
3.37
1.49
-0.75
-3.02
-5.09
-6.98
-8.88
-11.08
-13.73
-16.84
-20.13
-23.18
-25.47
-26.52
-26.07
-24.13
-20.99
-17.19
-13.35
-10.01
-7.61
-6.46
-6.74
-8.39
-11.00
-13.76
-15.58
-15.50
-13.08
-8.59
-2.94
2.81
7.81
11.78
14.92
17.65
20.25
22.66
24.66
26.02
26.87
27.74
29.42
32.64
37.65
44.07
50.95
57.18
61.88
64.71
65.80
65.46
63.80
60.59
55.39
47.93
38.29
26.91
14.36
1.02
-12.99
-27.70
-43.02
-58.58
-73.72
-87.82
-100.37
-111.17
-120.17
-127.39
-132.79
-136.31
-138.04
-138.19
-137.00
-134.65
-131.12
-126.22
-119.72
-111.58
-101.93
-91.20
-79.87
-68.41
-57.13
-46.09
-35.16
-24.15
-12.93
-1.68
9.06
18.56
26.06
31.13
33.81
34.54
33.97
32.77
31.57
31.10
32.15
35.47
41.30
49.03
57.06
63.21
65.62
63.49
57.53
49.72
42.46
37.69
36.16
37.44
40.26
43.28
45.57
46.91
47.57
47.97
48.36
48.68
48.63
47.95
46.64
45.02
43.68
43.22
44.03
46.01
48.56
50.68
51.27
49.47
44.91
37.90
29.41
20.89
13.93
9.84
9.22
11.74
16.20
20.97
24.44
25.54
24.00
20.27
15.26
10.02
5.44
2.15
0.48
0.39
1.56
3.34
4.96
5.68
5.07
3.06
0.03
-3.38
-6.43
-8.53
-9.43
-9.30
-8.62
-7.93
-7.63
-7.90
-8.73
-10.20
-12.51
-15.98
-20.81
-26.90
-33.65
-40.20
-45.73
-49.87
-52.85
-55.35
-58.18
-61.81
-66.23
-71.09
-75.93
-80.44
-84.48
-87.94
-90.62
-92.10
-91.88
-89.60
-85.11
-78.55
-70.21
-60.38
-49.31
-37.24
-24.53
-11.73
0.39
11.05
19.58
25.68
29.63
32.30
34.98
39.03
45.33
54.01
64.31
74.92
84.41
91.83
96.95
100.16
102.16
103.35
103.67
102.59
99.44
93.79
85.68
75.59
64.23
52.28
40.24
28.41
16.86
5.58
-5.47
-16.33
-26.97
-37.27
-46.99
-55.87
-63.70
-70.28
-75.39
-78.63
-79.44
-77.29
-71.86
-63.38
-52.61
-40.74
-29.08
-18.72
-10.33
-4.12
0.00
2.34
3.21
2.91
1.68
-0.21
-2.50
-4.95
-7.47
-10.13
-13.18
-16.84
-21.12
-25.74
-30.24
-34.21
-37.57
-40.68
-44.23
-48.84
-54.64
-61.03
-66.77
-70.41
-70.75
-67.35
-60.49
-51.09
-40.27
-29.13
-18.53
-9.13
-1.51
3.90
6.86
7.47
6.16
3.53
0.18
-3.53
-7.44
-11.55
-15.85
-20.34
-25.08
-30.30
-36.24
-43.02
-50.49
-58.12
-65.24
-71.38
-76.43
-80.63
-84.29
-87.34
-89.20
-88.93
-85.63
-78.94
-69.17
-57.19
-43.98
-30.32
-16.64
-3.27
9.30
20.26
28.66
33.84
35.79
35.38
33.98
33.00
33.41
35.50
39.06
43.66
48.89
54.39
59.69
64.16
66.97
67.35
64.88
59.77
52.85
45.41
38.87
34.37
32.57
33.51
36.73
41.40
46.54
51.26
54.82
56.79
56.96
55.38
52.25
47.85
42.51
36.58
30.48
24.72
19.86
16.33
14.26
13.31
12.81
12.04
10.52
8.27
5.67
3.24
1.35
0.21
-0.07
0.83
3.50
8.61
16.54
26.99
39.00
51.18
62.18
71.11
77.56
81.50
83.06
82.41
79.77
75.55
70.35
64.89
59.83
55.59
52.26
49.67
47.53
45.46
43.12
40.21
36.49
31.77
26.00
19.21
11.36
2.65
-6.46
-15.19
-22.57
-27.66
-29.90
-29.21
-26.05
-21.32
-15.84
-10.19
-4.70
0.48
5.15
9.04
11.93
13.74
14.41
14.17
13.50
12.84
12.53
12.78
13.67
15.40
18.01
20.61
22.42
22.95
21.81
19.06
15.29
11.53
9.70
11.47
16.27
23.01
30.03
34.82
35.40
31.01
22.48
13.07
6.35
2.72
1.65
1.59
-0.79
-7.97
-20.51
-36.61
-51.02
-57.81
-55.09
-42.24
-20.70
4.78
29.70
50.87
58.73
48.24
34.79
26.42
21.70
20.08
19.90
20.70
21.57
19.78
12.29
-3.96
-36.83
-82.90
-126.22
-158.93
-176.89
-179.44
-170.27
-154.12
-134.99
-116.25
-97.14
-75.25
-50.15
-22.11
7.26
35.53
61.16
83.56
101.59
115.28
124.47
127.52
123.68
113.15
97.17
78.32
59.53
42.52
28.38
17.20
8.18
1.54
-1.80
-1.04
3.90
11.89
20.82
28.95
35.42
40.07
43.47
46.27
48.80
51.48
55.02
60.13
66.74
73.09
75.64
70.48
55.17
30.23
-0.73
-32.30
-59.42
-79.17
-91.23
-97.16
-99.09
-98.64
-96.71
-93.96
-91.31
-90.01
-91.23
-95.34
-101.47
-107.72
-111.84
-112.07
-107.79
-99.73
-89.58
-79.39
-70.88
-64.99
-61.74
-60.42
-59.86
-58.86
-56.44
-52.09
-45.81
-38.07
-29.59
-21.15
-13.39
-6.67
-1.14
3.28
6.77
9.62
12.16
14.74
17.55
20.48
23.05
24.47
23.94
20.96
15.42
7.71
-1.50
-11.38
-21.14
-30.02
-37.38
-42.72
-45.82
-46.75
-45.99
-44.30
-42.51
-41.28
-40.90
-41.20
-41.54
-40.99
-38.61
-33.65
-25.82
-15.33
-2.84
10.77
24.59
37.84
49.92
60.31
68.57
74.24
76.96
76.66
73.58
68.32
61.64
54.27
46.60
38.70
30.35
21.24
11.20
0.28
-11.14
-22.52
-33.12
-42.22
-49.24
-53.97
-56.77
-58.55
-60.46
-63.21
-66.52
-68.81
-67.68
-60.80
-47.06
-27.28
-3.97
19.50
40.13
56.18
67.36
74.34
78.02
79.04
77.74
74.43
69.59
63.94
58.09
52.25
46.06
38.88
30.38
20.98
12.12
5.61
3.02
4.99
11.05
19.62
28.48
35.68
40.10
42.13
43.34
46.04
52.66
65.02
83.51
106.78
132.22
156.67
177.52
192.87
201.61
203.56
199.36
189.82
175.57
157.13
134.82
109.16
80.49
49.02
15.32
-19.29
-53.27
-85.43
-114.75
-140.93
-161.42
-172.37
-172.83
-166.54
-158.90
-153.55
-151.42
-151.03
-150.65
-148.76
-145.10
-140.41
-135.42
-129.73
-122.14
-113.35
-101.90
-87.77
-71.90
-55.97
-41.70
-30.12
-20.88
-12.77
-4.44
5.39
17.04
30.27
44.31
58.26
70.31
79.48
85.47
88.36
88.73
87.01
83.75
79.42
74.33
68.53
62.12
54.97
46.90
37.87
27.86
17.06
5.70
-6.08
-18.14
-29.99
-40.82
-49.68
-55.80
-59.01
-59.51
-57.75
-54.18
-49.27
-43.37
-36.81
-30.05
-23.70
-18.18
-13.46
-9.13
-4.88
-0.93
2.17
3.92
4.05
2.49
-0.50
-4.28
-8.20
-12.06
-16.33
-21.71
-28.35
-35.74
-43.06
-48.77
-50.87
-47.44
-37.38
-20.92
0.72
26.18
54.00
82.23
106.08
119.71
120.39
111.03
97.75
85.60
77.03
73.90
73.37
73.03
71.88
70.25
68.98
68.57
67.31
64.43
59.51
52.01
42.07
30.44
18.10
5.85
-6.33
-18.89
-31.95
-45.17
-57.98
-69.37
-78.48
-85.25
-90.63
-96.32
-103.79
-113.05
-122.78
-130.86
-134.96
-133.58
-126.48
-114.71
-100.20
-85.05
-70.95
-59.06
-50.19
-44.50
-41.56
-40.30
-39.08
-35.95
-29.18
-17.67
-1.56
17.62
37.49
55.53
70.01
80.30
86.77
90.08
90.56
88.02
82.15
73.22
62.53
52.32
44.78
41.02
40.44
40.95
40.02
35.82
28.09
18.09
8.01
0.08
-4.04
-3.62
1.41
10.65
23.45
38.96
55.95
72.86
87.93
99.67
107.27
110.91
111.66
110.97
110.01
109.25
108.25
105.85
100.62
91.48
78.05
60.93
41.46
21.28
1.72
-16.53
-33.58
-49.93
-65.94
-81.45
-95.62
-107.33
-115.64
-120.23
-121.40
-119.77
-115.87
-109.86
-101.68
-91.35
-79.25
-66.21
-53.31
-41.58
-31.73
-23.92
-17.84
-13.09
-9.36
-6.62
-5.12
-5.12
-6.61
-9.17
-12.12
-14.73
-16.54
-17.44
-17.61
-17.21
-16.24
-14.50
-11.72
-7.82
-3.01
2.17
7.16
11.62
15.59
19.39
23.45
28.03
33.01
37.90
41.93
44.41
44.84
43.10
39.41
34.20
27.99
21.28
14.58
8.36
3.01
-1.17
-4.08
-5.84
-6.68
-6.91
-6.77
-6.45
-6.04
-5.61
-5.21
-4.93
-4.82
-4.92
-5.26
-5.89
-6.86
-8.19
-9.82
-11.45
-12.62
-12.82
-11.75
-9.47
-6.36
-3.05
-0.11
2.10
3.47
4.01
3.78
2.78
1.12
-1.05
-3.45
-5.80
-7.95
-9.92
-11.85
-13.84
-15.85
-17.68
-19.06
-19.81
-19.96
-19.72
-19.42
-19.34
-19.65
-20.40
-21.56
-23.09
-24.86
-26.61
-27.92
-28.25
-27.14
-24.37
-20.17
-15.15
-10.15
-5.91
-2.96
-1.38
-1.02
-1.63
-2.91
-4.62
-6.46
-8.09
-9.18
-9.49
-9.07
-8.27
-7.55
-7.36
-7.87
-8.92
-10.14
-11.11
-11.60
-11.66
-11.54
-11.55
-11.99
-12.90
-14.11
-15.21
-15.78
-15.39
-13.87
-11.24
-7.71
-3.64
0.55
4.37
7.41
9.32
9.93
9.27
7.59
5.36
3.08
1.22
0.06
-0.34
-0.13
0.35
0.84
1.10
1.11
0.91
0.52
-0.07
-0.93
-2.15
-3.75
-5.66
-7.78
-9.95
-11.91
-13.33
-13.76
-12.84
-10.44
-6.76
-2.32
2.15
6.00
8.75
10.16
10.23
9.14
7.22
4.96
2.89
1.42
0.72
0.60
0.66
0.51
-0.11
-1.16
-2.43
-3.67
-4.69
-5.45
-5.97
-6.31
-6.53
-6.72
-7.09
-7.82
-8.91
-10.09
-10.76
-10.26
-8.19
-4.63
-0.14
4.47
8.52
11.62
13.75
15.03
15.55
15.29
14.18
12.33
10.07
7.91
6.29
5.45
5.28
5.46
5.64
5.59
5.24
4.54
3.49
1.97
-0.12
-2.82
-6.01
-9.52
-13.05
-16.32
-19.03
-20.80
-21.33
-20.35
-17.86
-14.12
-9.68
-5.20
-1.31
1.57
3.25
3.72
3.10
1.60
-0.45
-2.73
-4.82
-6.40
-7.22
-7.26
-6.68
-5.84
-5.10
-4.74
-4.87
-5.39
-6.20
-7.23
-8.58
-10.48
-13.08
-16.30
-19.74
-22.71
-24.50
-24.57
-22.69
-18.99
-13.84
-7.77
-1.42
4.53
9.40
12.65
14.03
13.67
12.01
9.69
7.28
5.20
3.57
2.36
1.45
0.73
0.13
-0.40
-0.92
-1.48
-2.09
-2.71
-3.39
-4.29
-5.69
-7.89
-11.01
-14.85
-18.83
-22.07
-23.71
-23.10
-19.98
-14.63
-7.71
-0.20
6.91
12.75
16.81
18.93
19.33
18.44
16.80
14.91
13.07
11.49
10.22
9.23
8.44
7.74
7.05
6.24
5.26
4.07
2.68
1.15
-0.49
-2.27
-4.34
-6.86
-9.90
-13.20
-16.19
-17.98
-17.69
-14.84
-9.58
-2.70
4.65
11.32
16.55
20.05
21.86
22.25
21.47
19.81
17.59
15.23
13.11
11.54
10.63
10.26
10.21
10.17
9.94
9.39
8.51
7.33
5.87
4.16
2.16
-0.24
-3.22
-6.86
-10.97
-15.01
-18.07
-19.22
-17.78
-13.71
-7.62
-0.61
6.15
11.81
15.93
18.48
19.64
19.61
18.52
16.62
14.28
12.02
10.34
9.52
9.47
9.79
9.90
9.30
7.84
5.75
3.48
1.56
0.22
-0.70
-1.71
-3.39
-6.13
-9.88
-14.07
-17.78
-20.06
-20.16
-17.71
-12.88
-6.22
1.39
8.92
15.43
20.17
22.80
23.31
22.04
19.54
16.42
13.27
10.57
8.67
7.71
7.59
7.99
8.42
8.41
7.66
6.20
4.31
2.43
0.84
-0.44
-1.70
-3.45
-6.10
-9.67
-13.65
-17.15
-19.08
-18.63
-15.53
-10.14
-3.34
3.79
10.20
15.18
18.33
19.61
19.27
17.74
15.54
13.19
11.10
9.48
8.37
7.70
7.29
6.98
6.53
5.83
4.79
3.50
2.08
0.63
-0.93
-2.85
-5.47
-8.97
-13.15
-17.38
-20.65
-21.89
-20.36
-15.90
-9.07
-1.00
6.94
13.52
17.94
19.98
19.92
18.35
15.98
13.39
11.02
9.12
7.80
7.02
6.66
6.49
6.29
5.94
5.39
4.72
3.90
2.85
1.35
-0.78
-3.63
-7.09
-10.86
-14.52
-17.47
-19.08
-18.73
-15.99
-10.90
-4.01
3.64
10.81
16.39
19.77
20.87
20.04
17.84
14.90
11.78
9.01
6.99
5.99
6.00
6.79
7.94
8.97
9.46
9.16
8.04
6.26
4.20
2.17
0.37
-1.37
-3.43
-6.16
-9.56
-13.03
-15.50
-15.86
-13.50
-8.61
-2.20
4.41
10.00
13.90
15.98
16.47
15.73
14.10
11.91
9.49
7.25
5.54
4.59
4.40
4.75
5.34
5.88
6.16
6.09
5.62
4.75
3.43
1.64
-0.64
-3.33
-6.29
-9.30
-12.05
-14.15
-15.18
-14.78
-12.69
-8.96
-3.96
1.62
6.93
11.16
13.69
14.34
13.27
11.04
8.26
5.60
3.46
2.00
1.18
0.77
0.54
0.27
-0.20
-1.00
-2.16
-3.60
-5.19
-6.67
-7.95
-9.07
-10.35
-12.13
-14.55
-17.36
-19.86
-21.18
-20.60
-17.85
-13.17
-7.20
-0.69
5.66
11.34
15.98
19.31
21.15
21.49
20.58
18.97
17.30
16.16
15.87
16.39
17.43
18.56
19.41
19.76
19.58
18.93
18.00
16.85
15.58
14.11
12.30
10.04
7.35
4.46
1.89
0.28
0.12
1.60
4.44
8.04
11.65
14.64
16.61
17.49
17.42
16.68
15.57
14.35
13.23
12.38
11.89
11.71
11.69
11.55
10.99
9.87
8.27
6.44
4.72
3.33
2.22
1.14
-0.29
-2.34
-4.97
-7.82
-10.30
-11.71
-11.57
-9.72
-6.42
-2.30
1.85
5.32
7.66
8.71
8.56
7.43
5.58
3.33
1.04
-0.83
-1.88
-1.92
-1.08
0.22
1.36
1.93
1.86
1.45
1.17
1.34
1.98
2.71
3.01
2.49
1.05
-0.99
-3.08
-4.62
-5.14
-4.44
-2.56
0.22
3.43
6.53
8.99
10.39
10.50
9.32
7.06
4.16
1.15
-1.39
-3.05
-3.72
-3.63
-3.20
-2.88
-2.95
-3.37
-4.01
-4.68
-5.32
-6.02
-6.90
-8.00
-9.32
-10.74
-12.17
-13.50
-14.52
-14.90
-14.31
-12.53
-9.69
-6.22
-2.81
-0.07
1.65
2.30
2.07
1.24
0.05
-1.22
-2.31
-2.89
-2.73
-1.81
-0.40
1.00
1.91
2.00
1.29
0.01
-1.50
-3.02
-4.47
-5.86
-7.25
-8.61
-9.86
-10.88
-11.51
-11.61
-11.03
-9.68
-7.58
-4.88
-1.89
1.01
3.43
5.08
5.80
5.59
4.67
3.38
2.15
1.37
1.19
1.57
2.23
2.86
3.21
3.22
2.97
2.58
2.18
1.79
1.39
0.96
0.47
-0.13
-0.90
-1.87
-3.05
-4.30
-5.40
-6.02
-5.85
-4.65
-2.40
0.65
4.07
7.28
9.78
11.22
11.54
10.90
9.61
7.98
6.28
4.69
3.29
2.19
1.40
0.94
0.72
0.65
0.65
0.63
0.54
0.29
-0.22
-1.04
-2.19
-3.54
-4.96
-6.37
-7.75
-9.11
-10.37
-11.29
-11.53
-10.81
-9.14
-6.83
-4.46
-2.59
-1.58
-1.56
-2.38
-3.81
-5.59
-7.44
-9.12
-10.42
-11.21
-11.53
-11.49
-11.27
-11.05
-10.95
-11.00
-11.19
-11.38
-11.32
-10.77
-9.54
-7.74
-5.74
-4.05
-3.09
-2.88
-3.00
-2.80
-1.74
0.35
3.23
6.42
9.50
12.27
14.67
16.67
18.10
18.70
18.28
16.91
14.97
13.00
11.37
10.20
9.27
8.28
7.01
5.48
3.89
2.47
1.33
0.44
-0.34
-1.18
-2.19
-3.36
-4.62
-5.80
-6.74
-7.27
-7.29
-6.76
-5.71
-4.25
-2.55
-0.83
0.65
1.62
1.91
1.49
0.55
-0.66
-1.89
-2.97
-3.91
-4.76
-5.61
-6.46
-7.28
-8.09
-8.91
-9.81
-10.87
-12.02
-13.11
-13.96
-14.40
-14.39
-14.03
-13.44
-12.79
-12.08
-11.17
-9.84
-7.91
-5.37
-2.49
0.35
2.75
4.41
5.30
5.56
5.41
5.01
4.41
3.62
2.67
1.74
1.07
0.85
1.10
1.63
2.18
2.48
2.45
2.17
1.81
1.51
1.30
1.09
0.79
0.40
-0.03
-0.38
-0.55
-0.49
-0.17
0.46
1.49
2.93
4.75
6.75
8.64
10.11
10.96
11.08
10.48
9.29
7.71
6.05
4.63
3.78
3.64
4.12
4.89
5.49
5.52
4.78
3.29
1.25
-1.01
-3.17
-4.98
-6.26
-7.06
-7.56
-8.02
-8.69
-9.57
-10.39
-10.69
-10.02
-8.22
-5.46
-2.25
0.80
3.19
4.72
5.37
5.25
4.50
3.26
1.72
0.19
-1.02
-1.64
-1.63
-1.22
-0.75
-0.58
-0.86
-1.53
-2.36
-3.12
-3.67
-3.97
-4.09
-4.05
-3.92
-3.76
-3.69
-3.83
-4.26
-4.89
-5.44
-5.52
-4.77
-3.07
-0.62
2.15
4.69
6.58
7.60
7.83
7.48
6.84
6.06
5.24
4.37
3.47
2.62
1.97
1.63
1.56
1.60
1.52
1.15
0.48
-0.35
-1.13
-1.79
-2.36
-2.98
-3.81
-4.84
-5.93
-6.81
-7.24
-7.06
-6.22
-4.77
-2.86
-0.75
1.26
2.82
3.65
3.67
2.97
1.80
0.49
-0.73
-1.73
-2.56
-3.27
-3.95
-4.56
-5.00
-5.15
-4.91
-4.28
-3.39
-2.47
-1.76
-1.48
-1.69
-2.32
-3.22
-4.20
-5.10
-5.78
-6.14
-6.02
-5.29
-3.83
-1.70
0.85
3.39
5.45
6.60
6.70
5.86
4.34
2.52
0.72
-0.83
-1.99
-2.70
-2.99
-2.95
-2.77
-2.66
-2.78
-3.20
-3.89
-4.68
-5.48
-6.23
-6.97
-7.82
-8.86
-10.09
-11.43
-12.74
-13.84
-14.61
-15.00
-15.01
-14.77
-14.44
-14.21
-14.25
-14.69
-15.58
-16.96
-18.84
-21.21
-23.95
-26.82
-29.39
-31.18
-31.82
-31.18
-29.43
-26.94
-24.16
-21.39
-18.65
-15.79
-12.67
-9.22
-5.64
-2.23
0.71
2.94
4.45
5.33
5.80
6.08
6.38
6.86
7.56
8.34
8.93
8.97
8.19
6.55
4.40
2.39
1.38
2.17
5.33
11.02
18.95
28.43
38.48
48.08
56.37
62.74
66.90
68.72
68.20
65.30
59.99
52.37
42.73
31.55
19.49
7.14
-4.97
-16.42
-26.82
-35.71
-42.60
-47.18
-49.44
-49.78
-48.87
-47.43
-45.87
-44.30
-42.56
-40.48
-38.08
-35.56
-33.18
-31.00
-28.85
-26.39
-23.40
-19.92
-16.26
-12.85
-9.99
-7.75
-5.93
-4.23
-2.40
-0.38
1.73
3.74
5.44
6.73
7.65
8.43
9.44
11.06
13.60
17.09
21.23
25.47
29.23
32.07
33.86
34.77
35.07
35.09
35.00
34.85
34.64
34.37
34.00
33.48
32.75
31.74
30.37
28.65
26.63
24.37
22.00
19.59
17.21
14.82
12.28
9.43
6.19
2.77
-0.38
-2.73
-3.93
-4.06
-3.56
-2.99
-2.79
-3.07
-3.75
-4.73
-6.06
-7.92
-10.39
-13.33
-16.23
-18.45
-19.41
-18.88
-16.94
-13.96
-10.36
-6.47
-2.39
2.03
7.13
13.27
20.71
29.31
38.64
47.98
56.59
63.88
69.50
73.44
75.89
77.22
77.85
78.07
77.88
76.81
73.99
68.41
59.35
46.80
31.58
15.15
-0.86
-15.14
-26.96
-36.22
-43.19
-48.23
-51.63
-53.61
-54.45
-54.49
-54.15
-53.77
-53.48
-53.20
-52.69
-51.74
-50.24
-48.21
-45.74
-42.90
-39.69
-36.10
-32.19
-28.13
-24.16
-20.57
-17.57
-15.25
-13.63
-12.63
