1513727400.00
64.000000
-0.00
-0.00
-0.00
-0.00
-0.00
-0.00
-0.00
-0.00
-0.00
-0.00
0.00
0.01
0.01
-0.00
-0.03
-0.05
-0.05
0.00
0.13
0.36
0.66
1.01
1.37
1.72
2.06
2.40
2.79
3.24
3.80
4.42
5.06
5.66
6.20
6.68
7.15
7.68
8.31
9.14
10.09
11.04
11.88
12.56
13.14
13.76
14.65
15.96
17.91
20.32
22.90
25.38
27.58
29.57
31.68
34.32
37.81
42.54
48.15
54.10
59.83
64.97
69.58
74.14
79.34
85.71
93.76
103.00
112.62
121.73
129.77
136.75
143.30
150.75
157.77
166.64
177.95
191.79
206.97
220.57
228.25
225.36
208.53
176.87
132.76
80.05
23.07
-34.94
-92.44
-149.16
-205.23
-260.37
-313.74
-363.87
-409.83
-450.91
-486.50
-515.74
-537.23
-549.22
-549.96
-538.37
-514.21
-478.67
-433.88
-382.45
-327.02
-269.84
-212.63
-156.66
-102.95
-52.37
-5.90
35.58
71.43
101.35
125.50
144.38
158.69
169.15
176.37
180.75
182.57
182.07
179.51
175.23
169.65
163.18
156.15
148.81
141.30
133.69
126.02
118.33
110.69
103.16
95.80
88.68
81.83
75.25
68.95
62.95
57.25
51.86
46.79
42.03
37.60
33.48
29.65
26.13
22.89
19.94
17.26
14.85
12.71
10.81
9.16
7.72
6.49
5.45
4.58
3.85
3.27
2.79
2.42
2.14
1.93
1.79
1.70
1.67
1.67
1.71
1.79
1.89
2.03
2.20
2.39
2.62
2.87
3.16
3.47
3.82
4.21
4.63
5.09
5.59
6.14
6.72
7.35
8.03
8.75
9.53
10.35
11.22
12.15
13.12
14.15
15.23
16.37
17.58
18.87
20.23
21.66
23.13
24.56
25.84
26.86
27.44
27.48
26.87
25.55
23.50
20.71
17.23
13.07
8.35
3.24
-2.02
-7.18
-11.94
-16.08
-19.44
-21.96
-23.75
-24.89
-25.55
-25.82
-25.72
-25.22
-24.31
-23.02
-21.53
-20.09
-18.99
-18.42
-18.36
-18.60
-18.77
-18.52
-17.72
-16.58
-15.56
-15.20
-15.86
-17.53
-19.79
-21.95
-23.37
-23.78
-23.49
-23.29
-24.10
-26.50
-30.50
-35.47
-40.40
-44.37
-46.91
-48.26
-49.19
-50.76
-53.91
-59.60
-68.43
-80.16
-93.09
-103.90
-108.29
-102.43
-84.76
-56.90
-23.62
8.92
35.43
53.20
62.46
65.46
64.96
62.11
57.65
51.96
45.58
39.48
34.83
32.40
32.14
33.22
34.26
34.21
32.50
29.25
25.07
20.63
16.37
12.33
8.29
4.02
-0.41
-4.74
-8.59
-11.75
-14.31
-16.67
-19.38
-22.64
-26.15
-28.79
-29.13
-25.88
-18.41
-7.17
6.53
20.81
33.86
44.35
51.64
55.72
56.87
55.59
52.38
47.78
42.36
36.63
31.14
26.23
22.18
19.06
16.86
15.47
14.71
14.32
13.97
13.38
12.30
10.65
8.51
6.07
3.52
1.03
-1.34
-3.62
-5.97
-8.67
-12.04
-16.38
-21.74
-27.75
-33.53
-37.77
-39.14
-36.60
-29.86
-19.47
-6.73
6.66
19.06
29.24
36.58
40.98
42.78
42.49
40.62
37.58
33.78
29.66
25.76
22.68
20.89
20.62
21.73
23.70
25.82
27.36
27.78
26.82
24.48
20.96
16.51
11.36
5.63
-0.56
-7.15
-14.03
-21.13
-28.34
-35.64
-42.90
-49.77
-55.64
-59.56
-60.55
-57.86
-51.36
-41.65
-30.00
-17.97
-6.99
1.94
8.42
12.56
14.73
15.38
14.91
13.59
11.69
9.54
7.53
6.06
5.38
5.51
6.15
6.87
7.21
6.84
5.68
3.78
1.30
-1.63
-4.94
-8.53
-12.32
-16.20
-20.13
-24.14
-28.45
-33.30
-38.77
-44.63
-50.20
-54.44
-56.17
-54.50
-49.08
-40.30
-29.18
-17.05
-5.26
5.20
13.71
20.12
24.50
27.12
28.32
28.42
27.80
26.74
25.50
24.26
23.13
22.15
21.30
20.53
19.78
18.97
18.06
16.99
15.64
13.82
11.31
7.97
3.87
-0.70
-5.27
-9.39
-12.90
-15.94
-18.99
-22.61
-27.21
-32.79
-38.85
-44.38
-48.15
-48.96
-46.12
-39.63
-30.26
-19.31
-8.21
1.86
10.22
16.64
21.23
24.19
25.69
25.94
25.21
23.89
22.47
21.34
20.69
20.44
20.33
20.05
19.45
18.55
17.55
16.64
15.82
14.94
13.65
11.68
8.90
5.40
1.47
-2.53
-6.31
-9.74
-12.87
-15.93
-19.25
-23.16
-27.85
-33.20
-38.70
-43.42
-46.20
-45.99
-42.16
-34.84
-24.90
-13.70
-2.69
7.00
14.86
20.80
25.11
28.00
29.59
29.86
28.89
26.97
24.64
22.53
21.13
20.61
20.81
21.29
21.63
21.55
21.04
20.25
19.34
18.35
17.12
15.36
12.80
9.38
5.24
0.74
-3.73
-7.85
-11.48
-14.68
-17.65
-20.65
-23.91
-27.65
-31.87
-36.34
-40.50
-43.46
-44.24
-42.06
-36.71
-28.61
-18.81
-8.59
0.80
8.53
14.24
17.90
19.78
20.12
19.28
17.59
15.48
13.45
11.88
11.02
10.88
11.30
12.00
12.73
13.29
13.53
13.40
12.81
11.74
10.20
8.29
6.13
3.87
1.59
-0.69
-3.03
-5.63
-8.66
-12.31
-16.62
-21.39
-26.20
-30.29
-32.81
-32.99
-30.38
-25.03
-17.52
-8.83
-0.02
7.95
14.47
19.22
22.23
23.63
23.67
22.63
20.85
18.71
16.59
14.82
13.55
12.81
12.47
12.33
12.20
11.91
11.39
10.56
9.39
7.79
5.72
3.16
0.17
-3.13
-6.54
-9.85
-12.92
-15.82
-18.77
-22.16
-26.26
-31.06
-36.01
-40.20
-42.47
-41.88
-37.99
-31.06
-21.97
-11.89
-1.99
6.86
14.10
19.51
23.01
24.68
24.76
23.65
21.87
20.01
18.52
17.64
17.34
17.34
17.33
17.07
16.51
15.79
15.09
14.49
13.90
13.08
11.73
9.67
6.94
3.75
0.41
-2.79
-5.74
-8.45
-11.06
-13.75
-16.71
-20.08
-23.93
-28.07
-31.93
-34.71
-35.48
-33.53
-28.70
-21.47
-12.82
-3.87
4.39
11.39
16.94
21.06
23.84
25.36
25.72
25.13
23.93
22.49
21.17
20.16
19.47
18.99
18.57
18.12
17.57
16.95
16.30
15.63
14.89
13.96
12.66
10.84
8.41
5.40
2.05
-1.38
-4.57
-7.34
-9.66
-11.71
-13.80
-16.26
-19.35
-23.03
-26.97
-30.46
-32.60
-32.56
-29.79
-24.33
-16.77
-8.07
0.69
8.64
15.28
20.48
24.33
26.97
28.44
28.78
28.07
26.56
24.71
23.05
22.02
21.73
21.98
22.33
22.36
21.82
20.78
19.48
18.20
17.11
16.14
15.11
13.73
11.84
9.38
6.49
3.42
0.42
-2.31
-4.74
-6.97
-9.21
-11.67
-14.54
-17.92
-21.76
-25.86
-29.73
-32.69
-33.87
-32.53
-28.29
-21.33
-12.46
-2.85
6.26
13.91
19.56
23.14
24.85
25.03
24.01
22.13
19.73
17.19
14.88
13.12
12.08
11.76
12.02
12.64
13.39
14.08
14.58
14.79
14.61
13.98
12.88
11.33
9.41
7.26
5.04
2.88
0.88
-1.00
-2.90
-5.03
-7.59
-10.63
-13.98
-17.18
-19.53
-20.23
-18.62
-14.37
-7.62
0.99
10.50
19.79
27.87
34.07
38.04
39.82
39.64
37.88
34.90
31.10
26.90
22.69
18.87
15.68
13.26
11.57
10.49
9.87
9.56
9.37
9.10
8.45
7.13
4.93
1.85
-1.93
-6.02
-10.08
-13.82
-17.22
-20.40
-23.66
-27.26
-31.31
-35.61
-39.59
-42.36
-43.01
-40.76
-35.34
-27.07
-16.82
-5.78
4.78
13.87
20.83
25.47
27.90
28.46
27.54
25.54
22.83
19.77
16.74
14.08
12.04
10.71
10.02
9.75
9.67
9.57
9.31
8.80
7.89
6.49
4.48
1.89
-1.16
-4.48
-7.81
-11.02
-14.05
-16.99
-20.05
-23.43
-27.26
-31.36
-35.22
-37.98
-38.69
-36.60
-31.43
-23.57
-13.91
-3.66
6.08
14.47
21.05
25.68
28.43
29.51
29.15
27.67
25.43
22.86
20.38
18.29
16.76
15.77
15.18
14.74
14.22
13.47
12.44
11.14
9.58
7.73
5.49
2.78
-0.47
-4.10
-7.86
-11.43
-14.53
-17.15
-19.51
-22.02
-25.05
-28.75
-32.85
-36.69
-39.35
-39.91
-37.75
-32.66
-25.01
-15.53
-5.25
4.82
13.83
21.18
26.59
30.04
31.71
31.89
30.96
29.26
27.13
24.84
22.60
20.57
18.86
17.49
16.46
15.69
15.03
14.33
13.40
12.06
10.23
7.87
5.06
1.95
-1.26
-4.40
-7.33
-10.01
-12.56
-15.13
-17.98
-21.27
-25.00
-28.84
-32.12
-33.91
-33.28
-29.65
-23.02
-14.05
-3.91
6.10
14.89
21.80
26.59
29.35
30.32
29.79
28.04
25.41
22.27
19.00
15.98
13.46
11.62
10.45
9.81
9.44
9.04
8.34
7.15
5.43
3.21
0.63
-2.20
-5.13
-8.05
-10.89
-13.62
-16.32
-19.15
-22.27
-25.78
-29.61
-33.38
-36.46
-38.03
-37.31
-33.79
-27.48
-18.94
-9.21
0.48
9.01
15.63
20.05
22.42
23.06
22.43
20.94
18.93
16.65
14.28
11.97
9.82
7.95
6.44
5.38
4.73
4.38
4.08
3.55
2.52
0.87
-1.34
-3.87
-6.45
-8.83
-10.88
-12.66
-14.35
-16.16
-18.32
-20.96
-24.07
-27.49
-30.74
-33.14
-33.86
-32.16
-27.68
-20.63
-11.83
-2.41
6.45
13.91
19.59
23.50
25.90
27.04
27.14
26.35
24.88
23.05
21.19
19.59
18.38
17.46
16.64
15.72
14.58
13.28
11.95
10.70
9.51
8.26
6.73
4.74
2.24
-0.72
-3.94
-7.17
-10.14
-12.70
-14.84
-16.73
-18.68
-21.04
-24.06
-27.72
-31.69
-35.27
-37.58
-37.79
-35.33
-30.12
-22.59
-13.64
-4.33
4.34
11.73
17.53
21.76
24.59
26.13
26.49
25.79
24.26
22.26
20.22
18.49
17.22
16.32
15.56
14.72
13.70
12.58
11.50
10.58
9.78
8.89
7.65
5.79
3.23
0.06
-3.44
-6.89
-9.98
-12.49
-14.44
-15.95
-17.32
-18.86
-20.83
-23.40
-26.50
-29.81
-32.72
-34.44
-34.16
-31.37
-26.01
-18.58
-10.01
-1.36
6.46
12.88
17.69
20.96
22.89
23.62
23.32
22.15
20.40
18.40
16.54
15.09
14.19
13.82
13.78
13.82
13.67
13.17
12.24
10.95
9.47
7.96
6.47
4.88
3.01
0.66
-2.12
-5.10
-7.88
-10.11
-11.69
-12.77
-13.66
-14.70
-16.11
-17.93
-20.10
-22.50
-24.90
-26.99
-28.23
-28.03
-25.84
-21.42
-14.99
-7.22
0.91
8.43
14.60
19.09
21.87
23.17
23.23
22.29
20.54
18.20
15.62
13.16
11.14
9.72
8.87
8.41
8.12
7.88
7.64
7.37
7.01
6.41
5.42
3.93
1.94
-0.40
-2.88
-5.31
-7.53
-9.48
-11.17
-12.70
-14.26
-16.07
-18.29
-20.92
-23.67
-25.94
-26.97
-26.03
-22.72
-17.12
-9.77
-1.55
6.57
13.73
19.38
23.24
25.29
25.70
24.75
22.81
20.25
17.47
14.75
12.26
10.09
8.24
6.68
5.41
4.42
3.64
2.99
2.31
1.43
0.24
-1.30
-3.16
-5.23
-7.43
-9.71
-11.99
-14.27
-16.53
-18.83
-21.27
-23.93
-26.74
-29.35
-31.14
-31.33
-29.28
-24.80
-18.21
-10.38
-2.34
4.96
10.94
15.35
18.27
19.84
20.19
19.46
17.80
15.46
12.77
10.14
7.89
6.22
5.15
4.52
4.16
3.84
3.45
2.93
2.26
1.43
0.40
-0.89
-2.48
-4.34
-6.40
-8.52
-10.62
-12.73
-14.99
-17.62
-20.78
-24.36
-27.92
-30.66
-31.64
-30.15
-25.94
-19.36
-11.28
-2.78
5.15
11.84
16.94
20.37
22.21
22.63
21.89
20.34
18.42
16.52
14.87
13.53
12.43
11.46
10.57
9.81
9.25
8.86
8.48
7.89
6.87
5.34
3.38
1.15
-1.17
-3.54
-5.99
-8.56
-11.31
-14.23
-17.33
-20.56
-23.91
-27.26
-30.27
-32.36
-32.86
-31.18
-27.08
-20.78
-13.01
-4.73
3.07
9.67
14.69
18.08
20.02
20.78
20.64
19.83
18.57
17.06
15.49
14.02
12.76
11.74
10.99
10.46
10.09
9.81
9.48
8.97
8.05
6.57
4.45
1.81
-1.13
-4.03
-6.69
-9.07
-11.34
-13.81
-16.73
-20.20
-24.02
-27.78
-30.85
-32.60
-32.42
-29.94
-25.12
-18.31
-10.22
-1.80
5.97
12.31
16.82
19.46
20.52
20.40
19.51
18.14
16.47
14.63
12.75
10.97
9.38
8.10
7.16
6.55
6.23
6.06
5.88
5.47
4.66
3.31
1.46
-0.79
-3.25
-5.74
-8.12
-10.33
-12.41
-14.47
-16.69
-19.16
-21.88
-24.57
-26.64
-27.34
-25.98
-22.19
-16.18
-8.64
-0.59
6.95
13.22
17.88
20.90
22.49
22.87
22.27
20.87
18.87
16.53
14.14
12.00
10.27
9.02
8.15
7.53
7.06
6.68
6.36
6.01
5.51
4.64
3.26
1.32
-1.03
-3.58
-6.13
-8.55
-10.89
-13.26
-15.82
-18.67
-21.70
-24.58
-26.69
-27.29
-25.74
-21.77
-15.60
-7.97
0.12
7.72
14.08
18.87
22.03
23.69
23.99
23.12
21.27
18.72
15.81
12.92
10.39
8.44
7.16
6.45
6.08
5.80
5.40
4.75
3.84
2.72
1.44
0.01
-1.58
-3.39
-5.46
-7.90
-10.78
-14.14
-17.92
-21.90
-25.59
-28.34
-29.43
-28.26
-24.64
-18.81
-11.50
-3.69
3.66
9.82
14.45
17.49
19.12
19.48
18.69
16.88
14.25
11.16
8.07
5.45
3.55
2.46
2.00
1.89
1.80
1.46
0.67
-0.63
-2.39
-4.46
-6.62
-8.69
-10.57
-12.36
-14.23
-16.41
-19.07
-22.23
-25.70
-29.02
-31.53
-32.43
-31.05
-27.06
-20.66
-12.61
-3.96
4.15
10.91
15.92
19.17
20.88
21.35
20.88
19.72
18.16
16.48
14.92
13.65
12.71
12.05
11.56
11.17
10.84
10.56
10.29
9.90
9.23
8.07
6.25
3.73
0.64
-2.78
-6.16
-9.17
-11.65
-13.65
-15.46
-17.44
-19.88
-22.77
-25.74
-28.13
-29.16
-28.26
-25.21
-20.29
-14.17
-7.71
-1.76
3.06
6.53
8.77
10.18
11.29
12.52
14.16
16.27
18.80
21.57
24.25
26.39
27.38
26.68
23.97
19.36
13.46
7.15
1.31
-3.52
-7.27
-10.23
-12.79
-15.18
-17.30
-18.75
-19.03
-17.78
-14.95
-10.92
-6.47
-2.58
-0.27
-0.26
-2.72
-7.19
-12.58
-17.54
-20.81
-21.69
-20.13
-16.73
-12.37
-7.88
-3.77
-0.20
2.95
5.90
8.84
11.88
15.09
18.47
21.92
25.19
27.91
29.62
29.90
28.53
25.56
21.31
16.28
11.06
6.21
2.15
-0.91
-3.01
-4.44
-5.54
-6.58
-7.66
-8.66
-9.35
-9.59
-9.46
-9.27
-9.51
-10.68
-13.09
-16.75
-21.20
-25.66
-29.02
-30.26
-28.64
-23.96
-16.74
-7.96
1.15
9.50
16.36
21.41
24.71
26.50
27.08
26.72
25.67
24.13
22.31
20.36
18.39
16.51
14.74
13.10
11.58
10.16
8.77
7.38
5.99
4.58
3.16
1.73
0.27
-1.29
-2.99
-4.88
-6.97
-9.29
-11.91
-14.90
-18.19
-21.51
-24.32
-25.84
-25.35
-22.38
-16.95
-9.61
-1.32
6.80
13.76
18.95
22.18
23.62
23.63
22.58
20.78
18.44
15.72
12.79
9.86
7.12
4.73
2.74
1.17
-0.02
-0.88
-1.56
-2.27
-3.25
-4.76
-6.88
-9.51
-12.37
-15.15
-17.62
-19.74
-21.66
-23.63
-25.91
-28.63
-31.70
-34.74
-37.11
-37.97
-36.55
-32.43
-25.72
-17.16
-7.83
1.10
8.79
14.80
19.11
21.91
23.41
23.83
23.34
22.21
20.76
19.29
17.99
16.89
15.90
14.90
13.85
12.80
11.87
11.13
10.51
9.81
8.74
7.06
4.70
1.79
-1.41
-4.55
-7.42
-9.97
-12.31
-14.65
-17.20
-20.11
-23.38
-26.89
-30.30
-33.03
-34.30
-33.31
-29.51
-22.82
-13.88
-3.80
6.01
14.36
20.51
24.33
26.14
26.54
26.20
25.73
25.56
25.96
26.93
28.26
29.50
30.20
30.00
28.84
26.96
24.72
22.46
20.31
18.13
15.64
12.51
8.50
3.56
-2.22
-8.64
-15.38
-22.03
-28.15
-33.33
-37.25
-39.79
-40.95
-40.82
-39.39
-36.57
-32.21
-26.18
-18.54
-9.57
0.20
10.06
19.22
26.88
32.40
35.39
35.84
34.06
30.64
26.23
21.40
16.57
11.92
7.59
3.63
0.15
-2.70
-4.81
-6.06
-6.40
-5.89
-4.70
-3.17
-1.77
-0.95
-1.05
-2.18
-4.19
-6.83
-9.84
-13.12
-16.74
-20.91
-25.77
-31.29
-37.10
-42.44
-46.34
-47.77
-45.97
-40.63
-32.05
-21.10
-9.00
2.90
13.42
21.74
27.47
30.60
31.40
30.24
27.52
23.66
19.09
14.32
9.90
6.35
4.04
3.09
3.35
4.40
5.79
7.02
7.72
7.64
6.67
4.84
2.24
-0.98
-4.65
-8.58
-12.60
-16.55
-20.32
-23.88
-27.31
-30.60
-33.58
-35.81
-36.59
-35.20
-31.18
-24.56
-15.89
-6.15
3.47
11.92
18.39
22.48
24.19
23.82
21.91
19.05
15.85
12.80
10.32
8.65
7.96
8.19
9.10
10.28
11.28
11.77
11.63
10.97
9.94
8.64
6.99
4.77
1.80
-1.93
-6.17
-10.51
-14.51
-17.92
-20.69
-22.99
-25.03
-26.87
-28.32
-28.84
-27.83
-24.77
-19.51
-12.43
-4.36
3.55
10.26
15.05
17.72
18.56
18.19
17.33
16.56
16.22
16.32
16.66
16.97
17.06
16.93
16.71
16.50
16.23
15.64
14.29
11.90
8.43
4.18
-0.31
-4.50
-7.99
-10.62
-12.43
-13.62
-14.49
-15.37
-16.60
-18.31
-20.37
-22.26
-23.29
-22.75
-20.28
-15.95
-10.27
-3.97
2.28
7.94
12.79
16.72
19.69
21.65
22.59
22.54
21.64
20.17
18.41
16.59
14.77
12.85
10.61
7.80
4.35
0.42
-3.49
-6.77
-8.87
-9.58
-9.11
-8.03
-7.10
-6.91
-7.82
-9.86
-12.89
-16.53
-20.31
-23.56
-25.52
-25.49
-23.00
-18.02
-10.95
-2.52
6.41
14.99
22.45
28.23
31.91
33.38
32.73
30.33
26.68
22.29
17.62
13.05
8.88
5.33
2.56
0.53
-0.88
-1.94
-2.91
-3.97
-5.25
-6.73
-8.44
-10.36
-12.53
-15.06
-18.05
-21.55
-25.41
-29.17
-32.10
-33.30
-32.02
-27.94
-21.30
-12.92
-3.97
4.36
11.12
15.83
18.40
19.13
18.50
17.00
15.04
12.90
10.77
8.83
7.30
6.33
5.95
5.98
6.01
5.62
4.54
2.87
0.95
-0.77
-1.96
-2.61
-3.00
-3.60
-4.84
-6.99
-10.01
-13.60
-17.23
-20.25
-22.01
-22.00
-19.96
-15.94
-10.34
-3.84
2.78
8.80
13.75
17.42
19.88
21.32
21.93
21.81
21.04
19.71
17.99
16.16
14.54
13.34
12.59
12.16
11.76
11.10
9.97
8.33
6.27
3.95
1.55
-0.88
-3.45
-6.41
-10.04
-14.51
-19.81
-25.58
-31.16
-35.68
-38.20
-37.94
-34.54
-28.14
-19.40
-9.30
1.06
10.70
18.89
25.18
29.34
31.35
31.32
29.51
26.35
22.42
18.38
14.85
12.27
10.83
10.38
10.49
10.62
10.26
9.11
7.12
4.45
1.32
-2.12
-5.79
-9.68
-13.74
-17.81
-21.68
-25.14
-28.06
-30.45
-32.30
-33.39
-33.31
-31.49
-27.47
-21.19
-13.13
-4.24
4.40
11.86
17.61
21.58
23.99
25.16
25.36
24.73
23.35
21.31
18.78
16.00
13.23
10.74
8.79
7.48
6.84
6.72
6.81
6.72
6.10
4.70
2.49
-0.43
-3.85
-7.53
-11.31
-15.06
-18.75
-22.44
-26.20
-30.05
-33.77
-36.78
-38.18
-37.02
-32.65
-25.06
-15.04
-3.88
6.91
16.17
23.27
28.15
31.04
32.27
32.12
30.77
28.40
25.25
21.66
17.95
14.44
11.36
8.88
7.11
6.06
5.66
5.70
5.87
5.81
5.22
3.95
1.99
-0.49
-3.30
-6.24
-9.17
-12.08
-15.02
-18.13
-21.49
-25.08
-28.65
-31.66
-33.33
-32.84
-29.59
-23.53
-15.22
-5.81
3.35
11.05
16.60
19.89
21.27
21.30
20.48
19.14
17.52
15.79
14.17
12.88
12.07
11.80
11.95
12.35
12.78
13.10
13.15
12.86
12.14
10.95
9.26
7.10
4.57
1.77
-1.16
-4.12
-7.03
-9.91
-12.86
-16.01
-19.51
-23.31
-27.15
-30.45
-32.46
-32.41
-29.76
-24.44
-16.90
-8.04
1.00
9.17
15.73
20.37
23.10
24.19
23.95
22.69
20.70
18.28
15.75
13.46
11.66
10.42
9.66
9.20
8.82
8.34
7.68
6.79
5.65
4.24
2.56
0.66
-1.42
-3.59
-5.85
-8.25
-10.90
-13.93
-17.34
-21.03
-24.66
-27.67
-29.39
-29.14
-26.50
-21.42
-14.34
-6.07
2.40
10.13
16.46
21.06
23.91
25.19
25.16
24.10
22.26
19.87
17.14
14.31
11.57
9.16
7.20
5.79
4.89
4.35
3.95
3.46
2.66
1.41
-0.31
-2.45
-4.86
-7.37
-9.84
-12.22
-14.57
-17.02
-19.72
-22.74
-25.97
-29.07
-31.47
-32.48
-31.48
-28.07
-22.33
-14.77
-6.32
1.97
9.16
14.64
18.22
20.05
20.50
19.99
18.86
17.42
15.85
14.31
12.92
11.73
10.74
9.88
9.08
8.25
7.34
6.37
5.33
4.22
2.98
1.52
-0.22
-2.28
-4.65
-7.22
-9.93
-12.70
-15.51
-18.38
-21.29
-24.15
-26.70
-28.54
-29.17
-28.14
-25.21
-20.40
-14.04
-6.68
1.01
8.32
14.64
19.48
22.55
23.84
23.59
22.23
20.25
18.08
15.99
14.12
12.52
11.17
10.06
9.18
8.50
7.94
7.44
6.89
6.18
5.21
3.90
2.26
0.36
-1.63
-3.56
-5.29
-6.86
-8.38
-10.07
-12.14
-14.67
-17.56
-20.44
-22.72
-23.69
-22.72
-19.45
-13.93
-6.68
1.45
9.49
16.61
22.31
26.46
29.22
30.86
31.58
31.43
30.40
28.50
25.91
22.96
20.06
17.50
15.39
13.66
12.14
10.71
9.26
7.79
6.20
4.36
2.12
-0.56
-3.57
-6.64
-9.49
-12.03
-14.35
-16.79
-19.72
-23.39
-27.86
-32.99
-38.48
-43.89
-48.58
-51.80
-52.77
-50.88
-46.01
-38.63
-29.74
-20.67
-12.63
-6.43
-2.36
-0.22
0.49
0.35
-0.20
-0.81
-1.33
-1.65
-1.69
-1.40
-0.71
0.37
1.78
3.40
5.08
6.67
8.08
9.20
9.97
10.31
10.12
9.36
8.04
6.26
4.18
1.99
-0.16
-2.16
-4.05
-5.95
-8.02
-10.36
-12.91
-15.33
-17.14
-17.73
-16.69
-13.89
-9.63
-4.49
0.86
5.83
10.06
13.38
15.82
17.43
18.31
18.56
18.30
17.65
16.74
15.69
14.60
13.55
12.59
11.72
10.92
10.14
9.29
8.30
7.17
5.94
4.75
3.69
2.86
2.23
1.69
1.00
-0.16
-2.04
-4.76
-8.13
-11.61
-14.39
-15.60
-14.54
-10.91
-4.99
2.51
10.55
18.13
24.45
29.10
31.97
33.15
32.80
31.09
28.26
24.62
20.65
16.89
13.79
11.57
10.11
9.08
8.01
6.55
4.58
2.19
-0.37
-2.86
-5.16
-7.27
-9.31
-11.46
-13.93
-16.92
-20.54
-24.78
-29.40
-33.88
-37.52
-39.49
-39.15
-36.16
-30.66
-23.31
-15.03
-6.88
0.31
6.08
10.33
13.21
14.94
15.70
15.51
14.42
12.58
10.33
8.11
6.35
5.27
4.78
4.60
4.38
3.87
3.01
1.89
0.66
-0.64
-2.03
-3.62
-5.51
-7.76
-10.40
-13.44
-16.85
-20.56
-24.32
-27.67
-29.96
-30.50
-28.78
-24.65
-18.44
-10.86
-2.81
4.83
11.41
16.60
20.30
22.57
23.55
23.38
22.27
20.48
18.33
16.13
14.18
12.63
11.51
10.72
10.10
9.45
8.63
7.56
6.25
4.74
3.06
1.23
-0.80
-3.08
-5.67
-8.56
-11.68
-14.90
-18.05
-20.92
-23.25
-24.70
-24.91
-23.50
-20.22
-15.03
-8.23
-0.44
7.47
14.56
20.06
23.58
25.11
24.94
23.53
21.27
18.47
15.38
12.30
9.54
7.42
6.11
5.60
5.66
5.91
6.02
5.74
4.97
3.72
2.07
0.10
-2.08
-4.38
-6.70
-8.96
-11.19
-13.48
-15.98
-18.84
-22.09
-25.53
-28.71
-30.98
-31.63
-30.09
-26.10
-19.77
-11.67
-2.59
6.53
14.85
21.74
26.89
30.20
31.78
31.77
30.38
27.91
24.72
21.29
18.10
15.49
13.60
12.31
11.36
10.42
9.27
7.72
5.68
3.15
0.23
-2.81
-5.64
-7.91
-9.41
-10.15
-10.38
-10.53
-11.05
-12.35
-14.63
-17.92
-21.89
-25.96
-29.24
-30.78
-29.85
-26.20
-20.19
-12.70
-4.90
2.17
7.81
11.84
14.50
16.23
17.46
18.42
19.14
19.53
19.52
19.13
18.49
17.78
17.06
16.33
15.46
14.37
13.03
11.47
9.74
7.80
5.56
2.95
0.04
-2.97
-5.79
-8.22
-10.19
-11.83
-13.32
-14.84
-16.50
-18.27
-20.05
-21.58
-22.48
-22.33
-20.72
-17.52
-12.95
-7.57
-2.11
2.78
6.69
9.55
11.50
12.77
13.53
13.87
13.87
13.65
13.37
13.15
13.08
13.13
13.24
13.31
13.28
13.13
12.82
12.34
11.65
10.71
9.46
7.87
5.95
3.74
1.37
-1.01
-3.30
-5.46
-7.55
-9.76
-12.22
-15.00
-18.02
-21.08
-23.84
-25.91
-26.83
-26.18
-23.70
-19.37
-13.53
-6.84
-0.12
5.89
10.72
14.23
16.57
18.03
18.81
19.07
18.84
18.25
17.43
16.61
15.92
15.38
14.90
14.31
13.58
12.74
11.94
11.30
10.79
10.25
9.40
8.08
6.21
3.92
1.43
-1.02
-3.26
-5.27
-7.07
-8.82
-10.67
-12.79
-15.20
-17.81
-20.29
-22.18
-22.98
-22.25
-19.79
-15.71
-10.38
-4.32
1.86
7.61
12.48
16.13
18.44
19.40
19.27
18.34
16.97
15.43
13.89
12.45
11.16
10.08
9.22
8.61
8.18
7.83
7.49
7.08
6.55
5.84
4.88
3.58
1.92
-0.07
-2.28
-4.58
-6.86
-9.10
-11.36
-13.71
-16.21
-18.79
-21.22
-23.16
-24.15
-23.74
-21.66
-17.86
-12.64
-6.62
-0.57
4.76
8.78
11.24
12.16
11.82
10.57
8.76
6.65
4.45
2.36
0.51
-0.94
-1.94
-2.51
-2.76
-2.83
-2.86
-2.95
-3.13
-3.42
-3.84
-4.43
-5.27
-6.43
-7.94
-9.75
-11.76
-13.81
-15.82
-17.82
-19.89
-22.14
-24.57
-26.93
-28.70
-29.23
-27.98
-24.72
-19.66
-13.38
-6.73
-0.45
4.89
9.07
12.10
14.11
15.26
15.68
15.52
14.93
14.14
13.37
12.76
12.35
12.02
11.65
11.13
10.44
9.63
8.78
7.86
6.80
5.46
3.74
1.69
-0.55
-2.82
-5.01
-7.15
-9.34
-11.72
-14.33
-17.12
-20.00
-22.84
-25.44
-27.53
-28.70
-28.45
-26.39
-22.37
-16.67
-9.92
-2.95
3.46
8.80
12.86
15.69
17.43
18.25
18.32
17.83
16.98
16.00
15.04
14.19
13.47
12.84
12.28
11.80
11.39
11.01
10.56
9.91
8.88
7.34
5.23
2.59
-0.41
-3.49
-6.38
-8.89
-10.97
-12.79
-14.66
-16.94
-19.82
-23.24
-26.82
-29.90
-31.73
-31.64
-29.30
-24.81
-18.66
-11.59
-4.36
2.40
8.30
13.12
16.77
19.20
20.45
20.67
20.10
19.07
17.93
16.93
16.17
15.62
15.14
14.57
13.85
12.97
12.00
11.03
10.05
8.98
7.65
5.89
3.65
1.04
-1.72
-4.34
-6.61
-8.49
-10.13
-11.78
-13.76
-16.32
-19.51
-23.18
-26.83
-29.77
-31.20
-30.49
-27.37
-22.08
-15.26
-7.77
-0.43
6.21
11.82
16.28
19.54
21.58
22.47
22.33
21.49
20.32
19.22
18.44
18.04
17.91
17.80
17.52
16.96
16.16
15.25
14.36
13.52
12.58
11.31
9.46
6.97
3.94
0.64
-2.60
-5.55
-8.16
-10.51
-12.81
-15.28
-18.07
-21.19
-24.50
-27.68
-30.20
-31.46
-30.89
-28.12
-23.15
-16.40
-8.58
-0.57
6.85
13.06
17.75
20.84
22.45
22.87
22.46
21.60
20.61
19.74
19.09
18.64
18.35
18.12
17.92
17.69
17.41
17.04
16.50
15.68
14.52
12.92
10.85
8.33
5.46
2.43
-0.54
-3.24
-5.54
-7.47
-9.25
-11.19
-13.57
-16.47
-19.63
-22.43
-24.01
-23.61
-20.81
-15.70
-8.87
-1.25
6.19
12.67
17.73
21.25
23.34
24.20
24.10
23.27
21.93
20.28
18.51
16.79
15.24
13.95
12.94
12.19
11.62
11.13
10.56
9.79
8.71
7.21
5.29
2.99
0.45
-2.21
-4.85
-7.43
-9.99
-12.62
-15.43
-18.44
-21.57
-24.60
-27.13
-28.65
-28.64
-26.74
-22.87
-17.37
-10.87
-4.20
1.90
6.88
10.46
12.65
13.61
13.61
12.92
11.81
10.46
9.00
7.56
6.22
5.07
4.15
3.48
2.98
2.57
2.18
1.80
1.40
0.87
0.05
-1.32
-3.34
-5.97
-8.93
-11.81
-14.32
-16.35
-18.07
-19.81
-21.89
-24.44
-27.27
-29.91
-31.65
-31.84
-30.00
-26.02
-20.22
-13.24
-5.88
1.14
7.27
12.24
15.96
18.46
19.85
20.28
19.95
19.15
18.19
17.33
16.72
16.31
15.96
15.46
14.67
13.59
12.33
11.03
9.77
8.50
7.06
5.28
3.09
0.55
-2.12
-4.72
-7.06
-9.11
-10.93
-12.67
-14.44
-16.38
-18.60
-21.16
-23.96
-26.70
-28.83
-29.68
-28.66
-25.43
-20.13
-13.32
-5.88
1.29
7.49
12.37
15.88
18.19
19.54
20.11
20.00
19.34
18.28
17.06
15.91
15.01
14.39
13.95
13.53
13.00
12.35
11.65
10.97
10.31
9.56
8.59
7.27
5.56
3.53
1.35
-0.84
-2.88
-4.72
-6.37
-7.91
-9.44
-11.10
-12.99
-15.18
-17.67
-20.39
-23.16
-25.68
-27.55
-28.30
-27.48
-24.84
-20.46
-14.73
-8.29
-1.81
4.15
9.27
13.41
16.60
18.86
20.26
20.86
20.81
20.30
19.60
18.96
18.56
18.52
18.80
19.27
19.70
19.84
19.51
18.65
17.35
15.79
14.14
12.51
10.92
9.34
7.70
6.02
4.29
2.56
0.84
-0.91
-2.74
-4.68
-6.74
-8.89
-11.10
-13.38
-15.77
-18.27
-20.75
-22.87
-24.15
-24.02
-22.11
-18.34
-13.03
-6.82
-0.49
5.26
9.91
13.24
15.24
16.04
15.83
14.82
13.20
11.19
8.95
6.66
4.52
2.66
1.22
0.26
-0.20
-0.23
0.09
0.59
1.12
1.50
1.50
0.94
-0.31
-2.19
-4.48
-6.82
-8.90
-10.55
-11.88
-13.19
-14.86
-17.17
-20.10
-23.36
-26.38
-28.50
-29.09
-27.76
-24.46
-19.45
-13.32
-6.74
-0.34
5.45
10.40
14.42
17.45
19.43
20.36
20.27
19.40
18.08
16.67
15.40
14.31
13.28
12.09
10.64
8.94
7.18
5.57
4.24
3.07
1.81
0.12
-2.23
-5.24
-8.67
-12.12
-15.16
-17.52
-19.11
-20.10
-20.82
-21.69
-23.03
-24.99
-27.48
-30.12
-32.36
-33.53
-33.08
-30.68
-26.31
-20.29
-13.19
-5.68
1.58
8.02
13.26
17.07
19.43
20.49
20.56
20.04
19.29
18.56
17.94
17.41
16.87
16.25
15.49
14.60
13.63
12.64
11.71
10.91
10.25
9.67
9.04
8.13
6.75
4.77
2.26
-0.62
-3.59
-6.39
-8.92
-11.23
-13.52
-16.06
-19.01
-22.36
-25.82
-28.89
-30.93
-31.37
-29.82
-26.25
-20.94
-14.46
-7.52
-0.78
5.27
10.32
14.23
16.97
18.60
19.20
19.00
18.28
17.39
16.67
16.33
16.39
16.65
16.80
16.55
15.75
14.48
12.96
11.44
10.04
8.71
7.27
5.52
3.39
0.96
-1.59
-4.07
-6.38
-8.51
-10.50
-12.43
-14.33
-16.24
-18.20
-20.23
-22.29
-24.21
-25.63
-26.03
-24.93
-21.99
-17.22
-10.98
-3.92
3.20
9.71
15.12
19.21
21.94
23.37
23.65
22.95
21.54
19.65
17.61
15.69
14.09
12.91
12.12
11.61
11.23
10.85
10.38
9.84
9.25
8.63
7.94
7.04
5.77
4.01
1.81
-0.64
-3.07
-5.26
-7.20
-9.07
-11.15
-13.62
-16.43
-19.21
-21.36
-22.24
-21.38
-18.62
-14.16
-8.55
-2.46
3.35
8.31
12.02
14.33
15.29
15.09
13.97
12.22
10.13
7.97
5.98
4.35
3.15
2.34
1.78
1.34
0.91
0.46
-0.02
-0.56
-1.26
-2.28
-3.74
-5.70
-8.04
-10.56
-12.98
-15.12
-16.93
-18.53
-20.19
-22.14
-24.53
-27.26
-29.96
-32.04
-32.80
-31.68
-28.40
-23.09
-16.29
-8.75
-1.28
5.46
11.07
15.38
18.37
20.16
20.91
20.82
20.16
19.20
18.21
17.31
16.52
15.73
14.88
13.94
13.03
12.28
11.79
11.47
11.06
10.19
8.56
6.11
3.01
-0.33
-3.50
-6.25
-8.54
-10.58
-12.68
-15.11
-18.00
-21.32
-24.84
-28.18
-30.84
-32.24
-31.83
-29.26
-24.51
-17.94
-10.24
-2.25
5.27
11.69
16.63
19.97
21.78
22.31
21.97
21.19
20.34
19.60
18.99
18.42
17.75
16.97
16.13
15.33
14.63
14.02
13.41
12.65
11.61
10.19
8.30
5.95
3.18
0.11
-3.11
-6.29
-9.27
-11.97
-14.42
-16.78
-19.26
-22.04
-25.17
-28.45
-31.36
-33.22
-33.27
-31.01
-26.35
-19.70
-11.86
-3.77
3.76
10.24
15.49
19.51
22.39
24.10
24.63
24.03
22.54
20.61
18.74
17.32
16.50
16.16
15.99
15.71
15.13
14.27
13.28
12.29
11.32
10.24
8.86
7.01
4.66
1.91
-1.00
-3.83
-6.48
-8.92
-11.25
-13.54
-15.83
-18.12
-20.43
-22.77
-25.14
-27.38
-29.11
-29.74
-28.65
-25.40
-19.94
-12.74
-4.63
3.45
10.65
16.44
20.61
23.20
24.40
24.46
23.68
22.32
20.70
19.10
17.73
16.68
15.90
15.22
14.47
13.56
12.49
11.37
10.33
9.44
8.63
7.69
6.36
4.40
1.75
-1.42
-4.75
-7.83
-10.37
-12.31
-13.86
-15.36
-17.14
-19.34
-21.79
-24.04
-25.46
-25.40
-23.36
-19.20
-13.13
-5.71
2.27
9.93
16.56
21.68
25.05
26.70
26.77
25.55
23.38
20.71
17.94
15.43
13.40
11.87
10.72
9.75
8.80
7.79
6.71
5.61
4.47
3.23
1.79
0.04
-2.08
-4.53
-7.24
-10.06
-12.93
-15.79
-18.69
-21.73
-24.98
-28.37
-31.62
-34.17
-35.36
-34.53
-31.38
-25.96
-18.81
-10.77
-2.81
4.25
9.86
13.77
16.04
16.87
16.57
15.45
13.78
11.84
9.88
8.13
6.71
5.71
5.09
4.75
4.58
4.46
4.31
4.03
3.50
2.59
1.22
-0.66
-2.95
-5.51
-8.15
-10.70
-13.14
-15.52
-18.03
-20.85
-24.09
-27.63
-31.06
-33.72
-34.81
-33.63
-29.83
-23.56
-15.44
-6.42
2.51
10.54
17.13
22.02
25.18
26.73
26.90
26.03
24.55
22.85
21.23
19.83
18.63
17.51
16.37
15.13
13.80
12.47
11.20
10.06
9.00
7.90
6.58
4.86
2.64
0.00
-2.88
-5.79
-8.56
-11.13
-13.54
-15.95
-18.50
-21.33
-24.54
-28.03
-31.49
-34.30
-35.66
-34.76
-31.14
-24.86
-16.55
-7.30
1.73
9.57
15.67
19.92
22.54
23.86
24.24
23.94
23.14
22.03
20.77
19.58
18.61
17.91
17.42
16.97
16.40
15.62
14.65
13.59
12.50
11.37
10.11
8.53
6.48
3.91
0.91
-2.31
-5.50
-8.41
-10.93
-13.09
-15.10
-17.25
-19.84
-23.02
-26.66
-30.32
-33.28
-34.70
-33.86
-30.38
-24.38
-16.47
-7.61
1.15
8.92
15.11
19.52
22.20
23.41
23.48
22.76
21.55
20.17
18.88
17.85
17.20
16.91
16.89
16.96
16.96
16.72
16.18
15.35
14.32
13.16
11.85
10.29
8.33
5.85
2.87
-0.46
-3.84
-7.00
-9.75
-12.08
-14.10
-16.04
-18.14
-20.62
-23.54
-26.72
-29.73
-31.86
-32.32
-30.45
-25.99
-19.19
-10.74
-1.66
7.04
14.55
20.37
24.36
26.64
27.47
27.19
26.13
24.59
22.90
21.30
20.01
19.10
18.51
18.01
17.35
16.40
15.17
13.86
12.66
11.68
10.76
9.58
7.78
5.17
1.85
-1.85
-5.49
-8.73
-11.43
-13.69
-15.74
-17.87
-20.27
-23.01
-25.98
-28.82
-30.98
-31.77
-30.47
-26.63
-20.26
-11.93
-2.63
6.43
14.24
20.20
24.16
26.32
27.04
26.61
25.25
23.15
20.56
17.79
15.24
13.17
11.74
10.91
10.51
10.28
9.99
9.42
8.41
6.89
4.84
2.33
-0.52
-3.56
-6.64
-9.65
-12.53
-15.35
-18.20
-21.25
-24.59
-28.10
-31.47
-34.07
-35.14
-33.97
-30.23
-24.04
-16.05
-7.24
1.31
8.70
14.33
17.93
19.56
19.46
17.99
15.61
12.78
9.91
7.31
5.15
3.44
2.15
1.20
0.53
0.08
-0.23
-0.55
-1.05
-1.87
-3.14
-4.85
-6.95
-9.30
-11.76
-14.22
-16.65
-19.11
-21.73
-24.65
-27.85
-31.15
-34.07
-35.90
-35.89
-33.42
-28.26
-20.66
-11.39
-1.53
7.76
15.58
21.43
25.21
27.21
27.83
27.47
26.48
25.11
23.60
22.12
20.76
19.49
18.23
16.86
15.36
13.77
12.21
10.71
9.23
7.62
5.69
3.31
0.50
-2.60
-5.77
-8.83
-11.68
-14.35
-16.98
-19.80
-22.97
-26.55
-30.36
-33.92
-36.51
-37.24
-35.39
-30.63
-23.24
-14.04
-4.19
5.17
13.19
19.42
23.75
26.30
27.28
26.92
25.56
23.62
21.54
19.67
18.18
17.05
16.11
15.23
14.36
13.53
12.79
12.11
11.32
10.18
8.44
6.03
3.02
-0.34
-3.77
-7.00
-9.94
-12.57
-15.06
-17.56
-20.28
-23.39
-26.93
-30.79
-34.55
-37.55
-38.94
-37.90
-33.93
-27.08
-18.02
-7.84
2.20
11.04
18.03
23.00
26.13
27.73
28.13
27.57
26.30
24.60
22.85
21.36
20.35
19.82
19.55
19.25
18.66
17.68
16.39
15.00
13.69
12.53
11.41
10.09
8.32
5.93
2.99
-0.31
-3.65
-6.81
-9.68
-12.38
-15.16
-18.26
-21.83
-25.73
-29.58
-32.73
-34.44
-34.05
-31.19
-25.86
-18.48
-9.85
-0.85
7.63
14.93
20.65
24.67
27.06
28.01
27.77
26.63
24.91
22.90
20.94
19.29
18.07
17.28
16.77
16.33
15.76
14.97
13.92
12.62
11.11
9.34
7.26
4.88
2.23
-0.61
-3.52
-6.40
-9.18
-11.81
-14.34
-16.87
-19.54
-22.51
-25.74
-28.98
-31.63
-32.89
-31.93
-28.26
-21.89
-13.42
-3.93
5.38
13.45
19.66
23.78
25.96
26.54
25.88
24.31
22.08
19.42
16.60
13.93
11.74
10.24
9.49
9.30
9.35
9.19
8.52
7.17
5.17
2.71
-0.04
-2.91
-5.84
-8.77
-11.70
-14.63
-17.61
-20.72
-24.05
-27.67
-31.44
-35.05
-37.90
-39.24
-38.35
-34.80
-28.63
-20.44
-11.24
-2.20
5.67
11.78
15.94
18.32
19.24
18.97
17.76
15.84
13.47
10.99
8.75
6.99
5.78
5.05
4.62
4.34
4.10
3.85
3.50
2.90
1.87
0.22
-2.06
-4.81
-7.73
-10.49
-12.95
-15.19
-17.55
-20.41
-24.02
-28.30
-32.74
-36.51
-38.64
-38.35
-35.20
-29.29
-21.20
-11.81
-2.15
6.87
14.56
20.49
24.49
26.61
27.01
26.05
24.14
21.83
19.63
18.00
17.12
16.93
17.12
17.26
17.01
16.23
15.04
13.63
12.15
10.62
8.84
6.59
3.78
0.49
-2.98
-6.34
-9.40
-12.17
-14.89
-17.86
-21.34
-25.42
-29.94
-34.46
-38.32
-40.69
-40.80
-38.13
-32.62
-24.70
-15.23
-5.25
4.24
12.46
18.94
23.52
26.25
27.35
27.16
26.08
24.54
22.94
21.61
20.78
20.49
20.63
20.95
21.13
20.86
19.97
18.49
16.58
14.45
12.22
9.87
7.30
4.38
1.11
-2.40
-5.97
-9.45
-12.73
-15.84
-18.82
-21.77
-24.75
-27.88
-31.25
-34.86
-38.48
-41.53
-43.21
-42.61
-39.12
-32.64
-23.71
-13.40
-2.93
6.60
14.50
20.53
24.77
27.49
28.92
29.26
28.65
27.31
25.53
23.70
22.18
21.18
20.68
20.46
20.19
19.63
18.72
17.58
16.38
15.27
14.22
13.06
11.54
9.48
6.82
3.69
0.29
-3.14
-6.43
-9.49
-12.30
-14.89
-17.27
-19.52
-21.74
-24.12
-26.89
-30.11
-33.57
-36.64
-38.37
-37.76
-34.15
-27.50
-18.55
-8.52
1.20
9.52
15.90
20.32
23.11
24.69
25.35
25.29
24.67
23.70
22.66
21.82
21.34
21.20
21.21
21.15
20.85
20.25
19.44
18.49
17.46
16.33
15.05
13.57
11.83
9.82
7.53
4.95
2.10
-0.92
-3.95
-6.80
-9.28
-11.35
-13.09
-14.69
-16.40
-18.40
-20.81
-23.60
-26.57
-29.33
-31.27
-31.64
-29.80
-25.44
-18.77
-10.56
-1.84
6.34
13.28
18.65
22.46
24.81
25.84
25.65
24.46
22.64
20.68
19.05
18.03
17.63
17.64
17.73
17.64
17.19
16.38
15.29
14.06
12.78
11.52
10.24
8.77
6.96
4.71
2.07
-0.73
-3.39
-5.66
-7.44
-8.86
-10.21
-11.79
-13.82
-16.34
-19.17
-21.94
-24.09
-25.02
-24.12
-21.06
-15.82
-8.85
-0.97
6.83
13.65
18.90
22.38
24.23
24.71
24.15
22.77
20.72
18.21
15.51
12.90
10.69
9.03
7.87
7.04
6.34
5.60
4.78
3.89
2.93
1.79
0.32
-1.62
-4.05
-6.84
-9.76
-12.57
-15.12
-17.44
-19.72
-22.20
-25.06
-28.31
-31.64
-34.50
-36.15
-35.91
-33.33
-28.42
-21.63
-13.75
-5.72
1.63
7.68
12.15
15.02
16.44
16.70
16.06
14.83
13.26
11.64
10.20
9.12
8.46
8.12
7.91
7.65
7.23
6.66
6.01
5.31
4.52
3.51
2.11
0.26
-2.01
-4.55
-7.18
-9.71
-12.09
-14.33
-16.57
-19.01
-21.80
-24.92
-28.10
-30.79
-32.27
-31.86
-29.21
-24.39
-17.97
-10.73
-3.54
2.93
8.24
12.23
14.93
16.50
17.20
17.30
17.08
16.75
16.44
16.13
15.74
15.21
14.47
13.58
12.64
11.74
10.96
10.29
9.69
9.00
8.07
6.73
4.89
2.58
-0.05
-2.78
-5.40
-7.80
-9.98
-12.05
-14.15
-16.41
-18.91
-21.62
-24.43
-27.03
-28.92
-29.48
-28.15
-24.67
-19.23
-12.46
-5.21
1.69
7.65
12.43
16.01
18.51
20.03
20.67
20.52
19.71
18.46
17.00
15.60
14.44
13.65
13.19
12.93
12.67
12.18
11.37
10.23
8.85
7.35
5.76
4.05
2.14
0.00
-2.33
-4.71
-7.00
-9.10
-11.02
-12.82
-14.59
-16.41
-18.32
-20.43
-22.81
-25.48
-28.27
-30.73
-32.21
-32.06
-29.81
-25.43
-19.34
-12.22
-4.90
1.95
7.87
12.58
15.99
18.05
18.89
18.71
17.83
16.66
15.51
14.64
14.10
13.83
13.64
13.34
12.75
11.81
10.56
9.20
7.93
6.90
6.14
5.48
4.66
3.43
1.68
-0.57
-3.12
-5.74
-8.22
-10.45
-12.42
-14.19
-15.84
-17.51
-19.37
-21.55
-24.12
-26.91
-29.47
-31.17
-31.32
-29.40
-25.32
-19.38
-12.29
-4.83
2.25
8.40
13.32
16.89
19.14
20.18
20.28
19.76
19.01
18.31
17.84
17.64
17.65
17.78
17.94
18.02
17.94
17.66
17.17
16.54
15.85
15.10
14.22
12.99
11.18
8.65
5.45
1.85
-1.81
-5.14
-7.94
-10.15
-11.90
-13.44
-15.06
-17.04
-19.62
-22.82
-26.36
-29.72
-32.11
-32.71
-30.94
-26.58
-19.94
-11.78
-3.14
4.92
11.57
16.35
19.19
20.37
20.32
19.50
18.29
17.03
15.94
15.21
14.91
15.04
15.41
15.78
15.87
15.54
14.82
13.88
12.91
11.99
11.06
9.90
8.33
6.21
3.59
0.68
-2.25
-5.00
-7.42
-9.51
-11.39
-13.20
-15.14
-17.34
-19.80
-22.26
-24.20
-24.91
-23.68
-20.10
-14.19
-6.52
1.99
10.25
17.37
22.73
26.14
27.70
27.69
26.46
24.38
21.80
19.07
16.49
14.27
12.44
10.95
9.64
8.38
7.12
5.85
4.60
3.29
1.78
-0.12
-2.54
-5.47
-8.74
-12.13
-15.42
-18.54
-21.52
-24.42
-27.37
-30.36
-33.30
-35.93
-37.84
-38.50
-37.35
-34.05
-28.57
-21.32
-13.06
-4.71
2.85
9.04
13.54
16.41
17.84
18.15
17.70
16.81
15.76
14.71
13.70
12.68
11.62
10.53
9.52
8.71
8.19
7.88
7.59
7.07
6.05
4.44
2.24
-0.39
-3.22
-6.05
-8.68
-11.08
-13.33
-15.64
-18.30
-21.52
-25.23
-29.01
-32.07
-33.48
-32.46
-28.69
-22.42
-14.44
-5.79
2.53
9.77
15.50
19.62
22.19
23.45
23.64
23.09
22.12
20.97
19.84
18.82
17.92
17.11
16.35
15.62
14.86
14.05
13.15
12.13
10.97
9.66
8.15
6.36
4.27
1.84
-0.85
-3.69
-6.51
-9.23
-11.84
-14.47
-17.33
-20.60
-24.25
-27.98
-31.19
-33.14
-33.11
-30.70
-25.91
-19.22
-11.43
-3.45
3.91
10.12
14.96
18.47
20.81
22.10
22.44
21.94
20.78
19.32
17.90
16.86
16.31
16.17
16.23
16.25
16.08
15.69
15.11
14.33
13.30
11.88
9.98
7.55
4.69
1.57
-1.57
-4.55
-7.28
-9.75
-12.06
-14.34
-16.68
-19.19
-21.92
-24.89
-28.03
-31.12
-33.70
-35.19
-35.01
-32.71
-28.24
-21.93
-14.41
-6.50
1.08
7.78
13.35
17.73
20.98
23.18
24.38
24.65
24.13
23.06
21.79
20.65
19.88
19.49
19.30
19.00
18.37
17.34
16.01
14.59
13.26
12.02
10.77
9.32
7.54
5.41
2.96
0.31
-2.45
-5.25
-7.97
-10.51
-12.80
-14.84
-16.71
-18.60
-20.68
-23.00
-25.44
-27.63
-29.05
-29.10
-27.29
-23.38
-17.49
-10.12
-2.04
5.89
12.94
18.61
22.70
25.27
26.48
26.60
25.87
24.57
22.99
21.41
20.04
19.00
18.29
17.80
17.37
16.84
16.10
15.13
13.93
12.56
11.07
9.49
7.81
6.02
4.05
1.87
-0.54
-3.08
-5.62
-8.03
-10.19
-12.09
-13.85
-15.63
-17.62
-19.94
-22.55
-25.26
-27.69
-29.28
-29.43
-27.65
-23.71
-17.78
-10.44
-2.52
5.09
11.67
16.79
20.33
22.36
23.07
22.66
21.32
19.33
16.97
14.58
12.47
10.80
9.64
8.92
8.48
8.18
7.87
7.44
6.78
5.81
4.46
2.74
0.70
-1.54
-3.89
-6.28
-8.71
-11.21
-13.80
-16.51
-19.37
-22.41
-25.67
-29.05
-32.28
-34.83
-36.02
-35.20
-32.06
-26.74
-19.85
-12.30
-5.00
1.40
6.58
10.48
13.20
14.89
15.66
15.69
15.16
14.32
13.38
12.48
11.67
10.92
10.23
9.60
9.10
8.73
8.47
8.22
7.84
7.18
6.09
4.55
2.55
0.18
-2.47
-5.25
-8.04
-10.72
-13.21
-15.50
-17.66
-19.83
-22.18
-24.78
-27.49
-29.92
-31.48
-31.52
-29.61
-25.62
-19.81
-12.74
-5.12
2.35
9.08
14.65
18.79
21.44
22.71
22.83
22.15
21.02
19.81
18.74
17.95
17.43
17.03
16.59
15.98
15.16
14.16
13.10
12.04
10.96
9.76
8.33
6.61
4.58
2.31
-0.12
-2.68
-5.29
-7.90
-10.40
-12.73
-14.87
-16.91
-19.02
-21.41
-24.16
-27.13
-29.91
-31.86
-32.31
-30.77
-27.08
-21.51
-14.64
-7.22
0.06
6.67
12.30
16.81
20.15
22.33
23.41
23.51
22.85
21.72
20.41
19.20
18.25
17.58
17.11
16.65
16.02
15.11
13.91
12.53
11.08
9.67
8.28
6.80
5.05
2.90
0.31
-2.62
-5.67
-8.61
-11.25
-13.54
-15.57
-17.51
-19.60
-22.00
-24.77
-27.79
-30.74
-33.12
-34.34
-33.82
-31.23
-26.52
-20.05
-12.45
-4.51
3.01
9.56
14.79
18.59
21.01
22.18
22.31
21.66
20.56
19.34
18.28
17.56
17.19
17.09
17.08
16.98
16.66
16.08
15.26
14.29
13.20
12.03
10.73
9.19
7.30
4.97
2.25
-0.72
-3.70
-6.45
-8.84
-10.88
-12.67
-14.41
-16.35
-18.66
-21.40
-24.42
-27.30
-29.39
-29.92
-28.29
-24.19
-17.87
-10.02
-1.63
6.30
12.98
17.99
21.22
22.86
23.22
22.66
21.53
20.15
18.73
17.45
16.35
15.42
14.56
13.70
12.82
11.96
11.20
10.57
10.03
9.45
8.64
7.44
5.75
3.63
1.17
-1.43
-4.04
-6.52
-8.80
-10.89
-12.84
-14.81
-16.92
-19.29
-21.81
-24.13
-25.68
-25.81
-23.98
-20.00
-14.11
-6.98
0.50
7.52
13.47
18.06
21.24
23.08
23.67
23.13
21.64
19.49
17.07
14.75
12.81
11.34
10.26
9.41
8.66
7.95
7.26
6.58
5.80
4.76
3.28
1.28
-1.20
-4.00
-6.90
-9.75
-12.48
-15.17
-17.95
-20.96
-24.19
-27.46
-30.36
-32.29
-32.66
-31.03
-27.25
-21.60
-14.66
-7.23
-0.06
6.17
11.03
14.28
15.93
16.16
15.30
13.69
11.65
9.39
7.05
4.79
2.79
1.20
0.16
-0.39
-0.66
-0.94
-1.44
-2.25
-3.28
-4.42
-5.61
-6.91
-8.41
-10.20
-12.26
-14.49
-16.82
-19.28
-21.96
-24.92
-28.02
-30.80
-32.59
-32.63
-30.42
-25.87
-19.36
-11.63
-3.58
3.98
10.46
15.53
19.11
21.26
22.18
22.11
21.34
20.18
18.89
17.67
16.60
15.67
14.83
14.02
13.20
12.39
11.59
10.81
9.98
9.00
7.74
6.08
3.99
1.53
-1.15
-3.85
-6.40
-8.80
-11.16
-13.69
-16.59
-19.90
-23.41
-26.63
-28.90
-29.54
-28.06
-24.34
-18.63
-11.55
-3.92
3.45
9.89
15.00
18.64
20.88
21.88
21.88
21.16
19.99
18.72
17.61
16.84
16.40
16.13
15.78
15.18
14.29
13.21
12.10
11.03
9.95
8.67
7.00
4.86
2.35
-0.34
-3.05
-5.68
-8.24
-10.77
-13.31
-15.84
-18.35
-20.91
-23.54
-26.20
-28.59
-30.17
-30.27
-28.32
-24.13
-18.00
-10.69
-3.10
3.95
9.96
14.76
18.38
20.91
22.38
22.80
22.27
21.06
19.58
18.24
17.33
16.89
16.74
16.61
16.25
15.60
14.70
13.68
12.65
11.65
10.61
9.44
8.01
6.26
4.15
1.77
-0.76
-3.23
-5.46
-7.37
-9.00
-10.50
-12.12
-14.08
-16.53
-19.37
-22.34
-24.93
-26.56
-26.68
-24.91
-21.18
-15.72
-9.05
-1.83
5.25
11.55
16.59
20.11
22.05
22.56
21.95
20.66
19.15
17.78
16.81
16.30
16.21
16.41
16.76
17.10
17.29
17.23
16.81
16.10
15.22
14.43
13.96
13.86
13.99
14.05
13.65
12.54
10.65
8.09
5.05
1.66
-2.08
-6.22
-10.74
-15.40
-19.75
-23.24
-25.48
-26.37
-26.11
-25.04
-23.37
-21.08
-17.87
-13.45
-7.73
-1.05
5.78
11.78
16.07
18.24
18.44
17.33
15.71
14.23
13.12
12.17
10.90
8.80
5.60
1.29
-3.85
-9.44
-15.02
-20.13
-24.34
-27.28
-28.74
-28.75
-27.65
-25.99
-24.44
-23.58
-23.76
-25.03
-27.12
-29.51
-31.55
-32.61
-32.21
-30.13
-26.49
-21.68
-16.25
-10.76
-5.60
-1.01
2.97
6.34
9.13
11.34
12.96
14.04
14.64
14.89
14.91
14.83
14.76
14.77
14.88
15.07
15.29
15.47
15.55
15.42
14.99
14.08
12.58
10.48
7.91
5.13
2.36
-0.25
-2.77
-5.39
-8.32
-11.66
-15.37
-19.23
-22.86
-25.80
-27.52
-27.52
-25.45
-21.27
-15.29
-8.17
-0.74
6.25
12.23
16.91
20.22
22.20
22.94
22.58
21.34
19.50
17.41
15.33
13.48
11.93
10.68
9.71
9.00
8.56
8.35
8.32
8.31
8.13
7.62
6.66
5.23
3.38
1.20
-1.18
-3.67
-6.19
-8.71
-11.27
-13.95
-16.84
-19.97
-23.16
-26.08
-28.21
-28.97
-27.91
-24.81
-19.82
-13.39
-6.23
0.91
7.38
12.74
16.83
19.69
21.49
22.37
22.44
21.81
20.64
19.20
17.78
16.68
16.02
15.75
15.68
15.58
15.26
14.67
13.80
12.65
11.18
9.29
6.94
4.18
1.23
-1.61
-3.97
-5.64
-6.61
-7.15
-7.74
-8.86
-10.88
-13.85
-17.48
-21.18
-24.19
-25.73
-25.24
-22.47
-17.60
-11.26
-4.32
2.25
7.71
11.68
14.19
15.53
16.11
16.22
16.04
15.61
14.97
14.21
13.45
12.78
12.20
11.57
10.68
9.40
7.69
5.68
3.61
1.68
-0.03
-1.60
-3.23
-5.11
-7.30
-9.76
-12.33
-14.89
-17.35
-19.71
-22.03
-24.39
-26.73
-28.86
-30.36
-30.70
-29.34
-25.97
-20.69
-14.03
-6.82
0.06
5.94
10.49
13.67
15.64
16.59
16.71
16.20
15.30
14.27
13.32
12.55
11.89
11.22
10.39
9.38
8.30
7.37
6.77
6.57
6.64
6.73
6.56
5.88
4.60
2.75
0.46
-2.15
-5.02
-8.23
-11.91
-16.22
-21.20
-26.65
-32.09
-36.75
-39.69
-40.08
-37.34
-31.42
-22.75
-12.20
-0.91
9.91
19.18
26.10
30.23
31.63
30.69
28.07
24.44
20.40
16.28
12.26
8.47
5.00
2.10
-0.02
-1.16
-1.26
-0.44
1.09
3.01
5.02
6.81
8.13
8.79
8.74
8.01
6.67
4.79
2.36
-0.67
-4.41
-8.87
-13.91
-19.27
-24.44
-28.83
-31.78
-32.79
-31.57
-28.26
-23.27
-17.19
-10.55
-3.70
3.19
10.04
16.66
22.68
27.61
30.98
32.51
32.19
30.31
27.30
23.61
19.62
15.63
11.90
8.67
6.16
4.49
3.66
3.50
3.71
3.91
3.85
3.42
2.74
2.02
1.48
1.20
1.03
0.62
-0.50
-2.71
-6.19
-10.78
-15.97
-20.94
-24.76
-26.65
-26.14
-23.22
-18.29
-12.05
-5.27
1.44
7.62
13.05
17.60
21.16
23.61
24.87
24.94
23.94
22.12
19.84
17.41
15.08
12.96
11.05
9.27
7.58
5.95
4.42
3.02
1.74
0.50
-0.77
-2.13
-3.59
-5.07
-6.57
-8.09
-9.83
-11.96
-14.65
-17.84
-21.14
-23.92
-25.42
-25.05
-22.56
-18.22
-12.67
-6.72
-1.12
3.58
7.11
9.40
10.54
10.68
10.06
8.93
7.57
6.20
4.93
3.78
2.70
1.63
0.60
-0.32
-1.09
-1.69
-2.22
-2.85
-3.74
-4.99
-6.60
-8.49
-10.56
-12.73
-14.94
-17.22
-19.56
-21.96
-24.38
-26.73
-28.84
-30.42
-31.05
-30.26
-27.65
-23.08
-16.79
-9.37
-1.66
5.52
11.56
16.17
19.35
21.26
22.13
22.18
21.57
20.52
19.26
18.05
17.07
16.40
15.97
15.63
15.26
14.78
14.20
13.48
12.54
11.27
9.54
7.32
4.71
1.92
-0.86
-3.51
-6.06
-8.67
-11.55
-14.88
-18.75
-23.04
-27.40
-31.24
-33.81
-34.44
-32.71
-28.65
-22.73
-15.72
-8.49
-1.75
4.08
8.79
12.37
14.91
16.58
17.59
18.18
18.55
18.80
18.90
18.76
18.29
17.48
16.43
15.30
14.25
13.33
12.53
11.68
10.60
9.09
7.02
4.42
1.45
-1.63
-4.53
-7.09
-9.27
-11.23
-13.18
-15.35
-17.89
-20.78
-23.81
-26.60
-28.60
-29.21
-27.91
-24.48
-19.07
-12.25
-4.85
2.23
8.27
12.89
16.04
17.95
18.97
19.38
19.39
19.11
18.61
17.97
17.33
16.86
16.65
16.70
16.87
16.98
16.83
16.32
15.49
14.47
13.40
12.36
11.30
10.06
8.48
6.43
3.88
0.96
-2.14
-5.19
-8.03
-10.62
-13.01
-15.34
-17.77
-20.39
-23.14
-25.76
-27.79
-28.64
-27.79
-24.93
-20.13
-13.82
-6.71
0.40
6.86
12.21
16.25
18.93
20.32
20.54
19.81
18.45
16.88
15.53
14.66
14.33
14.34
14.38
14.11
13.40
12.30
11.02
9.77
8.68
7.68
6.60
5.22
3.43
1.23
-1.23
-3.75
-6.18
-8.42
-10.47
-12.39
-14.26
-16.18
-18.18
-20.22
-22.16
-23.69
-24.40
-23.83
-21.64
-17.66
-12.05
-5.26
2.04
9.11
15.34
20.28
23.76
25.83
26.64
26.40
25.27
23.44
21.14
18.64
16.22
14.15
12.55
11.42
10.65
10.06
9.51
8.88
8.07
6.94
5.39
3.30
0.62
-2.55
-6.05
-9.64
-13.13
-16.40
-19.49
-22.53
-25.67
-28.92
-32.05
-34.61
-35.95
-35.51
-32.93
-28.27
-21.98
-14.79
-7.54
-0.96
4.42
8.37
10.89
12.17
12.53
12.32
11.85
11.29
10.72
10.12
9.45
8.71
7.96
7.31
6.80
6.44
6.14
5.75
5.13
4.17
2.82
1.10
-0.89
-3.06
-5.26
-7.40
-9.46
-11.52
-13.73
-16.24
-19.13
-22.30
-25.45
-28.11
-29.65
-29.48
-27.21
-22.78
-16.54
-9.21
-1.71
5.12
10.70
14.81
17.52
19.12
19.86
19.97
19.60
18.90
17.99
17.01
16.07
15.18
14.36
13.58
12.81
12.07
11.39
10.76
10.10
9.21
7.87
5.94
3.38
0.37
-2.80
-5.78
-8.35
-10.47
-12.24
-13.95
-15.86
-18.18
-20.96
-24.06
-27.09
-29.47
-30.56
-29.77
-26.87
-22.01
-15.77
-8.86
-1.99
4.31
9.76
14.25
17.70
20.07
21.36
21.68
21.25
20.42
19.46
18.57
17.76
16.99
16.15
15.16
14.03
12.78
11.50
10.26
9.13
8.06
6.95
5.62
3.92
1.78
-0.76
-3.47
-6.12
-8.50
-10.60
-12.54
-14.57
-16.91
-19.66
-22.70
-25.73
-28.25
-29.71
-29.57
-27.47
-23.34
-17.49
-10.47
-3.09
3.89
9.82
14.38
17.50
19.32
20.10
20.11
19.59
18.77
17.88
17.12
16.61
16.30
16.03
15.57
14.68
13.37
11.78
10.22
8.97
8.13
7.55
6.91
5.87
4.19
1.92
-0.72
-3.43
-5.95
-8.18
-10.19
-12.17
-14.30
-16.73
-19.42
-22.16
-24.55
-26.04
-26.16
-24.58
-21.30
-16.58
-10.88
-4.65
1.68
7.75
13.19
17.63
20.76
22.42
22.70
21.95
20.64
19.24
18.08
17.32
16.92
16.79
16.75
16.59
16.17
15.42
14.42
13.29
12.14
10.97
9.67
8.06
6.00
3.47
0.58
-2.45
-5.41
-8.14
-10.61
-12.84
-14.96
-17.10
-19.31
-21.52
-23.47
-24.69
-24.63
-22.84
-19.16
-13.81
-7.38
-0.65
5.63
10.92
14.94
17.70
19.28
19.82
19.46
18.33
16.62
14.56
12.43
10.49
8.92
7.80
7.10
6.71
6.46
6.22
5.88
5.39
4.69
3.74
2.50
0.91
-1.00
-3.20
-5.60
-8.15
-10.85
-13.77
-16.99
-20.53
-24.24
-27.74
-30.50
-31.86
-31.29
-28.55
-23.80
-17.65
-10.91
-4.44
1.14
5.48
8.52
10.37
11.20
11.19
10.51
9.39
8.08
6.78
5.66
4.81
4.30
4.12
4.26
4.61
5.05
5.37
5.41
5.08
4.37
3.40
2.24
0.94
-0.53
-2.19
-4.02
-6.02
-8.16
-10.48
-13.04
-15.80
-18.50
-20.61
-21.40
-20.22
-16.76
-11.21
-4.29
3.05
9.83
15.35
19.23
21.39
21.94
21.06
19.00
16.10
12.81
9.60
6.93
5.11
4.24
4.30
5.08
6.35
7.88
9.44
10.84
11.88
12.35
12.04
10.74
8.37
5.04
1.08
-3.02
-6.79
-9.92
-12.44
-14.64
-16.94
-19.69
-22.87
-26.10
-28.71
-29.91
-29.11
-26.04
-20.93
-14.43
-7.41
-0.81
4.63
8.50
10.75
11.62
11.54
10.93
10.15
9.42
8.81
8.27
7.69
6.98
6.05
4.98
3.92
3.11
2.73
2.82
3.27
3.74
3.88
3.32
1.90
-0.38
-3.31
-6.55
-9.73
-12.57
-14.94
-16.92
-18.77
-20.80
-23.21
-25.89
-28.38
-30.00
-29.99
-27.86
-23.48
-17.21
-9.76
-1.96
5.36
11.59
16.34
19.51
21.18
21.62
21.15
20.10
18.77
17.32
15.84
14.33
12.80
11.27
9.82
8.57
7.60
6.93
6.45
6.00
5.34
4.31
2.80
0.82
-1.54
-4.12
-6.73
-9.24
-11.59
-13.84
-16.17
-18.76
-21.70
-24.78
-27.58
-29.42
-29.64
-27.75
-23.69
-17.78
-10.69
-3.24
3.80
9.87
14.66
18.10
20.27
21.35
21.49
20.86
19.63
18.00
16.22
14.54
13.19
12.28
11.79
11.59
11.50
11.36
11.07
10.61
9.98
9.18
8.24
7.18
6.03
4.82
3.50
1.98
0.09
-2.31
-5.29
-8.80
-12.64
-16.55
-20.16
-23.04
-24.70
-24.68
-22.61
-18.33
-12.08
-4.46
3.61
11.15
17.32
21.67
24.06
24.64
23.66
21.37
18.04
13.99
9.65
5.50
1.93
-0.85
-2.86
-4.26
-5.24
-5.91
-6.35
-6.64
-6.97
-7.59
-8.70
-10.35
-12.35
-14.38
-16.09
-17.27
-17.87
-18.04
-18.04
-18.18
-18.76
-19.97
-21.79
-23.94
-25.81
-26.60
-25.53
-22.14
-16.45
-9.03
-0.76
7.41
14.67
20.59
24.96
27.79
29.16
29.17
27.96
25.74
22.85
19.70
16.67
14.11
12.16
10.81
9.90
9.19
8.39
7.30
5.75
3.75
1.44
-0.95
-3.17
-5.03
-6.54
-7.85
-9.25
-11.04
-13.42
-16.44
-19.89
-23.29
-25.94
-27.03
-25.92
-22.28
-16.38
-8.94
-0.99
6.45
12.65
17.22
20.08
21.27
20.92
19.18
16.31
12.77
9.08
5.84
3.47
2.18
1.88
2.33
3.19
4.16
5.03
5.62
5.85
5.60
4.81
3.42
1.44
-1.05
-3.97
-7.16
-10.50
-13.82
-16.89
-19.36
-20.83
-20.82
-18.94
-15.05
-9.34
-2.31
5.31
12.73
19.32
24.65
28.50
30.83
31.64
31.04
29.18
26.36
22.94
19.38
16.06
13.25
11.02
9.25
7.70
6.11
4.29
2.20
-0.13
-2.59
-5.12
-7.70
-10.39
-13.23
-16.28
-19.56
-23.12
-26.98
-31.07
-35.13
-38.54
-40.51
-40.20
-37.10
-31.31
-23.48
-14.73
-6.20
1.21
7.06
11.31
14.16
15.87
16.61
16.53
15.78
14.58
13.21
11.97
11.08
10.60
10.48
10.59
10.76
10.82
10.66
10.16
9.29
8.00
6.31
4.23
1.77
-1.01
-4.13
-7.54
-11.22
-15.15
-19.20
-23.10
-26.37
-28.42
-28.57
-26.40
-21.84
-15.30
-7.56
0.45
7.88
14.17
19.06
22.56
24.81
25.97
26.17
25.58
24.40
22.92
21.47
20.30
19.52
19.02
18.53
17.82
16.75
15.39
13.91
12.47
11.09
9.59
7.67
5.08
1.80
-1.98
-5.84
-9.36
-12.26
-14.55
-16.47
-18.40
-20.71
-23.59
-26.98
-30.49
-33.49
-35.24
-35.01
-32.35
-27.23
-20.10
-11.76
-3.18
4.81
11.67
17.20
21.41
24.43
26.33
27.18
27.11
26.32
25.14
23.87
22.72
21.74
20.86
20.00
19.11
18.23
17.35
16.46
15.46
14.24
12.73
10.95
8.98
6.88
4.63
2.17
-0.52
-3.37
-6.23
-8.90
-11.24
-13.28
-15.14
-17.05
-19.13
-21.46
-23.99
-26.65
-29.21
-31.36
-32.56
-32.20
-29.75
-25.00
-18.25
-10.25
-2.05
5.42
11.53
16.05
19.12
20.98
21.89
22.00
21.47
20.45
19.16
17.85
16.74
15.93
15.43
15.17
15.09
15.11
15.18
15.20
15.04
14.55
13.57
12.06
10.04
7.67
5.07
2.36
-0.43
-3.27
-6.11
-8.83
-11.32
-13.51
-15.42
-17.17
-18.90
-20.77
-22.89
-25.28
-27.86
-30.38
-32.41
-33.34
-32.59
-29.78
-24.91
-18.38
-10.87
-3.15
4.17
10.64
15.99
20.05
22.69
23.89
23.80
22.72
21.09
19.37
17.88
16.77
16.07
15.71
15.60
15.62
15.65
15.51
15.03
14.11
12.74
10.96
8.92
6.73
4.49
2.25
0.01
-2.23
-4.46
-6.70
-8.92
-11.12
-13.22
-15.20
-17.04
-18.84
-20.73
-22.85
-25.24
-27.75
-30.03
-31.57
-31.84
-30.42
-27.14
-22.11
-15.77
-8.77
-1.79
4.57
9.92
14.10
17.11
19.05
20.04
20.19
19.64
18.61
17.39
16.32
15.60
15.31
15.34
15.50
15.54
15.30
14.72
13.77
12.48
10.89
9.07
7.08
5.00
2.93
0.90
-1.05
-2.95
-4.84
-6.81
-8.88
-11.04
-13.25
-15.40
-17.46
-19.43
-21.38
-23.39
-25.38
-27.13
-28.16
-27.97
-26.08
-22.35
-16.93
-10.32
-3.24
3.61
9.65
14.50
18.03
20.28
21.38
21.50
20.83
19.57
17.99
16.36
14.97
13.95
13.33
13.01
12.77
12.42
11.83
11.00
9.97
8.84
7.65
6.38
5.00
3.42
1.61
-0.45
-2.72
-5.16
-7.64
-10.04
-12.24
-14.16
-15.82
-17.31
-18.82
-20.49
-22.39
-24.37
-26.08
-27.04
-26.77
-24.93
-21.45
-16.52
-10.57
-4.16
2.15
7.87
12.66
16.30
18.73
19.97
20.14
19.43
18.13
16.50
14.87
13.45
12.42
11.85
11.70
11.85
12.10
12.29
12.25
11.91
11.23
10.20
8.84
7.12
5.05
2.71
0.24
-2.16
-4.34
-6.23
-7.89
-9.45
-11.08
-12.84
-14.75
-16.76
-18.77
-20.59
-21.99
-22.63
-22.15
-20.25
-16.78
-11.87
-5.92
0.45
6.56
11.84
15.90
18.64
20.12
20.48
19.93
18.63
16.84
14.83
12.94
11.45
10.49
10.02
9.84
9.71
9.41
8.84
7.94
6.72
5.22
3.50
1.70
-0.09
-1.79
-3.40
-4.98
-6.59
-8.30
-10.11
-12.04
-14.13
-16.50
-19.16
-22.02
-24.67
-26.52
-26.88
-25.22
-21.44
-15.89
-9.32
-2.64
3.33
8.12
11.57
13.80
15.00
15.33
14.87
13.69
11.95
9.86
7.73
5.86
4.41
3.44
2.88
2.57
2.34
2.04
1.52
0.71
-0.44
-1.89
-3.55
-5.28
-6.95
-8.49
-9.90
-11.26
-12.75
-14.53
-16.70
-19.13
-21.46
-23.10
-23.37
-21.74
-17.99
-12.34
-5.39
1.98
8.92
14.70
18.94
21.57
22.76
22.79
21.93
20.37
18.23
15.66
12.86
10.10
7.71
5.94
4.89
4.42
4.24
4.03
3.50
2.55
1.22
-0.37
-2.05
-3.77
-5.53
-7.37
-9.39
-11.64
-14.20
-17.15
-20.48
-24.02
-27.36
-29.87
-30.82
-29.61
-26.05
-20.38
-13.29
-5.71
1.44
7.48
12.01
14.97
16.47
16.71
15.94
14.42
12.43
10.25
8.14
6.32
4.91
3.91
3.22
2.68
2.13
1.40
0.40
-0.94
-2.62
-4.58
-6.74
-8.98
-11.20
-13.41
-15.63
-17.95
-20.50
-23.29
-26.27
-29.20
-31.63
-32.96
-32.56
-29.99
-25.13
-18.37
-10.45
-2.32
5.10
11.18
15.68
18.67
20.44
21.34
21.68
21.64
21.32
20.76
19.99
19.07
18.07
17.04
16.07
15.18
14.38
13.63
12.88
11.98
10.73
8.96
6.58
3.65
0.41
-2.84
-5.79
-8.38
-10.66
-12.93
-15.43
-18.36
-21.66
-25.02
-27.88
-29.55
-29.40
-27.04
-22.49
-16.14
-8.66
-0.86
6.56
13.05
18.31
22.20
24.77
26.09
26.37
25.86
24.85
23.62
22.40
21.31
20.37
19.53
18.67
17.67
16.47
15.09
13.63
12.17
10.76
9.33
7.76
5.90
3.66
1.08
-1.74
-4.61
-7.34
-9.81
-11.99
-13.96
-15.86
-17.90
-20.27
-23.05
-26.18
-29.32
-31.91
-33.26
-32.75
-30.00
-25.07
-18.42
-10.81
-3.10
4.01
10.07
14.96
18.68
21.37
23.10
23.92
23.90
23.20
22.07
20.82
19.74
19.00
18.65
18.58
18.61
18.52
18.10
17.24
15.93
14.24
12.32
10.30
8.27
6.22
4.08
1.78
-0.70
-3.30
-5.90
-8.40
-10.73
-12.91
-15.06
-17.28
-19.69
-22.34
-25.18
-28.05
-30.58
-32.31
-32.72
-31.37
-28.06
-22.92
-16.38
-9.07
-1.72
5.07
10.87
15.47
18.83
21.01
22.14
22.39
21.94
21.04
19.99
19.08
18.53
18.40
18.56
18.75
18.67
18.13
17.08
15.66
14.03
12.36
10.75
9.14
7.47
5.62
3.54
1.24
-1.20
-3.67
-6.09
-8.41
-10.66
-12.84
-15.02
-17.21
-19.42
-21.72
-24.18
-26.82
-29.50
-31.87
-33.37
-33.36
-31.40
-27.37
-21.59
-14.69
-7.45
-0.57
5.48
10.44
14.28
17.03
18.79
19.68
19.86
19.53
18.87
18.08
17.31
16.68
16.27
16.12
16.18
16.38
16.59
16.71
16.63
16.26
15.57
14.51
13.06
11.26
9.20
7.00
4.80
2.70
0.67
-1.40
-3.65
-6.14
-8.81
-11.43
-13.76
-15.63
-17.10
-18.42
-19.94
-21.88
-24.16
-26.33
-27.67
-27.48
-25.26
-20.95
-14.90
-7.78
-0.36
6.64
12.71
17.57
21.10
23.33
24.40
24.47
23.77
22.61
21.26
20.00
19.00
18.34
17.97
17.77
17.59
17.28
16.71
15.79
14.49
12.84
10.96
9.04
7.23
5.63
4.18
2.75
1.10
-0.89
-3.24
-5.84
-8.48
-10.94
-13.08
-14.86
-16.32
-17.61
-18.87
-20.25
-21.82
-23.46
-24.91
-25.70
-25.27
-23.15
-19.07
-13.19
-6.03
1.51
8.52
14.19
18.08
20.14
20.62
19.95
18.51
16.67
14.66
12.74
11.11
9.95
9.26
8.92
8.69
8.34
7.77
7.01
6.22
5.54
5.00
4.47
3.71
2.50
0.73
-1.55
-4.15
-6.82
-9.32
-11.53
-13.41
-15.05
-16.64
-18.35
-20.30
-22.47
-24.59
-26.25
-26.89
-26.01
-23.34
-18.94
-13.25
-6.97
-0.83
4.49
8.63
11.42
12.92
13.27
12.63
11.21
9.27
7.11
5.03
3.30
2.01
1.15
0.61
0.28
0.11
0.07
0.16
0.30
0.34
0.07
-0.65
-1.89
-3.56
-5.49
-7.50
-9.46
-11.33
-13.10
-14.81
-16.49
-18.19
-19.97
-21.89
-23.95
-25.95
-27.51
-28.10
-27.17
-24.40
-19.80
-13.78
-7.02
-0.25
5.88
10.97
14.81
17.36
18.66
18.84
18.09
16.75
15.19
13.75
12.63
11.81
11.14
10.45
9.69
8.95
8.42
8.19
8.18
8.12
7.64
6.49
4.60
2.17
-0.46
-2.99
-5.25
-7.21
-9.01
-10.83
-12.81
-15.05
-17.60
-20.41
-23.29
-25.87
-27.59
-27.83
-26.15
-22.39
-16.86
-10.22
-3.30
3.19
8.75
13.19
16.48
18.69
19.87
20.11
19.58
18.51
17.19
15.92
14.86
14.07
13.46
12.87
12.16
11.23
10.12
8.91
7.72
6.59
5.42
4.08
2.42
0.38
-1.93
-4.33
-6.60
-8.63
-10.44
-12.19
-14.11
-16.40
-19.17
-22.41
-25.82
-28.89
-30.92
-31.20
-29.25
-24.94
-18.66
-11.15
-3.33
3.97
10.17
15.00
18.49
20.76
22.02
22.41
22.06
21.13
19.75
18.11
16.39
14.73
13.24
11.98
10.92
10.02
9.24
8.48
7.65
6.68
5.49
4.01
2.21
0.09
-2.27
-4.75
-7.18
-9.41
-11.41
-13.26
-15.15
-17.35
-20.00
-23.10
-26.35
-29.25
-31.10
-31.28
-29.33
-25.16
-19.12
-11.86
-4.23
2.99
9.21
14.14
17.72
20.03
21.25
21.50
20.95
19.81
18.33
16.82
15.51
14.53
13.82
13.25
12.61
11.81
10.84
9.83
8.91
8.12
7.39
6.50
5.25
3.47
1.16
-1.51
-4.24
-6.76
-8.92
-10.76
-12.53
-14.52
-16.95
-19.86
-23.00
-25.94
-28.08
-28.85
-27.81
-24.72
-19.68
-13.06
-5.55
2.05
8.97
14.64
18.80
21.47
22.86
23.21
22.76
21.69
20.24
18.63
17.20
16.21
15.78
15.83
16.11
16.31
16.17
15.62
14.72
13.63
12.47
11.20
9.73
7.90
5.64
2.99
0.13
-2.70
-5.33
-7.69
-9.86
-12.00
-14.27
-16.75
-19.37
-21.90
-24.01
-25.25
-25.18
-23.42
-19.74
-14.23
-7.27
0.39
7.86
14.35
19.28
22.49
24.11
24.49
24.00
22.99
21.74
20.44
19.20
18.07
17.06
16.10
15.13
14.11
13.06
12.00
10.95
9.88
8.69
7.25
5.49
3.38
1.00
-1.55
-4.15
-6.69
-9.09
-11.35
-13.47
-15.54
-17.69
-20.02
-22.56
-25.08
-27.13
-28.03
-27.12
-24.01
-18.70
-11.69
-3.80
4.02
10.95
16.45
20.28
22.43
23.06
22.41
20.71
18.30
15.48
12.65
10.12
8.12
6.75
5.91
5.44
5.10
4.73
4.20
3.45
2.45
1.17
-0.41
-2.30
-4.48
-6.93
-9.60
-12.43
-15.41
-18.55
-21.86
-25.29
-28.65
-31.52
-33.31
-33.38
-31.28
-26.97
-20.85
-13.73
-6.55
-0.08
5.19
9.10
11.74
13.27
13.86
13.69
12.91
11.74
10.39
9.05
7.84
6.85
6.11
5.62
5.37
5.29
5.25
5.10
4.64
3.77
2.44
0.72
-1.34
-3.63
-6.08
-8.66
-11.34
-14.17
-17.19
-20.41
-23.71
-26.78
-29.13
-30.17
-29.37
-26.43
-21.45
-14.83
-7.27
0.43
7.54
13.52
18.02
20.93
22.38
22.68
22.20
21.29
20.19
19.03
17.81
16.52
15.17
13.86
12.63
11.57
10.69
9.89
9.08
8.14
6.98
5.57
3.85
1.81
-0.57
-3.25
-6.12
-9.00
-11.73
-14.25
-16.65
-19.17
-22.03
-25.24
-28.45
-30.95
-31.90
-30.63
-26.88
-20.98
-13.68
-5.90
1.50
7.92
13.08
16.92
19.51
20.98
21.45
21.11
20.22
19.11
18.09
17.39
17.05
16.91
16.69
16.16
15.20
13.93
12.52
11.13
9.77
8.28
6.43
4.06
1.22
-1.87
-4.91
-7.67
-10.08
-12.25
-14.43
-16.88
-19.77
-23.06
-26.55
-29.77
-32.09
-32.83
-31.41
-27.61
-21.64
-14.16
-6.06
1.74
8.53
13.96
17.96
20.67
22.27
22.93
22.86
22.26
21.43
20.62
20.01
19.64
19.45
19.25
18.84
18.08
16.89
15.34
13.56
11.74
9.97
8.25
6.47
4.44
2.07
-0.65
-3.60
-6.58
-9.45
-12.16
-14.76
-17.37
-20.10
-23.01
-26.08
-29.14
-31.85
-33.73
-34.26
-32.97
-29.65
-24.42
-17.73
-10.27
-2.76
4.19
10.18
15.04
18.75
21.36
22.94
23.59
23.45
22.73
21.67
20.52
19.51
18.72
18.15
17.65
17.08
16.28
15.22
13.92
12.49
11.04
9.59
8.10
6.43
4.43
2.01
-0.78
-3.73
-6.58
-9.08
-11.16
-12.92
-14.60
-16.50
-18.80
-21.53
-24.52
-27.38
-29.56
-30.48
-29.57
-26.53
-21.37
-14.53
-6.80
0.96
7.94
13.67
18.03
21.12
23.16
24.32
24.76
24.60
24.06
23.39
22.83
22.49
22.29
22.03
21.49
20.58
19.34
17.89
16.38
14.82
13.17
11.33
9.23
6.89
4.35
1.67
-1.08
-3.87
-6.64
-9.29
-11.72
-13.90
-15.87
-17.81
-19.93
-22.40
-25.17
-27.93
-30.06
-30.82
-29.55
-25.92
-20.10
-12.72
-4.71
3.02
9.74
15.08
18.95
21.42
22.64
22.77
21.99
20.54
18.72
16.83
15.10
13.65
12.51
11.66
11.07
10.71
10.48
10.24
9.75
8.80
7.31
5.32
3.02
0.60
-1.80
-4.16
-6.57
-9.11
-11.89
-14.94
-18.26
-21.78
-25.36
-28.71
-31.38
-32.82
-32.45
-29.94
-25.30
-18.99
-11.77
-4.60
1.69
6.56
9.81
11.57
12.12
11.80
10.89
9.64
8.26
6.94
5.88
5.20
4.91
4.94
5.16
5.39
5.48
5.33
4.84
3.94
2.57
0.73
-1.51
-3.96
-6.36
-8.52
-10.40
-12.13
-14.00
-16.28
-19.11
-22.38
-25.79
-28.84
-30.97
-31.63
-30.40
-27.06
-21.69
-14.74
-6.96
0.74
7.51
12.75
16.30
18.33
19.29
19.63
19.66
19.49
19.07
18.32
17.24
15.94
14.59
13.36
12.33
11.48
10.75
10.05
9.32
8.46
7.35
5.91
4.04
1.80
-0.69
-3.22
-5.64
-7.91
-10.13
-12.51
-15.25
-18.48
-22.09
-25.76
-28.94
-31.01
-31.40
-29.73
-25.95
-20.33
-13.43
-5.99
1.25
7.68
12.90
16.78
19.37
20.82
21.34
21.16
20.48
19.57
18.67
18.00
17.61
17.46
17.30
16.93
16.18
15.08
13.75
12.31
10.79
9.09
7.03
4.48
1.50
-1.74
-4.94
-7.87
-10.44
-12.73
-14.93
-17.23
-19.75
-22.48
-25.30
-27.93
-29.98
-30.98
-30.42
-27.93
-23.41
-17.17
-9.88
-2.38
4.48
10.17
14.46
17.41
19.24
20.18
20.41
20.09
19.42
18.58
17.78
17.15
16.67
16.26
15.74
15.03
14.14
13.14
12.16
11.25
10.34
9.27
7.85
5.94
3.52
0.67
-2.38
-5.44
-8.34
-10.99
-13.44
-15.81
-18.25
-20.86
-23.66
-26.48
-29.00
-30.75
-31.19
-29.87
-26.54
-21.28
-14.50
-6.92
0.67
7.57
13.30
17.66
20.67
22.44
23.09
22.80
21.77
20.31
18.78
17.46
16.55
16.03
15.72
15.41
14.85
13.95
12.72
11.29
9.85
8.56
7.45
6.42
5.25
3.70
1.65
-0.86
-3.60
-6.29
-8.70
-10.75
-12.52
-14.18
-15.91
-17.80
-19.79
-21.59
-22.75
-22.73
-21.06
-17.54
-12.31
-5.91
0.91
7.35
12.83
17.01
19.81
21.31
21.63
20.92
19.34
17.18
14.77
12.50
10.65
9.33
8.50
7.99
7.63
7.32
7.03
6.77
6.47
6.03
5.30
4.17
2.64
0.79
-1.17
-3.09
-4.84
-6.45
-8.02
-9.72
-11.68
-13.98
-16.50
-18.97
-20.96
-21.89
-21.22
-18.61
-14.02
-7.81
-0.68
6.53
12.99
18.08
21.51
23.21
23.36
22.22
20.16
17.51
14.59
11.68
9.00
6.69
4.85
3.52
2.62
1.98
1.39
0.59
-0.59
-2.21
-4.19
-6.40
-8.72
-11.07
-13.43
-15.84
-18.34
-20.95
-23.67
-26.46
-29.28
-32.01
-34.42
-36.15
-36.66
-35.45
-32.16
-26.80
-19.79
-11.90
-4.06
2.90
8.46
12.44
14.97
16.32
16.76
16.53
15.82
14.76
13.48
12.09
10.69
9.39
8.29
7.45
6.90
6.62
6.44
6.18
5.63
4.68
3.29
1.49
-0.62
-2.98
-5.44
-7.94
-10.38
-12.74
-15.09
-17.56
-20.28
-23.16
-25.86
-27.77
-28.15
-26.47
-22.55
-16.70
-9.62
-2.17
4.87
10.93
15.70
19.06
21.04
21.77
21.45
20.37
18.89
17.37
16.10
15.22
14.67
14.28
13.83
13.16
12.26
11.21
10.16
9.12
8.02
6.66
4.86
2.57
-0.14
-3.01
-5.79
-8.33
-10.60
-12.74
-14.93
-17.34
-20.04
-22.95
-25.81
-28.18
-29.52
-29.23
-26.94
-22.54
-16.36
-9.06
-1.51
5.51
11.41
15.94
19.09
21.00
21.87
21.93
21.40
20.51
19.47
18.46
17.57
16.77
16.00
15.15
14.16
13.05
11.89
10.81
9.85
8.98
8.08
6.96
5.44
3.48
1.14
-1.45
-4.13
-6.77
-9.34
-11.81
-14.24
-16.72
-19.36
-22.28
-25.45
-28.63
-31.30
-32.77
-32.39
-29.75
-24.91
-18.34
-10.86
-3.34
3.51
9.30
13.94
17.53
20.20
22.01
22.97
23.06
22.41
21.29
20.04
18.95
18.16
17.60
17.12
16.55
15.83
15.01
14.14
13.27
12.34
11.23
9.87
8.21
6.25
4.02
1.53
-1.18
-4.06
-6.99
-9.83
-12.46
-14.84
-16.99
-19.04
-21.16
-23.46
-25.97
-28.50
-30.67
-31.93
-31.70
-29.56
-25.38
-19.45
-12.35
-4.88
2.23
8.43
13.41
17.10
19.57
20.94
21.34
20.97
20.06
18.90
17.82
17.03
16.65
16.61
16.74
16.79
16.60
16.08
15.26
14.24
13.10
11.90
10.60
9.17
7.54
5.66
3.52
1.11
-1.52
-4.33
-7.21
-10.02
-12.62
-14.93
-16.95
-18.82
-20.79
-23.08
-25.76
-28.60
-31.09
-32.51
-32.18
-29.66
-24.91
-18.37
-10.78
-3.01
4.21
10.38
15.24
18.78
21.04
22.18
22.38
21.89
21.01
20.02
19.12
18.38
17.79
17.27
16.78
16.30
15.85
15.42
14.94
14.33
13.47
12.33
10.92
9.33
7.58
5.71
3.66
1.39
-1.08
-3.70
-6.26
-8.61
-10.62
-12.29
-13.77
-15.28
-17.06
-19.22
-21.70
-24.16
-26.06
-26.80
-25.82
-22.88
-18.11
-12.03
-5.33
1.26
7.22
12.19
16.04
18.65
19.99
20.08
19.11
17.42
15.49
13.76
12.53
11.88
11.71
11.82
12.05
12.23
12.29
12.16
11.81
11.22
10.40
9.37
8.08
6.49
4.55
2.27
-0.23
-2.72
-4.95
-6.78
-8.20
-9.43
-10.81
-12.64
-15.05
-17.83
-20.49
-22.31
-22.65
-21.06
-17.48
-12.22
-5.84
0.93
7.36
12.85
16.97
19.47
20.33
19.69
17.87
15.25
12.26
9.31
6.69
4.60
3.12
2.15
1.52
1.01
0.43
-0.34
-1.28
-2.35
-3.48
-4.65
-5.93
-7.42
-9.21
-11.28
-13.52
-15.76
-17.86
-19.77
-21.54
-23.37
-25.43
-27.76
-30.21
-32.35
-33.61
-33.39
-31.26
-27.08
-21.12
-13.95
-6.35
0.89
7.11
11.92
15.22
17.10
17.85
17.76
17.06
15.97
14.64
13.24
11.89
10.75
9.87
9.27
8.88
8.60
8.36
8.03
7.52
6.73
5.59
4.08
2.22
0.10
-2.21
-4.62
-7.05
-9.47
-11.87
-14.28
-16.77
-19.40
-22.14
-24.86
-27.20
-28.65
-28.63
-26.71
-22.71
-16.89
-9.85
-2.45
4.50
10.40
14.92
18.01
19.77
20.34
19.93
18.77
17.16
15.42
13.84
12.55
11.55
10.74
10.02
9.35
8.75
8.28
7.96
7.67
7.24
6.43
5.10
3.20
0.87
-1.72
-4.33
-6.81
-9.12
-11.29
-13.40
-15.58
-17.96
-20.58
-23.35
-25.98
-27.93
-28.59
-27.38
-24.08
-18.86
-12.28
-5.11
1.88
8.08
13.13
16.86
19.25
20.38
20.45
19.73
18.59
17.38
16.28
15.35
14.51
13.66
12.78
11.91
11.18
10.62
10.21
9.75
9.03
7.89
6.27
4.24
1.92
-0.55
-3.09
-5.61
-8.03
-10.27
-12.29
-14.15
-15.98
-18.02
-20.40
-23.16
-26.03
-28.52
-29.98
-29.76
-27.44
-22.95
-16.68
-9.33
-1.79
5.17
10.99
15.44
18.55
20.46
21.34
21.35
20.66
19.50
18.18
17.00
16.12
15.58
15.21
14.81
14.22
13.41
12.45
11.46
10.46
9.39
8.07
6.36
4.24
1.81
-0.71
-3.13
-5.34
-7.32
-9.17
-11.02
-13.03
-15.32
-17.97
-20.95
-24.03
-26.79
-28.61
-28.87
-27.07
-23.05
-17.09
-9.84
-2.14
5.17
11.48
16.45
20.04
22.36
23.63
24.06
23.84
23.14
22.14
21.00
19.91
18.97
18.21
17.57
16.91
16.11
15.11
13.97
12.77
11.61
10.45
9.18
7.60
5.57
3.12
0.41
-2.35
-4.92
-7.24
-9.33
-11.38
-13.54
-15.96
-18.64
-21.44
-24.04
-25.96
-26.68
-25.70
-22.74
-17.84
-11.38
-4.04
3.38
10.10
15.52
19.28
21.26
21.60
20.63
18.81
16.64
14.58
12.92
11.84
11.29
11.12
11.12
11.09
10.91
10.55
10.07
9.53
8.94
8.25
7.29
5.93
4.07
1.78
-0.79
-3.42
-5.98
-8.42
-10.82
-13.30
-15.93
-18.67
-21.27
-23.29
-24.15
-23.31
-20.41
-15.48
-8.99
-1.69
5.50
11.79
16.61
19.73
21.14
21.02
19.63
17.30
14.35
11.13
7.90
4.91
2.31
0.25
-1.21
-2.08
-2.47
-2.58
-2.71
-3.15
-4.12
-5.67
-7.69
-9.97
-12.21
-14.21
-15.91
-17.39
-18.88
-20.64
-22.87
-25.57
-28.57
-31.45
-33.65
-34.52
-33.54
-30.45
-25.37
-18.81
-11.48
-4.15
2.59
8.35
12.92
16.26
18.35
19.24
19.08
18.16
16.83
15.42
14.18
13.22
12.55
12.12
11.87
11.71
11.49
11.08
10.29
9.05
7.32
5.20
2.82
0.39
-1.93
-4.06
-5.99
-7.90
-9.98
-12.49
-15.54
-19.09
-22.83
-26.26
-28.76
-29.69
-28.62
-25.41
-20.28
-13.75
-6.57
0.52
6.91
12.20
16.21
18.94
20.56
21.30
21.48
21.35
21.09
20.78
20.34
19.74
18.88
17.80
16.55
15.24
13.94
12.67
11.39
10.01
8.47
6.66
4.58
2.24
-0.31
-2.95
-5.57
-8.05
-10.33
-12.43
-14.51
-16.82
-19.61
-22.98
-26.67
-30.08
-32.28
-32.38
-29.82
-24.64
-17.52
-9.51
-1.73
5.04
10.44
14.51
17.47
19.50
20.71
21.16
21.00
20.44
19.80
19.29
18.93
18.57
18.00
17.11
15.95
14.72
13.62
12.70
11.85
10.79
9.28
7.21
4.65
1.78
-1.12
-3.87
-6.36
-8.59
-10.65
-12.64
-14.71
-17.00
-19.64
-22.65
-25.85
-28.80
-30.86
-31.31
-29.59
-25.51
-19.39
-11.98
-4.24
2.89
8.80
13.25
16.33
18.31
19.46
19.97
19.98
19.55
18.83
18.01
17.31
16.82
16.53
16.26
15.73
14.77
13.37
11.68
9.94
8.32
6.89
5.48
3.92
2.02
-0.23
-2.67
-5.11
-7.39
-9.50
-11.52
-13.62
-15.90
-18.40
-21.04
-23.70
-26.21
-28.29
-29.56
-29.50
-27.69
-23.88
-18.28
-11.49
-4.35
2.34
8.08
12.73
16.38
19.18
21.18
22.30
22.50
21.86
20.67
19.34
18.23
17.58
17.35
17.32
17.20
16.72
15.76
14.35
12.68
10.96
9.38
7.97
6.62
5.17
3.45
1.43
-0.77
-2.97
-5.00
-6.84
-8.57
-10.36
-12.37
-14.67
-17.25
-19.97
-22.60
-24.77
-26.01
-25.82
-23.85
-19.97
-14.44
-7.83
-0.90
5.59
11.10
15.31
18.18
19.80
20.36
20.07
19.15
17.83
16.34
14.92
13.72
12.80
12.14
11.65
11.24
10.85
10.51
10.25
10.08
9.94
9.66
9.05
7.95
6.31
4.20
1.78
-0.77
-3.33
-5.91
-8.57
-11.37
-14.30
-17.20
-19.76
-21.55
-22.09
-21.05
-18.38
-14.26
-8.99
-2.95
3.52
10.14
16.59
22.49
27.25
30.09
30.56
28.94
26.17
23.70
22.94
24.60
28.41
33.04
36.50
37.50
36.15
34.12
33.97
38.31
48.71
65.34
86.59
109.39
130.47
147.18
157.90
162.09
160.35
152.66
139.94
125.08
108.43
88.35
62.51
28.76
-13.39
-61.13
-107.96
-144.98
-163.94
-160.98
-138.07
-102.70
-64.94
-33.57
-12.93
-2.54
0.55
-0.51
-4.58
-11.74
-22.04
-34.27
-45.93
-54.34
-58.20
-59.37
-61.27
-68.13
-82.36
-103.84
-130.02
-156.96
-180.64
-197.99
-208.72
-213.60
-214.40
-212.27
-207.53
-199.84
-188.91
-175.03
-151.60
-115.70
-67.27
-10.18
49.91
107.51
158.73
201.44
234.85
259.38
273.99
280.45
280.29
275.11
266.34
254.82
240.90
224.29
204.70
180.81
154.47
127.66
103.19
84.16
73.01
70.91
77.43
90.86
108.06
125.87
141.02
151.06
154.48
150.50
138.94
120.15
95.04
64.87
31.33
-3.91
-39.42
-74.09
-107.68
-140.65
-173.81
-207.97
-243.01
-277.61
-308.94
-333.18
-346.62
-347.49
-337.10
-319.20
-298.79
-279.55
-263.00
-249.07
-237.52
-229.27
-225.90
-228.57
-235.64
-242.93
-244.35
-234.51
-210.48
-172.30
-122.77
-66.05
-7.72
46.64
91.62
124.06
144.03
154.71
160.99
166.23
171.61
175.33
175.28
169.96
159.08
142.91
120.98
93.38
61.14
28.18
0.14
-17.57
-22.46
-16.50
-4.28
8.49
18.59
25.09
29.16
32.02
33.91
34.68
33.89
32.47
31.40
31.95
34.08
36.63
37.83
35.72
29.65
19.78
7.94
-3.84
-13.37
-19.46
-22.44
-23.31
-23.82
-24.65
-25.88
-26.62
-26.63
-26.58
-27.87
-32.13
-39.37
-48.35
-56.34
-61.01
-61.16
-57.25
-51.04
-44.08
-37.45
-30.84
-23.77
-15.69
-6.78
2.17
10.46
17.39
23.03
27.62
31.75
35.77
39.57
42.73
44.43
44.44
42.94
40.99
39.58
39.29
39.84
40.20
39.40
36.95
33.49
30.29
28.90
30.37
34.72
41.15
48.17
54.42
58.83
61.15
61.67
61.11
60.57
61.22
64.59
72.24
85.59
105.01
129.03
154.13
175.32
187.96
189.31
179.80
162.36
141.01
118.90
97.19
75.42
52.60
28.65
4.79
-17.17
-35.90
-51.44
-64.90
-77.71
-90.44
-102.76
-113.88
-123.76
-133.58
-145.32
-160.50
-178.93
-198.59
-216.46
-230.26
-239.47
-245.28
-249.55
-252.88
-253.86
-249.43
-236.60
-213.96
-182.27
-143.86
-101.30
-57.34
-13.95
27.29
65.06
98.20
126.12
149.24
169.19
188.59
208.79
230.65
254.19
278.81
303.29
325.66
343.23
352.87
351.51
334.25
297.36
239.58
163.24
74.04
-20.47
-112.87
-197.43
-270.89
-335.25
-393.70
-448.62
-499.98
-545.63
-582.90
-610.20
-627.44
-617.68
-569.92
-481.90
-363.39
-232.33
-106.29
3.55
92.94
162.36
214.54
250.03
269.75
275.68
271.47
261.85
251.19
242.41
236.71
234.12
231.87
227.34
219.09
207.52
194.36
181.81
171.48
164.01
159.30
155.39
150.36
143.00
133.31
122.09
110.91
101.14
93.52
88.12
83.54
78.13
70.46
59.92
46.47
31.38
16.39
3.01
-8.02
-17.07
-25.36
-34.40
-45.24
-58.62
-73.55
-88.22
-101.07
-111.20
-118.88
-125.28
-131.97
-136.22
-140.31
-146.08
-154.42
-164.59
-173.69
-176.97
-169.34
-147.92
-114.01
-73.96
-35.90
-6.94
9.46
14.42
12.15
7.32
2.85
-0.62
-4.18
-8.23
-12.00
-13.99
-13.00
-9.03
-3.39
1.99
5.22
5.73
4.25
2.25
1.13
1.63
3.45
5.61
6.85
6.31
3.72
-0.36
-4.90
-9.00
-12.22
-14.70
-16.98
-19.74
-23.25
-27.35
-31.63
-35.63
-39.17
-42.46
-46.00
-50.29
-55.77
-62.13
-68.85
-75.61
-82.44
-89.85
-98.59
-109.68
-123.12
-138.35
-153.07
-164.77
-171.58
-172.35
-166.87
-157.50
-146.92
-135.66
-123.51
-107.82
-85.96
-56.78
-20.60
20.23
62.64
102.09
137.73
170.31
204.22
244.38
293.67
353.03
420.30
491.94
562.04
629.17
673.30
679.29
640.71
561.89
457.38
343.16
250.44
180.15
128.19
90.86
69.22
67.52
79.63
101.25
126.32
148.75
161.45
163.32
155.90
132.75
93.53
40.90
-18.50
-78.41
-134.05
-184.60
-227.72
-261.08
-281.43
-283.21
-265.25
-229.14
-181.18
-130.94
-90.13
-66.36
-62.08
-77.30
-103.18
-128.35
-143.11
-144.38
-135.49
-123.49
-113.41
-106.65
-101.38
-93.64
-82.02
-68.02
-55.23
-47.16
-45.61
-49.51
-55.65
-60.73
-62.21
-60.44
-58.33
-59.79
-67.91
-83.73
-105.99
-131.97
-158.71
-183.11
-202.36
-213.62
-212.89
-196.92
-164.54
-117.56
-60.50
0.81
61.75
120.33
172.50
216.23
249.02
265.69
259.72
228.07
175.38
114.51
61.86
29.50
21.31
31.73
50.51
69.36
85.11
98.80
112.00
124.37
133.29
137.33
136.53
131.88
123.72
110.76
91.34
65.25
36.17
7.87
-15.13
-31.52
-43.60
-55.11
-68.58
-83.64
-98.10
-108.21
-114.06
-116.88
-118.79
-121.58
-125.63
-130.16
-133.38
-134.22
-132.41
-128.55
-123.17
-117.02
-110.67
-104.36
-99.42
-94.22
-87.68
-79.14
-68.19
-54.70
-39.28
-23.34
-8.74
2.67
9.62
10.85
5.14
-7.75
-26.51
-47.98
-67.11
-78.23
-77.13
-62.86
-37.25
-8.62
14.69
27.62
29.67
24.18
15.51
6.82
-0.61
-7.08
-13.22
-18.35
-21.17
-20.77
-17.09
-11.47
-5.86
-1.76
0.55
1.88
3.97
8.14
14.45
22.35
30.04
35.76
38.82
39.89
40.59
42.87
47.78
54.96
63.87
73.27
82.40
91.66
102.49
116.55
135.10
158.62
181.14
201.09
217.60
228.96
231.70
221.19
194.09
151.10
97.61
42.44
-4.63
-37.96
-57.34
-66.44
-69.53
-68.03
-60.55
-45.33
-23.65
-0.62
15.60
18.22
6.32
-16.05
-40.95
-60.66
-71.43
-74.66
-74.77
-76.47
-81.78
-89.29
-96.25
-99.73
-99.01
-95.58
-92.44
-92.64
-98.55
-111.15
-130.10
-154.15
-179.77
-201.89
-214.64
-213.71
-198.03
-170.34
-136.18
-98.98
-64.64
-36.67
-18.62
-11.17
-12.69
-20.82
-33.55
-49.32
-66.39
-83.13
-97.67
-109.14
-117.11
-122.85
-128.23
-134.25
-140.90
-147.29
-152.44
-155.21
-154.89
-150.99
-143.33
-134.21
-124.89
-115.94
-107.25
-98.63
-89.66
-80.24
-70.38
-60.55
-51.42
-43.22
-35.96
-29.35
-23.05
-16.61
-9.67
-2.03
6.28
14.96
23.85
32.66
41.06
48.69
55.31
60.75
65.02
68.12
69.96
70.43
69.19
65.81
59.96
51.75
41.79
31.20
21.29
13.18
7.53
4.30
3.02
3.09
4.35
7.30
13.09
23.08
38.21
58.57
83.14
110.23
137.98
165.22
191.84
218.83
247.91
280.93
319.27
363.02
410.37
457.39
498.52
527.98
541.52
538.10
520.28
493.29
463.02
433.74
406.67
380.35
352.23
320.62
286.03
251.00
218.41
189.65
163.44
136.39
104.93
67.38
24.79
-19.97
-64.07
-105.94
-144.78
-179.40
-207.97
-228.30
-239.40
-242.44
-239.83
-232.91
-220.40
-199.26
-167.54
-129.10
-92.44
-68.12
-63.91
-81.31
-115.37
-157.94
-201.21
-238.84
-269.11
-289.50
-297.16
-289.34
-264.89
-224.79
-172.38
-112.59
-49.77
6.46
47.26
64.07
51.74
11.62
-47.34
-110.85
-163.64
-192.07
-194.78
-175.02
-140.44
-98.90
-54.73
-8.35
41.62
78.90
117.84
147.44
159.30
149.37
121.53
87.93
63.81
61.54
85.33
132.14
187.96
240.60
281.64
308.40
323.51
329.19
324.60
306.50
274.39
230.83
187.15
157.17
150.46
168.23
200.03
228.59
237.89
220.51
179.03
125.06
70.87
13.07
-50.67
-120.47
-191.94
-250.74
-294.17
-325.32
-349.28
-372.47
-398.16
-423.66
-441.95
-444.50
-424.98
-383.32
-324.50
-257.43
-192.26
-136.80
-93.39
-59.51
-30.34
-0.98
31.16
68.23
111.73
162.67
221.55
280.18
327.29
349.90
338.47
291.10
215.81
127.02
40.36
-31.91
-83.80
-115.11
-130.16
-134.48
-132.72
-127.26
-119.21
-109.65
-100.28
-93.13
-88.95
-87.18
-86.12
-83.81
-78.89
-71.34
-62.37
-53.85
-47.61
-44.20
-42.97
-42.42
-40.89
-37.36
-31.83
-25.16
-18.69
-13.60
-10.32
-8.46
-7.13
-5.29
-2.30
1.90
6.88
11.98
16.58
20.40
23.53
26.26
28.93
31.61
34.17
36.27
37.42
37.37
35.95
33.27
29.51
24.99
20.03
14.89
9.83
4.91
0.24
-4.17
-8.29
-12.10
-15.60
-18.68
-21.31
-23.34
-24.83
-25.69
-25.86
-25.21
-23.65
-21.10
-17.49
-12.91
-7.37
-1.37
4.66
10.47
16.08
21.71
27.55
33.73
40.22
47.11
53.91
60.26
66.12
71.74
77.62
84.11
91.31
98.93
106.55
112.91
116.75
117.58
115.70
111.98
106.97
100.51
91.00
80.89
70.39
58.61
45.95
34.23
26.01
23.03
25.28
30.87
36.94
39.71
34.33
19.14
-3.81
-30.40
-57.04
-82.46
-107.76
-134.88
-166.48
-207.95
-261.49
-325.36
-395.17
-465.49
-530.81
-585.28
-622.58
-638.51
-636.72
-621.37
-594.92
-557.80
-509.46
-449.23
-376.40
-290.10
-166.26
-8.55
154.88
288.61
373.01
412.22
425.32
427.10
426.93
429.15
427.83
420.41
408.73
396.29
386.54
380.78
378.14
377.28
376.40
370.94
360.36
348.45
338.40
332.23
329.28
326.31
318.86
302.22
271.07
224.72
167.24
101.13
29.55
-43.88
-115.23
-180.90
-238.41
-287.00
-325.38
-351.95
-371.18
-387.51
-403.22
-418.27
-432.32
-446.52
-463.62
-486.28
-482.31
-435.48
-352.62
-257.87
-172.61
-105.15
-54.09
-14.77
17.18
44.59
63.41
70.82
68.15
60.62
53.78
50.98
52.71
57.77
64.32
66.48
60.64
47.57
31.72
17.86
8.95
5.24
5.35
7.25
6.24
-1.07
-15.50
-35.07
-55.99
-73.21
-81.43
-76.07
-55.41
-23.44
12.32
43.80
65.80
76.95
81.37
84.11
89.27
98.03
108.26
116.52
120.61
120.95
119.80
120.25
124.27
132.25
142.72
152.40
157.42
154.46
141.93
120.07
90.87
56.83
21.15
-12.18
-38.52
-53.40
-54.38
-42.24
-21.67
0.54
17.87
26.36
25.66
17.17
2.45
-17.66
-41.99
-67.78
-89.63
-100.89
-96.71
-76.41
-43.29
-6.47
22.84
35.78
29.40
7.58
-20.44
-44.13
-55.20
-50.48
-31.87
-4.42
25.83
53.73
75.55
89.68
96.15
97.04
95.79
96.36
102.09
114.06
130.98
149.47
166.10
178.53
186.20
189.72
189.83
187.40
182.88
176.78
168.80
157.97
142.87
122.11
95.65
64.91
33.51
6.10
-12.41
-18.24
-9.73
12.03
42.71
75.96
104.89
124.81
134.43
136.14
133.95
130.56
125.89
116.67
99.13
71.43
35.81
-1.51
-32.75
-51.50
-55.86
-48.86
-37.65
-30.15
-32.34
-45.94
-67.86
-92.72
-115.11
-133.25
-149.20
-167.78
-193.55
-227.52
-266.65
-304.66
-334.97
-352.47
-355.22
-344.46
-323.87
-298.11
-270.89
-244.99
-221.99
-203.77
-192.22
-188.40
-191.38
-197.42
-202.04
-202.00
-198.27
-194.97
-196.70
-204.13
-211.80
-210.12
-190.60
-152.82
-105.93
-65.48
-44.65
-46.76
-64.43
-84.67
-97.94
-103.29
-107.88
-119.88
-141.90
-167.93
-185.65
-183.94
-158.79
-116.09
-67.71
-25.25
5.94
27.18
43.38
59.98
79.70
102.88
128.39
156.00
187.58
226.48
274.36
328.30
381.02
422.85
445.52
445.80
426.88
392.25
350.55
312.49
285.32
270.23
263.78
261.28
260.03
258.85
258.36
258.47
259.64
259.76
256.71
249.40
236.70
218.35
193.93
164.36
129.23
86.95
40.20
-6.17
-46.36
-77.39
-97.53
-116.84
-136.15
-154.79
-172.58
-190.31
-210.87
-227.79
-240.05
-247.73
-251.76
-251.49
-246.93
-238.36
-225.79
-209.95
-191.84
-174.62
-160.97
-152.85
-149.97
-151.59
-156.76
-164.09
-173.05
-183.67
-197.80
-217.23
-243.45
-277.09
-318.51
-367.20
-419.78
-470.08
-509.33
-529.33
-524.84
-495.57
-446.79
-387.50
-327.32
-272.98
-227.60
-191.46
-163.88
-144.79
-134.42
-133.08
-139.81
-152.54
-168.34
-184.45
-199.41
-212.69
-224.94
-236.40
-247.03
-255.73
-260.99
-261.64
-257.03
-247.79
-235.11
-220.69
-205.59
-190.15
-173.83
-155.16
-132.81
-105.67
-73.77
-37.72
0.81
39.84
77.50
111.81
141.31
164.50
180.43
188.22
187.62
178.88
162.71
140.65
114.31
85.77
56.67
28.67
2.84
-20.15
-39.82
-56.15
-69.02
-78.61
-84.89
-87.90
-87.67
-84.11
-77.46
-67.71
-55.37
-40.72
-24.42
-7.06
10.77
28.27
45.05
60.52
74.59
86.99
97.80
107.03
114.70
121.04
125.98
129.88
132.72
134.91
136.72
138.44
140.49
143.02
146.56
151.15
157.17
164.47
172.90
182.15
191.53
200.62
208.54
214.91
219.05
220.66
219.57
215.63
209.23
200.46
190.00
178.09
165.41
152.33
139.24
126.56
114.41
103.31
93.34
85.03
78.43
73.78
71.17
70.35
71.31
73.47
76.63
80.08
83.49
86.36
88.19
88.85
87.97
85.70
81.81
76.59
70.07
62.46
54.17
45.36
36.69
28.43
21.33
15.71
12.02
10.55
11.19
13.99
18.42
24.25
30.70
37.43
43.88
49.59
54.50
58.36
61.52
63.94
66.10
68.08
70.13
72.48
75.00
77.85
80.72
83.77
86.70
91.00
97.45
105.61
114.23
121.42
126.27
127.73
126.22
122.02
116.93
112.44
108.76
105.51
101.84
97.94
93.88
90.89
90.10
95.71
110.55
134.06
163.26
194.18
224.50
252.39
278.46
303.63
338.19
388.75
453.81
524.80
591.36
646.89
686.81
713.42
729.71
758.23
813.87
895.30
986.75
1069.28
1131.42
1165.65
1178.31
1176.32
1196.98
1264.63
1377.85
1512.13
1638.26
1739.08
1803.85
1843.87
1870.67
1933.93
2064.69
2259.61
2484.29
2697.04
2871.38
2989.20
3061.89
2834.34
2188.12
1189.93
63.31
-966.06
-1780.87
-2301.70
-2624.86
-2823.09
-2942.02
-2967.31
-2888.40
-2728.08
-2527.51
-2330.45
-2163.38
-2043.13
-1956.23
-1887.88
-1796.05
-1655.97
-1469.27
-1261.96
-1066.01
-900.63
-776.88
-681.97
-602.87
-511.81
-414.53
-327.23
-269.05
-250.30
-269.36
-323.45
-398.35
-478.47
-538.00
-557.17
-528.76
-465.10
-389.82
-325.75
-289.76
-282.86
-296.59
-315.50
-324.38
-313.86
-285.23
-246.13
-204.02
-163.65
-124.61
-85.56
-47.11
-12.08
17.05
38.54
52.08
60.64
67.56
75.44
85.22
95.97
105.59
112.32
114.68
112.96
108.86
104.19
100.21
96.96
92.95
85.31
75.43
63.12
48.69
32.98
16.78
0.53
-15.78
-32.63
-50.47
-69.24
-88.58
-106.80
-121.37
-129.99
-131.35
-125.49
-113.65
-97.65
-79.24
-60.20
-41.64
-24.25
-8.73
4.16
13.79
19.91
22.84
23.38
22.25
20.12
17.42
14.35
10.89
7.09
3.04
-0.94
-4.37
-6.89
-8.15
-8.10
-7.06
-5.69
-4.87
-5.30
-7.31
-10.69
-14.98
-19.59
-24.08
-28.25
-32.01
-35.18
-37.42
-38.28
-37.37
-34.69
-30.56
-25.65
-20.71
-16.40
-13.10
-10.90
-9.73
-9.38
-9.71
-10.61
-12.04
-13.93
-16.15
-18.47
-20.62
-22.34
-23.52
-24.22
-24.67
-25.22
-26.20
-27.83
-30.18
-33.14
-36.45
-39.88
-43.32
-46.87
-50.76
-55.25
-60.49
-66.43
-72.77
-78.97
-84.47
-88.72
-91.35
-92.14
-91.03
-88.03
-83.15
-76.34
-67.55
-56.78
-44.18
-30.32
-16.02
-2.31
9.88
20.03
28.10
34.41
39.30
42.99
45.35
46.04
44.79
41.52
36.40
29.71
21.98
14.02
7.08
2.61
1.70
4.49
9.79
15.35
18.80
18.57
14.62
8.23
1.36
-4.32
-7.95
-9.49
-9.32
-7.84
-5.31
-1.92
1.93
5.56
8.16
9.13
8.12
5.35
1.40
-3.03
-7.32
-11.14
-14.53
-17.79
-21.33
-25.48
-30.33
-35.73
-41.34
-46.72
-51.49
-55.45
-58.60
-61.13
-63.35
-65.61
-68.27
-71.65
-75.97
-81.33
-87.66
-94.68
-101.88
-108.59
-114.00
-117.39
-118.27
-116.58
-112.71
-107.40
-101.50
-95.74
-90.47
-85.74
-81.41
-77.34
-73.49
-69.87
-66.40
-62.89
-59.08
-54.80
-50.11
-45.27
-40.60
-36.34
-32.53
-29.10
-25.90
-22.89
-20.12
-17.71
-15.72
-14.14
-12.87
-11.75
-10.69
-9.71
-8.97
-8.73
-9.18
-10.33
-11.92
-13.37
-13.95
-13.03
-10.27
-5.73
0.21
6.96
13.85
20.29
25.76
29.94
32.65
33.93
34.05
33.38
32.38
31.44
30.84
30.66
30.85
31.22
31.58
31.80
31.75
31.42
30.86
30.10
29.17
28.04
26.64
24.90
22.77
20.28
17.55
14.78
12.11
9.65
7.37
5.15
2.86
0.54
-1.61
-3.18
-3.74
-2.98
-0.85
2.39
6.26
10.24
13.90
16.97
19.36
21.05
22.07
22.47
22.38
21.96
21.40
20.85
20.38
19.97
19.57
19.19
18.89
18.71
18.64
18.50
18.06
17.10
15.61
13.72
11.74
9.87
8.24
6.79
5.37
3.80
1.94
-0.30
-2.95
-5.97
-9.22
-12.49
-15.51
-18.03
-19.84
-20.81
-20.86
-19.99
-18.31
-16.14
-13.96
-12.36
-11.83
-12.57
-14.45
-17.10
-20.13
-23.26
-26.49
-30.00
-33.92
-38.12
-42.00
-44.64
-45.06
-42.60
-37.12
-28.96
-18.76
-7.15
5.38
18.47
31.73
44.56
56.16
65.80
72.91
77.33
79.10
78.40
75.48
70.64
64.42
57.58
51.08
45.79
42.24
40.43
39.87
39.91
39.96
39.77
39.35
38.86
38.40
37.84
36.97
35.52
33.40
30.74
27.92
25.32
23.20
21.54
20.08
18.52
16.70
14.78
13.04
11.79
11.02
10.46
9.74
8.58
7.02
5.34
3.88
2.79
1.96
1.11
-0.04
-1.55
-3.25
-4.84
-6.01
-6.54
-6.35
-5.43
-3.85
-1.74
0.73
3.36
5.90
8.09
9.67
10.47
10.48
9.91
9.09
8.39
8.02
7.93
7.91
7.69
7.11
6.22
5.18
4.23
3.55
3.20
3.14
3.24
3.30
3.15
2.70
1.97
1.13
0.29
-0.50
-1.31
-2.33
-3.67
-5.32
-7.07
-8.59
-9.52
-9.58
-8.66
-6.80
-4.24
-1.33
1.49
3.86
5.56
6.59
7.05
7.03
6.56
5.59
4.17
2.47
0.84
-0.42
-1.13
-1.38
-1.40
-1.52
-1.93
-2.68
-3.71
-4.97
-6.47
-8.27
-10.43
-12.93
-15.64
-18.37
-20.99
-23.45
-25.85
-28.32
-30.97
-33.74
-36.40
-38.62
-40.13
-40.85
-41.00
-40.94
-41.03
-41.52
-42.45
-43.70
-45.17
-46.76
-48.39
-50.00
-51.48
-52.78
-53.81
-54.46
-54.45
-53.29
-50.39
-45.23
-37.67
-28.02
-16.95
-5.13
6.96
19.15
31.37
43.46
55.08
65.97
76.28
86.71
98.22
111.49
126.20
141.05
154.18
164.03
170.18
173.50
175.73
178.64
183.23
189.48
196.47
202.77
206.95
207.85
204.77
197.65
187.05
174.01
159.82
145.63
132.19
119.77
108.16
96.89
85.35
73.06
59.76
45.70
31.56
18.39
7.20
-1.48
-7.92
-13.21
-18.78
-25.82
-34.76
-45.18
-56.10
-66.53
-76.01
-84.74
-93.37
-102.64
-112.87
-123.90
-135.14
-145.85
-155.31
-162.97
-168.35
-171.05
-170.78
-167.55
-161.82
-154.55
-147.08
-140.74
-136.60
-135.10
-135.99
-138.34
-140.80
-141.95
-140.67
-136.32
-128.80
-118.42
-105.68
-91.23
-75.72
-59.82
-44.25
-29.69
-16.83
-6.28
1.51
6.35
8.38
8.10
6.24
3.64
1.09
-0.85
-1.85
-1.74
-0.49
1.80
4.86
8.29
11.62
14.42
16.38
17.36
17.34
16.40
14.64
12.22
9.29
6.12
2.95
0.02
-2.54
-4.68
-6.51
-8.24
-10.01
-11.96
-14.06
-16.13
-17.98
-19.43
-20.47
-21.17
-21.68
-22.13
-22.67
-23.42
-24.43
-25.60
-26.68
-27.23
-26.74
-24.86
-21.51
-17.03
-11.99
-7.04
-2.69
0.83
3.51
5.47
6.85
7.80
8.35
8.59
8.58
8.44
8.31
8.31
8.53
8.98
9.61
10.25
10.75
10.96
10.81
10.29
9.43
8.29
6.84
5.07
2.94
0.46
-2.20
-4.75
-6.77
-7.84
-7.63
-6.01
-3.08
0.90
5.56
10.55
15.46
19.99
23.90
26.99
29.19
30.49
30.91
30.55
29.50
27.94
26.09
24.22
22.48
20.91
19.41
17.85
16.18
14.46
12.78
11.21
9.66
7.93
5.87
3.41
0.68
-2.19
-5.12
-8.14
-11.29
-14.48
-17.37
-19.38
-19.92
-18.58
-15.35
-10.65
-5.17
0.32
5.23
9.29
12.55
15.20
17.40
19.18
20.39
20.85
20.46
19.38
17.96
16.63
15.76
15.52
15.84
16.49
17.20
17.70
17.83
17.47
16.58
15.14
13.20
10.88
8.37
5.84
3.39
0.98
-1.52
-4.18
-6.87
-9.16
-10.38
-9.90
-7.39
-3.02
2.54
8.41
13.73
17.97
20.98
22.84
23.79
24.01
23.65
22.84
21.75
20.57
19.48
18.56
17.82
17.18
16.53
15.84
15.09
14.26
13.30
12.16
10.74
9.00
6.96
4.69
2.27
-0.24
-2.77
-5.34
-8.02
-10.92
-14.16
-17.76
-21.56
-25.18
-28.04
-29.53
-29.17
-26.87
-22.92
-17.92
-12.59
-7.60
-3.44
-0.47
1.10
1.14
-0.46
-3.59
-8.03
-13.37
-19.11
-24.81
-30.04
-34.45
-37.56
-38.91
-38.06
-34.70
-28.83
-20.68
-10.72
0.46
12.24
23.99
35.01
44.63
52.21
57.31
59.79
59.77
57.62
53.82
48.91
43.44
38.06
33.56
30.70
30.20
32.34
36.90
43.05
49.54
55.04
58.47
59.23
57.27
53.01
47.14
40.37
33.36
26.54
20.21
14.54
9.64
5.65
2.69
0.85
0.09
0.21
0.83
1.53
1.94
1.78
0.99
-0.43
-2.38
-4.77
-7.41
-10.07
-12.48
-14.41
-15.84
-16.94
-18.05
-19.42
-21.12
-22.79
-23.82
-23.47
-21.20
-16.82
-10.57
-3.12
4.79
12.36
19.00
24.27
27.87
29.68
29.69
28.08
25.18
21.51
17.65
14.18
11.51
9.88
9.28
9.50
10.25
11.18
11.99
12.53
12.75
12.70
12.46
12.06
11.39
10.35
9.00
7.67
6.67
6.20
6.22
6.50
6.86
7.24
7.99
9.89
13.91
20.73
30.40
42.25
55.21
68.08
79.63
89.15
96.71
102.98
108.86
115.03
121.80
129.15
136.90
143.96
149.56
154.01
158.65
164.98
173.80
184.87
197.28
209.81
219.20
222.63
218.97
209.03
194.50
176.92
157.50
137.43
117.67
95.42
67.51
32.41
-8.83
-53.84
-100.39
-146.99
-192.55
-236.52
-283.09
-336.02
-395.70
-458.19
-517.62
-569.28
-610.95
-642.40
-638.59
-584.10
-483.13
-359.39
-238.77
-135.66
-52.84
12.28
63.92
105.74
136.35
154.31
160.89
160.73
159.11
159.30
161.75
165.59
169.16
167.78
157.85
138.74
113.19
85.02
59.37
37.98
21.39
9.24
-0.83
-10.70
-20.75
-29.61
-35.49
-37.46
-36.14
-32.35
-27.23
-22.50
-19.29
-17.71
-16.83
-15.21
-11.68
-8.28
-3.85
2.29
10.40
20.79
33.66
49.17
67.26
87.46
107.78
126.26
141.53
153.38
162.36
169.33
174.95
180.05
185.34
189.09
189.64
186.61
181.06
174.44
167.46
159.43
148.68
132.45
108.80
75.30
32.06
-17.78
-69.66
-119.56
-164.95
-204.46
-237.72
-269.94
-306.12
-347.92
-393.86
-441.17
-487.99
-534.04
-580.17
-595.75
-563.92
-486.77
-383.67
-278.13
-185.14
-109.32
-48.99
-0.33
40.21
69.66
85.40
88.49
82.94
74.57
68.20
66.70
70.86
79.98
88.27
87.16
77.82
64.67
53.60
49.58
55.29
70.72
93.70
117.36
135.24
143.56
140.22
124.96
98.95
64.99
27.73
-0.90
-14.27
-10.61
6.62
29.38
49.12
60.33
62.22
57.92
51.98
46.26
40.63
34.09
25.83
16.57
8.29
2.82
0.85
1.67
2.78
1.72
-2.65
-10.13
-19.21
-27.79
-34.33
-38.25
-40.14
-41.83
-45.09
-50.91
-59.25
-69.10
-78.72
-86.62
-91.74
-93.87
-93.70
-92.17
-89.92
-87.03
-83.79
-78.63
-70.37
-58.35
-43.08
-26.21
-10.04
3.24
12.26
17.04
19.35
21.67
26.89
36.92
52.21
71.71
93.68
116.28
138.42
160.43
181.35
202.10
223.70
246.70
270.54
292.87
309.18
313.48
300.83
269.35
222.48
168.11
116.08
74.11
44.90
26.23
11.13
-6.77
-31.59
-63.97
-101.75
-140.77
-175.97
-201.60
-214.20
-213.79
-203.53
-189.15
-176.00
-167.44
-163.70
-162.67
-161.56
-158.57
-153.83
-146.66
-136.21
-121.15
-100.46
-74.39
-45.06
-15.92
9.34
27.78
38.66
42.86
42.35
39.21
34.81
29.53
22.95
14.54
4.07
-7.76
-19.76
-30.57
-39.15
-45.10
-48.85
-51.42
-53.75
-56.61
-60.16
-64.18
-68.22
-71.96
-75.29
-78.44
-81.87
-85.84
-90.61
-96.17
-102.33
-108.68
-114.68
-119.67
-122.88
-125.33
-127.16
-128.36
-128.75
-128.23
-126.73
-124.30
-121.12
-117.46
-113.62
-109.61
-105.45
-101.15
-96.70
-92.13
-87.50
-82.89
-78.37
-73.99
-69.48
-64.59
-59.10
-52.86
-45.94
-38.55
-31.09
-23.91
-17.26
-10.98
-4.72
1.93
9.33
17.52
26.24
35.03
43.39
51.14
58.53
66.17
74.83
85.09
97.05
110.32
124.21
137.98
151.24
164.04
176.86
190.39
205.48
222.99
243.52
267.00
292.06
315.88
334.50
344.06
342.09
328.58
305.91
277.91
248.36
219.74
193.02
168.16
144.95
123.68
105.04
89.70
77.73
68.52
61.03
54.37
48.08
42.18
37.07
33.00
29.92
27.40
24.81
21.59
17.50
12.73
7.80
3.36
-0.09
-2.37
-3.69
-4.52
-5.38
-6.61
-8.33
-10.41
-12.55
-14.52
-16.16
-17.52
-18.73
-19.99
-21.50
-23.38
-25.70
-28.43
-31.48
-34.70
-37.82
-40.44
-42.09
-42.29
-40.74
-37.40
-32.58
-26.85
-20.86
-15.18
-10.17
-5.98
-2.62
0.02
2.01
3.44
4.42
5.00
5.23
5.11
4.71
4.11
3.49
3.10
3.10
3.53
4.21
4.83
5.04
4.65
3.66
2.26
0.70
-0.85
-2.31
-3.78
-5.41
-7.36
-9.70
-12.39
-15.25
-18.00
-20.26
-21.62
-21.74
-20.44
-17.78
-14.06
-9.80
-5.54
-1.77
1.17
3.14
4.05
3.85
2.55
0.23
-2.88
-6.43
-10.01
-13.36
-16.40
-19.27
-22.27
-25.63
-29.45
-33.61
-37.95
-42.30
-46.64
-51.15
-56.08
-61.77
-68.47
-76.27
-85.06
-94.54
-104.26
-113.61
-121.81
-127.96
-131.05
-130.06
-124.17
-112.86
-96.09
-74.27
-48.35
-19.66
10.16
39.31
66.01
88.74
106.43
118.64
125.56
127.83
126.41
122.31
116.45
109.59
102.30
95.04
88.13
81.79
76.02
70.72
65.71
60.84
56.09
51.57
47.48
43.94
40.92
38.19
35.36
32.08
28.17
23.71
19.02
14.49
10.34
6.61
3.16
-0.22
-3.63
-7.00
-10.09
-12.61
-14.26
-14.91
-14.47
-13.05
-10.86
-8.19
-5.40
-2.86
-0.83
0.53
1.25
1.50
1.47
1.31
1.08
0.78
0.39
-0.02
-0.34
-0.48
-0.38
-0.11
0.17
0.35
0.32
0.05
-0.45
-1.15
-2.09
-3.23
-4.55
-5.98
-7.41
-8.75
-9.96
-11.03
-11.94
-12.71
-13.32
-13.77
-14.11
-14.41
-14.75
-15.10
-15.30
-15.06
-14.07
-12.10
-9.15
-5.40
-1.22
2.93
6.62
9.58
11.68
12.97
13.61
13.81
13.78
13.68
13.55
13.40
13.18
12.88
12.50
12.12
11.80
11.56
11.39
11.21
10.92
10.39
9.57
8.42
6.93
5.09
2.94
0.52
-2.10
-4.79
-7.43
-9.85
-12.00
-13.89
-15.61
-17.26
-18.89
-20.41
-21.60
-22.16
-21.86
-20.58
-18.41
-15.59
-12.44
-9.27
-6.31
-3.67
-1.38
0.54
2.08
3.24
4.05
4.56
4.88
5.11
5.31
5.46
5.45
5.16
4.50
3.49
2.21
0.77
-0.67
-2.04
-3.28
-4.37
-5.29
-6.09
-6.77
-7.33
-7.77
-8.05
-8.15
-8.16
-8.26
-8.69
-9.63
-11.12
-12.97
-14.86
-16.36
-17.12
-16.93
-15.82
-13.96
-11.61
-8.99
-6.32
-3.75
-1.40
0.58
2.10
3.11
3.65
3.83
3.83
3.75
3.66
3.56
3.43
3.29
3.12
2.91
2.55
1.95
1.04
-0.13
-1.37
-2.48
-3.32
-3.91
-4.36
-4.90
-5.62
-6.51
-7.50
-8.51
-9.56
-10.74
-12.16
-13.87
-15.83
-17.88
-19.74
-21.10
-21.65
-21.18
-19.65
-17.21
-14.17
-10.85
-7.51
-4.26
-1.19
1.64
4.07
5.94
7.12
7.64
7.67
7.45
7.21
7.02
6.91
6.75
6.48
6.04
5.44
4.71
3.87
2.94
1.95
0.96
-0.00
-0.94
-1.88
-2.88
-3.99
-5.23
-6.57
-7.92
-9.20
-10.38
-11.50
-12.62
-13.78
-14.93
-15.88
-16.40
-16.25
-15.27
-13.50
-11.08
-8.23
-5.18
-2.13
0.77
3.41
5.68
7.50
8.81
9.60
9.88
9.65
8.95
7.86
6.52
5.13
3.88
2.94
2.37
2.13
2.14
2.29
2.48
2.56
2.41
1.90
0.93
-0.43
-2.01
-3.60
-5.00
-6.18
-7.20
-8.20
-9.32
-10.64
-12.12
-13.68
-15.18
-16.39
-17.00
-16.73
-15.40
-12.98
-9.71
-5.95
-2.11
1.47
4.58
7.11
9.03
10.33
11.03
11.23
11.07
10.72
10.35
10.08
9.93
9.82
9.63
9.24
8.56
7.53
6.16
4.55
2.83
1.08
-0.63
-2.32
-4.03
-5.77
-7.55
-9.28
-10.87
-12.32
-13.71
-15.19
-16.91
-18.89
-20.95
-22.78
-23.97
-24.12
-23.02
-20.68
-17.36
-13.45
-9.50
-5.90
-2.91
-0.59
1.17
2.53
3.62
4.51
5.23
5.83
6.44
7.20
8.21
9.45
10.77
12.03
13.06
13.80
14.28
14.52
14.48
14.11
13.37
12.25
10.84
9.27
7.62
5.93
4.15
2.23
0.14
-1.99
-3.96
-5.50
-6.35
-6.33
-5.37
-3.53
-1.02
1.87
4.75
7.24
9.06
10.09
10.43
10.39
10.33
10.62
11.44
12.72
14.22
15.64
16.85
17.83
18.73
19.74
20.92
22.19
23.32
24.01
23.90
22.78
20.49
17.07
12.70
7.74
2.63
-2.19
-6.40
-9.87
-12.60
-14.71
-16.25
-17.21
-17.42
-16.58
-14.38
-10.57
-5.15
1.61
9.09
16.46
22.87
27.65
30.50
31.54
31.23
30.23
29.15
28.36
27.95
27.82
27.72
27.49
27.04
26.33
25.21
23.52
21.01
17.55
13.20
8.19
2.87
-2.54
-7.91
-13.22
-18.46
-23.50
-28.15
-32.21
-35.66
-38.55
-41.03
-43.17
-44.84
-45.74
-45.54
-43.96
-40.91
-36.52
-31.09
-24.97
-18.57
-12.22
-6.17
-0.53
4.69
9.65
14.43
19.17
23.98
29.02
34.49
40.61
47.50
55.12
63.21
71.45
79.54
87.45
95.34
103.54
112.19
121.21
130.23
138.84
146.78
154.20
161.54
169.28
177.59
186.11
193.95
200.04
203.62
204.60
203.71
202.03
200.15
197.50
192.06
180.86
161.09
131.34
92.40
47.22
-0.16
-45.88
-87.38
-123.69
-155.19
-182.91
-208.16
-232.46
-257.25
-283.17
-309.06
-330.83
-341.65
-333.74
-301.29
-243.39
-165.39
-77.75
7.19
78.53
130.07
160.98
174.44
175.35
168.41
157.30
145.20
135.27
129.47
128.58
131.09
132.96
128.40
112.21
81.87
39.09
-10.90
-63.20
-114.07
-162.32
-208.92
-255.40
-302.31
-348.68
-392.48
-431.69
-467.67
-503.23
-541.64
-584.95
-632.91
-682.95
-731.26
-774.17
-793.94
-776.90
-714.81
-608.72
-469.51
-314.00
-158.86
-16.22
107.36
209.90
289.69
346.49
381.27
396.72
397.26
388.33
375.22
361.91
350.84
341.12
330.95
318.50
303.00
285.18
266.77
249.96
236.35
226.75
220.00
214.35
207.95
199.48
188.51
175.08
160.47
144.93
128.78
111.70
93.38
73.79
53.22
32.43
11.97
-7.24
-24.62
-39.81
-53.05
-64.85
-75.78
-86.26
-96.42
-106.57
-116.27
-124.90
-131.65
-135.74
-136.59
-133.76
-126.91
-113.21
-93.69
-70.14
-44.44
-18.32
6.87
29.97
50.21
67.11
80.39
89.76
95.64
98.70
99.70
99.50
98.80
98.19
98.20
99.01
100.47
102.80
105.97
109.73
113.75
117.60
120.58
122.51
122.04
117.93
109.56
96.75
79.52
58.54
34.92
10.42
-13.14
-33.82
-49.63
-58.53
-59.05
-50.57
-33.35
-8.61
21.98
55.34
88.08
116.62
138.36
151.02
152.91
143.39
122.85
93.25
58.84
20.81
-18.96
-57.66
-93.19
-124.50
-151.43
-174.30
-193.81
-213.71
-228.90
-238.65
-243.96
-247.58
-253.28
-265.12
-286.60
-305.35
-314.50
-311.87
-299.52
-278.28
-246.23
-200.49
-140.99
-72.58
-3.72
54.54
95.19
116.79
123.80
122.65
118.49
113.71
108.61
103.44
97.51
91.52
86.35
82.77
80.53
78.51
75.21
69.99
63.46
56.07
48.98
42.96
38.40
34.90
31.50
27.17
21.41
14.59
7.15
-0.03
-6.40
-11.77
-16.43
-20.99
-26.15
-32.27
-39.30
-47.01
-54.88
-62.56
-69.84
-76.58
-82.68
-87.90
-91.79
-93.72
-93.69
-90.69
-84.20
-74.19
-61.04
-45.51
-28.57
-11.32
5.15
19.86
32.07
41.29
47.35
50.46
51.04
49.63
46.76
42.90
38.38
33.34
27.81
21.94
15.88
9.71
3.55
-2.67
-9.13
-16.08
-23.97
-32.91
-42.39
-51.58
-59.29
-64.20
-65.30
-62.06
-54.81
-44.99
-33.96
-22.56
-11.52
-1.31
7.75
15.21
20.51
22.59
19.38
10.33
-3.08
-18.36
-32.27
-41.45
-43.55
-37.27
-23.12
-6.81
8.17
21.48
34.68
50.91
74.13
107.65
153.68
211.76
277.49
340.39
391.43
422.45
428.30
409.00
370.04
322.02
286.27
267.65
262.76
263.95
260.87
244.66
211.63
158.12
90.00
17.49
-50.66
-110.15
-156.64
-190.14
-214.84
-236.52
-259.89
-285.82
-312.69
-339.35
-363.65
-384.02
-400.01
-410.54
-413.72
-407.70
-391.31
-365.98
-336.31
-306.74
-280.13
-257.56
-238.61
-221.50
-204.26
-185.30
-164.60
-143.89
-124.85
-108.24
-93.70
-79.92
-65.00
-47.33
-26.15
-1.98
23.36
47.90
70.20
89.67
106.64
121.99
136.89
152.28
168.73
186.28
204.69
223.68
242.87
261.84
280.30
298.44
316.68
335.39
353.99
370.74
382.95
388.03
384.72
373.98
358.90
343.72
332.42
327.51
329.68
338.08
350.72
364.75
376.51
381.67
375.82
355.40
318.81
267.21
204.43
136.03
67.92
4.89
-50.16
-96.31
-134.27
-165.74
-192.63
-216.53
-238.60
-259.44
-279.15
-298.05
-314.69
-326.46
-330.63
-325.06
-309.21
-284.38
-252.98
-217.82
-181.44
-145.69
-111.80
-80.52
-51.93
-25.78
-1.70
20.65
41.47
60.73
77.84
93.03
105.00
112.29
113.67
108.56
97.04
80.09
59.71
37.67
16.06
-3.09
-17.80
-26.91
-30.04
-27.70
-21.08
-11.48
-1.56
6.10
9.01
7.24
0.04
-13.37
-34.05
-63.20
-102.22
-154.27
-221.07
-301.26
-389.26
-476.66
-554.20
-614.94
-655.98
-665.39
-638.23
-575.46
-483.82
-373.67
-256.14
-141.13
-36.81
50.84
118.54
164.23
189.08
197.09
193.63
184.07
172.69
162.20
153.63
147.09
140.50
131.93
120.11
104.45
85.26
64.29
45.16
33.19
33.80
48.98
76.41
109.51
139.73
159.92
167.06
162.86
152.01
139.46
127.70
116.77
105.64
93.72
81.74
71.32
63.80
59.32
56.74
54.21
50.04
43.73
35.96
28.19
21.89
17.92
16.21
15.85
15.62
14.52
12.30
9.34
6.43
4.33
3.49
3.89
5.09
6.80
8.22
9.13
9.64
9.95
10.40
11.32
13.22
16.51
21.48
28.23
36.59
46.12
56.26
65.94
74.18
80.44
84.34
85.61
84.16
79.68
71.96
60.91
46.83
29.70
11.08
-7.96
-26.88
-44.99
-61.58
-76.12
-87.51
-94.61
-97.05
-95.36
-90.58
-83.81
-75.10
-64.24
-51.44
-38.09
-27.06
-21.62
-24.06
-33.85
-48.00
-61.45
-69.50
-69.89
-63.09
-52.28
-40.94
-31.47
-24.17
-18.04
-11.73
-4.92
0.61
2.20
-2.73
-14.69
-31.32
-48.55
-62.47
-70.58
-72.12
-67.59
-57.55
-41.90
-22.55
-2.14
16.02
29.17
36.35
39.46
41.58
46.78
56.37
69.49
83.87
96.42
104.49
106.31
101.97
92.51
79.16
62.86
44.15
24.22
5.32
-9.17
-15.85
-12.80
-0.58
17.38
35.65
48.35
51.88
45.51
31.23
12.69
-6.34
-22.89
-34.88
-40.77
-40.84
-36.20
-28.61
-19.64
-10.03
-0.16
9.88
19.49
28.45
36.60
44.73
54.19
65.69
78.59
90.52
98.93
102.13
100.87
97.61
94.93
93.61
91.44
84.94
70.83
48.65
20.82
-8.33
-34.70
-56.28
-73.36
-88.56
-105.02
-125.84
-152.64
-185.26
-221.66
-258.10
-290.24
-313.58
-325.50
-325.08
-313.63
-293.36
-266.25
-232.77
-191.71
-141.33
-80.09
-8.93
68.48
145.28
212.86
262.95
289.71
291.59
271.76
237.73
199.00
164.62
140.44
126.73
118.32
106.76
84.89
50.77
9.78
-27.74
-50.33
-49.55
-24.00
20.93
74.94
126.83
167.63
191.91
196.29
180.29
146.81
101.65
52.80
8.73
-23.34
-38.68
-37.10
-25.31
-13.08
-9.47
-19.93
-45.47
-83.17
-127.52
-171.93
-211.32
-245.72
-276.70
-304.76
-328.80
-347.82
-362.36
-374.79
-386.99
-379.82
-340.14
-267.65
-175.90
-81.98
1.56
68.50
117.22
149.26
167.99
174.96
171.76
161.02
147.54
136.11
130.06
130.53
137.71
149.08
160.24
167.04
167.57
163.57
158.55
156.03
158.08
164.46
169.15
167.16
154.39
129.65
96.69
62.34
33.74
15.53
7.22
4.63
1.26
-8.40
-25.86
-47.92
-69.07
-85.75
-96.46
-103.31
-109.16
-116.07
-124.49
-133.32
-141.01
-146.83
-150.79
-149.70
-143.83
-132.42
-114.53
-90.19
-60.79
-28.96
2.62
31.52
56.07
74.04
85.47
89.94
87.92
80.91
70.24
57.02
42.17
26.15
9.18
-7.77
-23.05
-34.50
-40.16
-39.32
-32.69
-21.27
-6.61
9.48
25.48
40.02
52.90
65.18
78.63
90.77
100.68
107.32
109.38
105.12
92.67
72.01
45.14
15.13
-14.97
-41.96
-63.93
-79.93
-89.24
-91.28
-84.22
-66.76
-39.70
-6.19
30.67
68.97
108.47
150.57
187.40
209.85
212.59
197.54
171.15
140.32
109.81
81.50
55.96
32.98
13.71
-0.06
-7.65
-9.78
-8.08
-5.11
-4.95
-11.64
-28.75
-56.60
-92.02
-129.88
-163.62
-186.97
-191.11
-175.79
-145.68
-107.69
-69.90
-33.24
0.64
28.96
48.50
56.21
49.33
27.92
-4.94
-41.86
-72.83
-89.66
-88.26
-70.55
-44.24
-20.58
-8.41
-10.49
-23.04
-38.19
-50.02
-56.88
-61.63
-68.79
-81.25
-97.53
-112.24
-121.53
-121.92
-114.92
-104.97
-96.55
-91.35
-88.00
-83.01
-72.92
-56.69
-35.14
-11.09
12.52
33.13
48.99
58.74
61.29
57.45
49.88
44.43
47.00
60.31
81.57
103.18
116.47
111.81
87.58
50.35
14.35
-5.73
-1.09
28.31
74.94
128.57
180.80
227.98
260.51
272.01
261.15
231.89
190.40
141.96
90.62
40.28
-4.63
-41.08
-66.87
-82.41
-91.17
-97.69
-105.25
-114.72
-123.99
-129.78
-130.14
-124.34
-113.13
-97.86
-78.52
-54.30
-24.06
11.72
50.02
86.12
116.69
141.00
160.33
175.79
186.06
187.03
173.78
143.98
100.59
52.26
9.93
-17.87
-27.97
-23.43
-10.75
3.65
16.04
25.88
34.89
44.21
53.00
59.14
60.58
56.68
48.68
39.14
31.09
26.67
26.60
29.75
34.52
39.44
43.89
48.13
53.09
59.69
68.42
79.13
90.54
101.62
111.77
121.07
130.11
139.59
149.64
159.33
171.63
186.25
202.05
217.41
230.61
240.01
244.24
242.25
233.46
217.87
195.21
165.89
130.77
91.05
48.24
4.08
-39.40
-80.17
-116.15
-146.32
-170.09
-187.58
-199.51
-206.89
-210.61
-211.13
-208.50
-202.51
-193.69
-183.02
-172.38
-164.23
-161.11
-164.92
-176.20
-194.23
-217.18
-243.11
-270.24
-297.75
-325.84
-355.76
-389.52
-428.92
-474.37
-523.32
-569.51
-603.40
-614.95
-596.93
-548.07
-473.85
-384.46
-291.21
-202.75
-123.14
-52.23
12.57
74.49
136.19
199.17
263.46
326.90
385.08
432.16
462.82
474.67
469.36
452.00
428.75
404.54
381.43
359.28
337.10
314.60
292.41
271.40
251.66
231.85
210.37
186.24
160.13
134.21
110.79
90.96
73.90
57.80
41.24
25.43
14.39
13.28
25.28
49.07
78.43
104.37
118.46
115.62
96.14
64.83
28.68
-5.91
-35.14
-58.37
-77.19
-94.56
-114.58
-140.68
-174.61
-215.42
-258.94
-298.05
-323.89
-328.44
-308.49
-270.28
-226.50
-192.01
-178.36
-190.05
-223.07
-266.09
-304.39
-326.46
-332.46
-329.17
-324.73
-323.41
-323.93
-320.47
-305.70
-274.67
-230.36
-189.97
-170.54
-179.30
-209.58
-246.56
-276.72
-294.26
-301.57
-308.54
-334.05
-387.65
-463.89
-545.62
-615.35
-664.49
-694.18
-709.86
-656.48
-506.69
-275.96
-17.48
216.62
401.41
535.50
619.98
673.03
703.90
707.51
681.32
631.25
570.53
512.72
464.21
424.42
390.60
358.44
319.69
272.44
222.59
181.16
157.78
156.16
174.83
210.38
256.19
299.80
328.97
335.08
315.99
276.53
226.86
179.79
146.69
131.12
126.38
121.46
107.81
84.45
57.97
37.65
29.99
35.53
48.47
60.55
66.46
66.30
64.08
63.82
66.21
68.41
66.40
57.26
41.20
20.71
-1.31
-23.46
-46.79
-74.32
-109.69
-155.53
-211.86
-274.66
-335.81
-384.39
-409.42
-403.36
-365.08
-301.00
-223.77
-148.84
-89.72
-54.17
-42.34
-47.44
-58.54
-64.37
-56.74
-32.26
7.48
57.35
110.50
160.05
200.04
225.35
232.21
218.92
187.12
142.61
94.63
53.50
27.36
19.25
26.18
40.86
55.17
63.77
65.89
64.67
64.70
69.15
78.33
89.77
99.89
105.46
104.68
97.33
84.54
68.72
53.25
42.13
39.17
46.79
64.82
89.84
115.66
134.74
140.62
129.98
103.92
67.46
27.69
-8.79
-38.10
-59.87
-76.83
-93.08
-112.55
-137.38
-167.03
-198.02
-224.65
-240.31
-239.51
-219.90
-183.66
-137.65
-91.45
-54.33
-32.29
-26.47
-33.82
-49.22
-67.82
-86.48
-103.86
-119.40
-132.33
-141.48
-145.63
-144.45
-138.95
-131.27
-123.56
-117.09
-111.69
-106.17
-99.36
-90.54
-79.95
-68.86
-59.07
-52.08
-48.46
-47.43
-46.94
-44.55
-38.15
-26.80
-11.22
6.48
23.23
36.02
42.99
44.46
43.30
44.55
53.74
74.78
108.45
151.97
200.18
247.95
292.15
332.53
371.00
409.82
449.80
489.47
524.88
550.52
560.89
551.94
522.40
474.34
412.71
343.74
273.08
204.00
137.35
72.67
9.54
-51.29
-107.91
-158.00
-199.96
-233.62
-260.32
-282.23
-301.62
-320.80
-341.80
-365.72
-391.68
-415.96
-432.09
-432.79
-412.13
-367.60
-301.56
-220.96
-135.65
-55.55
11.84
62.96
97.28
117.59
129.13
137.90
148.51
162.87
180.43
199.58
219.08
236.49
250.17
259.50
264.31
263.16
253.36
232.38
199.48
156.00
100.65
32.46
-46.74
-130.66
-209.53
-272.16
-309.07
-316.15
-297.43
-269.31
-250.99
-255.51
-284.74
-331.92
-386.87
-440.96
-489.48
-502.34
-460.76
-367.91
-247.77
-125.93
-17.06
74.13
147.39
203.92
246.30
273.44
285.43
285.54
281.08
276.80
274.13
271.37
265.76
255.06
234.68
201.95
158.31
110.94
66.73
30.01
1.85
-18.35
-31.60
-40.98
-48.92
-55.87
-60.65
-62.55
-61.73
-59.60
-57.45
-55.62
-54.60
-54.14
-53.02
-49.84
-44.45
-37.63
-31.63
-27.98
-27.08
-28.41
-30.66
-32.33
-32.28
-32.58
-32.91
-34.62
-37.95
-41.91
-45.00
-46.21
-45.30
-43.13
-40.93
-36.64
-32.03
-28.47
-28.30
-34.50
-48.87
-69.21
-89.17
-100.41
-96.35
-76.92
-47.98
-18.91
1.90
10.94
10.39
5.53
0.95
-1.40
-2.84
-5.61
-9.23
-11.47
-8.90
0.79
16.97
36.32
54.37
66.74
71.73
70.79
67.35
65.05
65.96
69.84
74.90
79.07
79.72
74.44
61.60
40.91
14.93
-10.52
-27.75
-30.22
-15.46
12.40
44.34
70.63
84.34
83.85
72.18
54.09
30.91
5.25
-22.32
-51.66
-81.35
-108.74
-131.26
-146.46
-153.15
-151.84
-143.95
-131.94
-118.39
-104.61
-91.18
-77.92
-63.97
-48.09
-29.01
-5.49
22.37
49.59
70.14
76.85
62.75
22.91
-44.09
-134.81
-240.60
-349.09
-446.33
-519.48
-560.52
-568.04
-547.04
-506.75
-457.21
-406.05
-357.12
-310.56
-264.09
-215.28
-162.58
-105.41
-43.82
22.17
92.87
168.38
248.04
329.79
409.44
481.17
538.77
577.13
593.66
588.64
564.70
526.12
477.92
425.71
375.66
334.18
306.51
294.72
296.09
303.25
307.08
300.23
281.01
254.90
232.53
224.64
236.52
265.05
299.83
328.52
341.61
336.11
315.91
288.68
261.74
239.03
221.03
206.42
195.23
188.22
186.27
189.20
194.77
198.86
196.54
184.23
160.76
128.78
91.99
53.76
16.58
-18.35
-50.54
-79.75
-104.78
-130.91
-156.20
-174.90
-180.96
-171.72
-149.45
-117.44
-82.09
-48.59
-20.41
1.79
17.72
25.42
24.35
14.96
-1.40
-23.20
-48.62
-76.08
-103.52
-129.64
-153.64
-174.38
-190.43
-200.18
-202.65
-197.73
-186.68
-171.28
-154.12
-137.61
-123.03
-110.67
-100.09
-91.15
-84.47
-81.79
-85.55
-98.48
-122.88
-159.37
-206.32
-259.47
-312.57
-358.46
-391.06
-407.10
-407.22
-395.91
-379.93
-366.06
-358.79
-358.82
-363.16
-366.32
-362.56
-347.92
-321.54
-285.53
-243.92
-201.09
-160.67
-125.42
-97.44
-78.60
-70.11
-71.71
-80.95
-93.27
-103.37
-107.07
-103.23
-93.44
-80.69
-67.17
-52.66
-34.21
-7.13
33.18
89.66
161.61
245.14
333.24
416.84
486.57
535.49
561.99
571.15
573.46
578.76
592.95
614.98
637.39
649.24
640.97
608.64
555.29
489.35
417.75
345.35
274.56
206.89
143.70
85.97
34.24
-12.29
-56.16
-105.54
-169.03
-251.79
-352.44
-463.65
-575.68
-679.88
-771.91
-827.35
-830.50
-779.99
-692.30
-592.94
-502.82
-430.61
-373.06
-320.54
-262.18
-194.96
-122.69
-54.05
2.03
40.06
59.80
66.21
66.21
66.12
66.14
62.79
51.95
33.10
9.95
-12.88
-28.30
-31.82
-22.07
-1.87
24.66
53.67
82.56
108.99
130.32
144.72
151.97
155.00
158.07
164.69
174.37
183.05
184.60
173.23
147.02
107.87
61.34
13.94
-29.83
-71.36
-111.71
-150.38
-185.67
-213.86
-231.67
-235.00
-219.32
-181.36
-123.56
-51.35
27.65
103.18
166.02
208.30
228.32
231.49
228.03
225.51
230.12
245.54
270.48
300.66
327.26
331.91
300.87
249.75
190.78
126.60
63.09
-0.87
-53.84
-97.29
-131.75
-154.59
-158.13
-136.93
-87.09
-8.65
90.48
197.67
296.25
373.43
411.83
402.82
344.45
244.60
118.16
-19.77
-155.84
-281.20
-386.74
-470.12
-528.61
-562.91
-576.14
-572.75
-557.93
-535.18
-505.30
-467.41
-420.06
-360.42
-288.62
-207.60
-122.53
-39.92
34.32
95.35
140.56
169.02
182.43
182.72
171.79
151.58
124.07
91.92
58.10
26.24
-0.56
-19.42
-28.77
-28.30
-18.72
-1.17
23.01
52.25
85.49
121.18
157.31
191.34
220.81
244.11
260.84
271.87
278.65
284.23
291.41
301.79
315.44
331.38
348.24
365.04
381.66
398.99
420.84
451.00
490.57
535.84
578.46
607.81
614.99
596.63
540.83
447.80
328.01
198.30
75.61
-28.41
-109.52
-169.04
-211.07
-235.78
-247.07
-249.19
-245.87
-239.50
-230.28
-216.87
-197.48
-171.64
-143.32
-116.37
-93.96
-77.25
-65.02
-54.75
-45.43
-39.39
-42.54
-61.80
-100.06
-153.79
-213.69
-268.62
-309.82
-334.18
-344.17
-345.32
-343.40
-341.77
-341.38
-342.20
-344.47
-347.84
-350.15
-346.78
-332.63
-305.38
-267.19
-224.46
-184.84
-154.23
-132.61
-117.83
-106.92
-98.98
-96.07
-101.41
-116.97
-139.21
-161.80
-178.73
-187.20
-188.00
-183.59
-176.99
-170.73
-164.63
-156.27
-142.30
-120.24
-89.82
-53.33
-15.22
20.28
48.56
68.57
82.21
92.96
104.41
119.02
137.82
160.90
189.14
220.01
250.79
276.84
292.71
294.83
284.72
269.75
260.41
267.83
294.14
336.09
385.42
433.37
474.86
509.93
540.87
556.26
565.41
557.96
525.62
464.81
379.16
278.58
176.16
83.26
5.83
-53.82
-100.59
-138.71
-170.98
-197.29
-217.40
-228.77
-226.14
-209.17
-181.73
-152.88
-130.51
-119.59
-120.24
-127.97
-135.42
-136.43
-129.18
-115.32
-101.36
-93.71
-97.26
-114.30
-144.35
-184.49
-230.29
-276.22
-314.62
-337.97
-340.08
-319.13
-279.12
-228.75
-177.73
-133.31
-98.17
-70.49
-47.20
-27.00
-12.30
-8.37
-20.21
-49.20
-91.44
-138.54
-180.36
-208.33
-217.95
-209.45
-186.50
-153.95
-115.87
-74.60
-30.93
14.26
58.82
99.00
130.78
151.95
164.01
171.69
180.74
194.89
213.50
231.82
243.49
243.89
232.60
213.45
192.37
174.83
164.00
160.64
164.18
173.80
188.64
207.49
228.44
249.04
267.03
281.18
291.30
297.96
301.65
302.35
299.89
294.46
287.10
279.46
273.17
268.96
266.41
263.94
259.07
249.43
233.31
210.12
180.49
146.11
109.25
72.32
37.34
5.08
-24.37
-51.30
-75.86
-97.89
-117.00
-132.80
-145.24
-154.54
-162.41
-170.49
-179.92
-191.10
-203.64
-216.95
-230.64
-244.79
-259.74
-277.75
-300.68
-329.11
-362.00
-396.68
-429.84
-458.54
-480.91
-496.40
-508.14
-519.90
-534.88
-554.62
-578.66
-605.23
-632.02
-656.93
-661.88
-632.84
-561.45
-448.90
-306.23
-149.65
5.36
148.20
273.58
380.00
465.48
528.92
570.41
591.81
597.98
594.11
584.62
572.71
560.25
546.22
528.83
506.83
480.30
450.90
420.97
392.65
366.92
343.09
319.76
294.58
265.75
232.83
196.99
160.39
125.34
93.35
64.63
37.77
10.46
-19.13
-51.61
-86.08
-120.91
-154.31
-185.14
-213.34
-239.94
-266.79
-295.91
-329.13
-367.59
-410.52
-454.17
-491.90
-515.52
-518.19
-497.28
-455.59
-400.58
-341.75
-287.54
-242.93
-209.01
-183.83
-164.04
-146.59
-129.58
-112.56
-96.20
-81.55
-69.41
-59.90
-52.62
-47.27
-44.27
-44.34
-47.51
-52.27
-55.49
-53.61
-44.24
-27.19
-4.44
20.91
46.15
69.38
89.52
105.36
115.36
117.96
112.54
100.24
83.72
66.61
52.18
42.46
37.95
37.79
40.44
44.21
47.76
50.23
51.30
50.90
49.22
46.63
43.61
40.76
38.67
37.73
37.80
38.18
37.73
35.29
30.18
22.36
12.73
2.79
-5.34
-9.31
-7.03
2.47
18.28
37.41
55.42
68.13
73.21
71.06
64.30
56.26
49.23
43.66
38.66
33.08
26.77
20.59
15.90
13.60
13.59
14.79
15.91
16.10
15.13
13.26
10.60
6.74
0.89
-7.76
-19.33
-33.11
-47.78
-61.72
-73.35
-81.27
-84.19
-81.03
-71.49
-56.50
-38.63
-21.56
-8.92
-2.68
-2.37
-5.43
-8.63
-9.65
-7.86
-4.23
-0.22
3.13
5.66
7.73
9.81
11.92
13.63
14.43
14.04
12.72
11.05
9.66
8.84
8.40
7.67
5.79
2.16
-3.23
-9.62
-15.54
-19.42
-19.79
-15.68
-6.55
7.54
25.87
46.71
67.38
84.69
95.84
99.52
96.40
88.85
79.80
71.59
65.02
59.60
54.22
48.11
41.45
35.19
30.45
27.72
26.58
25.84
24.17
20.74
15.45
8.92
2.03
-4.53
-10.45
-15.68
-20.00
-22.62
-21.97
-16.25
-4.12
14.33
37.05
60.48
80.52
93.84
98.93
96.24
87.58
75.21
61.09
46.61
32.87
20.78
11.04
3.94
-0.90
-4.26
-6.88
-9.03
-10.54
-11.01
-10.37
-9.12
-8.00
-7.60
-7.96
-8.62
-9.06
-9.32
-10.13
-12.52
-17.05
-22.96
-28.14
-29.89
-26.08
-16.24
-1.94
13.85
27.86
37.62
42.26
42.31
39.28
34.90
30.53
26.98
24.52
23.20
22.85
23.34
24.40
25.64
26.42
25.99
23.96
20.43
16.29
12.72
10.75
10.63
11.69
12.81
12.83
11.13
7.67
2.93
-2.27
-6.79
-9.28
-8.56
-3.94
4.26
14.72
25.37
34.08
39.31
40.34
37.15
30.17
20.12
7.85
-5.49
-18.73
-30.94
-41.82
-51.81
-61.76
-72.35
-83.70
-95.30
-106.21
-115.56
-122.78
-127.62
-130.16
-130.76
-130.45
-131.36
-136.97
-151.36
-177.50
-215.01
-258.78
-299.57
-326.72
-332.13
-313.46
-274.88
-224.85
-172.31
-123.01
-78.17
-35.74
6.62
48.86
88.05
119.78
140.78
151.13
154.49
156.84
164.25
181.21
209.31
246.77
288.46
326.45
351.37
354.90
332.80
287.24
227.22
165.55
114.11
79.02
58.41
43.82
24.73
-6.43
-51.04
-104.08
-156.79
-200.26
-228.22
-238.29
-231.70
-212.05
-184.02
-152.49
-122.05
-96.70
-79.55
-72.46
-75.86
-88.36
-106.68
-126.34
-142.72
-152.39
-154.18
-149.20
-140.09
-129.96
-121.22
-115.05
-111.50
-109.69
-108.10
-104.92
-98.24
-86.60
-69.46
-47.29
-21.30
7.30
37.83
70.09
103.66
137.04
167.31
190.78
204.58
208.00
203.21
194.60
187.13
184.40
187.37
194.22
201.21
204.31
200.52
188.64
169.08
143.33
113.33
81.12
49.06
19.80
-3.57
-18.07
-21.61
-13.76
3.84
27.69
53.26
76.10
92.80
101.51
102.16
96.17
85.91
74.08
63.12
54.66
49.54
47.75
48.73
51.46
54.53
56.26
55.00
49.45
39.10
24.69
8.27
-7.22
-18.67
-23.81
-21.95
-14.16
-2.85
9.07
19.15
25.94
29.04
28.85
26.05
21.25
14.95
7.59
-0.27
-7.83
-14.15
-18.32
-19.68
-18.06
-13.81
-7.78
-1.05
5.44
11.16
16.02
20.16
23.63
26.21
27.45
26.85
24.21
19.79
14.22
8.28
2.57
-2.59
-7.17
-11.23
-14.69
-17.36
-18.96
-19.39
-18.87
-17.87
-17.00
-16.73
-17.23
-18.40
-19.92
-21.47
-22.73
-23.36
-22.97
-21.31
-18.30
-14.27
-9.82
-5.68
-2.33
0.14
1.93
3.38
4.58
5.30
5.06
3.44
0.32
-3.95
-8.68
-13.02
-16.21
-17.87
-18.00
-17.00
-15.39
-13.67
-12.13
-10.94
-10.07
-9.59
-9.66
-10.58
-12.68
-16.10
-20.58
-25.32
-29.08
-30.53
-28.67
-23.26
-15.07
-5.78
2.49
7.90
9.62
8.04
4.53
0.76
-2.10
-3.66
-4.25
-4.44
-4.53
-4.42
-3.74
-2.28
-0.28
1.67
2.96
3.32
2.94
2.21
1.40
0.47
-0.92
-3.02
-5.90
-9.24
-12.68
-16.09
-19.64
-23.56
-27.63
-30.99
-32.25
-30.23
-24.74
-16.88
-8.75
-2.41
0.98
1.57
0.38
-1.45
-3.45
-5.81
-8.90
-12.53
-15.70
-17.01
-15.57
-11.64
-6.73
-2.83
-1.33
-2.21
-4.00
-4.51
-2.13
3.40
10.78
17.74
22.26
23.37
21.64
18.68
16.39
15.93
17.32
19.64
21.70
22.86
23.29
23.80
25.12
27.34
29.70
31.13
30.89
29.15
26.88
25.30
25.06
25.96
27.07
27.53
27.02
25.96
25.08
24.92
25.44
26.13
26.42
25.97
24.84
23.35
21.86
20.60
19.62
18.91
18.47
18.26
18.10
17.61
16.27
13.63
9.60
4.52
-0.88
-5.70
-9.29
-11.54
-12.92
-14.28
-16.37
-19.33
-22.67
-25.40
-26.69
-26.29
-24.75
-23.18
-22.70
-23.92
-26.70
-30.28
-33.68
-36.30
-38.16
-39.91
-42.47
-46.43
-51.61
-57.02
-61.27
-63.26
-62.72
-60.33
-57.32
-54.88
-53.67
-53.73
-54.76
-56.41
-58.45
-60.48
-61.82
-61.39
-58.21
-51.86
-42.88
-32.58
-22.39
-13.27
-5.45
1.37
7.59
13.27
18.20
22.17
25.36
28.46
32.37
37.84
45.02
53.43
62.14
70.20
76.87
81.88
85.41
87.96
90.12
92.50
95.41
98.86
102.51
105.80
108.25
109.71
110.53
111.55
113.76
117.98
124.36
132.18
139.92
145.53
147.09
143.28
133.67
118.95
100.58
80.55
60.71
42.47
26.49
12.86
1.46
-7.50
-13.33
-15.08
-12.00
-4.23
6.95
19.29
30.24
37.74
40.79
39.45
34.37
26.30
15.65
2.48
-13.19
-30.98
-49.91
-68.35
-84.36
-96.18
-102.92
-104.93
-103.75
-101.52
-100.00
-99.83
-100.46
-100.68
-99.66
-97.58
-95.63
-95.14
-96.49
-98.71
-99.86
-98.22
-93.42
-86.52
-79.34
-73.09
-67.58
-61.45
-53.25
-42.69
-31.02
-20.58
-13.39
-10.04
-9.43
-9.32
-7.56
-2.82
5.01
15.28
27.00
39.22
50.96
61.23
69.12
74.05
76.20
76.47
76.25
76.79
78.85
82.66
88.17
95.36
104.28
114.90
126.60
138.19
147.91
153.80
154.14
147.85
134.85
116.18
94.15
71.76
52.01
36.82
26.16
17.97
8.89
-4.40
-23.86
-49.12
-77.57
-105.03
-127.18
-140.93
-145.57
-142.97
-137.02
-132.08
-131.38
-136.24
-146.10
-159.35
-174.21
-189.14
-202.64
-213.38
-220.29
-223.17
-223.33
-223.23
-225.25
-230.13
-235.41
-235.57
-224.39
-197.19
-152.54
-92.79
-23.60
47.14
110.63
158.94
187.49
196.04
189.51
177.09
169.36
174.48
195.11
227.59
263.81
295.03
313.78
315.38
298.23
263.27
213.36
152.96
87.92
21.04
-41.16
-91.33
-123.97
-137.49
-134.58
-120.37
-100.24
-78.29
-56.99
-36.72
-17.44
0.65
17.13
31.20
42.14
49.51
53.29
53.81
52.36
51.13
50.48
50.56
51.07
51.73
52.33
52.74
52.32
50.93
48.54
45.21
41.35
37.08
32.59
28.08
23.85
18.92
12.58
4.37
-6.06
-16.47
-25.95
-34.33
-42.18
-50.31
-61.49
-77.78
-99.94
-127.03
-156.91
-187.78
-218.06
-246.66
-272.75
-298.09
-323.92
-350.24
-375.51
-397.46
-414.68
-426.63
-433.56
-420.60
-379.49
-310.43
-223.04
-130.78
-44.54
29.86
91.05
140.11
178.96
207.38
225.58
234.94
238.14
237.87
235.80
232.28
227.30
220.67
210.86
198.52
183.76
167.92
152.03
136.24
119.70
101.46
80.89
57.26
30.61
1.80
-27.65
-57.30
-87.44
-119.20
-154.03
-193.65
-239.77
-292.93
-352.18
-408.20
-451.62
-473.99
-470.61
-442.17
-395.03
-338.73
-282.55
-232.97
-192.22
-160.21
-135.55
-117.14
-104.12
-95.57
-89.47
-82.98
-73.49
-59.22
-40.96
-20.58
-0.59
17.50
33.45
48.43
64.07
81.30
100.17
118.92
135.45
147.98
156.13
160.82
164.29
169.26
178.19
192.94
213.51
237.99
262.34
281.23
289.64
284.67
267.05
240.81
212.45
188.31
173.08
168.86
175.24
190.42
211.54
235.22
257.34
273.37
278.71
269.83
245.69
208.30
163.49
119.53
85.44
67.96
69.68
88.37
118.27
152.96
187.20
218.53
246.16
269.57
286.94
294.77
289.25
267.84
231.01
181.89
125.90
69.13
17.20
-25.16
-54.72
-69.80
-71.07
-61.35
-46.08
-31.87
-24.91
-29.15
-44.43
-66.85
-90.35
-109.62
-121.59
-125.74
-122.30
-110.40
-88.46
-55.64
-15.12
24.96
53.17
59.76
41.57
3.93
-41.20
-81.48
-109.23
-124.49
-132.88
-140.91
-151.75
-163.58
-171.32
-169.58
-155.50
-129.19
-93.53
-52.91
-12.73
20.68
40.76
41.88
22.13
-14.78
-58.93
-96.57
-114.43
-104.52
-67.28
-11.24
49.81
101.85
134.47
142.84
127.25
91.06
39.81
-19.22
-76.09
-118.67
-135.20
-118.94
-72.44
-8.11
54.98
98.44
111.27
93.33
53.24
3.05
-47.39
-92.93
-131.18
-159.68
-174.22
-170.43
-147.61
-111.44
-73.50
-47.22
-42.90
-64.01
-107.38
-165.04
-227.35
-284.83
-328.82
-352.41
-351.08
-324.19
-275.26
-211.63
-142.86
-78.88
-29.07
-0.49
2.95
-17.35
-54.32
-95.96
-128.89
-142.90
-133.93
-105.07
-63.51
-17.22
28.04
68.92
102.89
126.80
136.54
129.22
105.21
69.98
32.52
2.51
-13.30
-13.36
-0.46
20.24
44.45
69.38
93.86
116.24
133.61
142.40
139.70
125.39
102.12
74.56
47.04
22.20
0.86
-17.12
-31.03
-39.01
-38.49
-28.29
-9.60
13.58
35.90
52.83
62.21
64.80
62.85
58.98
54.61
50.26
45.84
41.12
35.87
29.21
20.08
7.95
-5.35
-15.53
-17.02
-6.02
16.58
44.72
69.16
81.65
78.30
60.69
34.11
4.58
-23.37
-47.14
-64.65
-73.35
-70.44
-54.44
-27.18
5.79
36.36
56.89
62.78
54.31
36.16
15.44
-1.01
-9.21
-8.63
-1.80
7.76
16.87
23.68
27.34
27.44
24.28
19.14
15.01
15.52
23.16
36.99
51.83
60.07
55.35
36.28
7.29
-23.27
-47.51
-61.61
-66.68
-66.96
-66.29
-65.97
-64.28
-58.60
-47.41
-31.51
-13.72
2.80
15.86
25.25
31.98
37.35
41.73
44.31
43.82
39.64
33.13
27.26
25.55
29.73
38.53
48.05
54.25
55.96
55.80
59.12
70.20
89.53
112.88
133.56
145.98
148.12
142.10
131.56
119.57
106.70
92.10
75.06
56.84
40.63
29.73
25.85
27.72
32.17
35.80
37.16
37.67
40.71
49.69
65.38
84.63
100.80
106.27
95.66
68.42
29.81
-11.01
-44.01
-62.47
-64.99
-55.22
-39.17
-21.60
-4.46
13.09
31.79
50.20
63.62
66.22
54.24
28.16
-7.10
-44.93
-79.82
-109.37
-133.41
-152.10
-164.28
-167.10
-157.95
-136.25
-105.09
-70.50
-39.77
-18.84
-10.04
-11.48
-17.47
-21.14
-16.61
-1.63
21.47
46.57
66.06
74.43
70.28
57.14
40.90
27.15
18.78
16.04
18.40
25.94
40.12
61.84
89.68
118.89
142.60
154.75
152.46
137.19
112.94
84.40
54.46
23.91
-7.85
-41.68
-77.18
-112.49
-143.58
-165.24
-172.16
-161.40
-134.32
-97.11
-59.72
-32.33
-22.54
-32.76
-60.57
-100.17
-144.80
-188.61
-226.63
-254.61
-268.43
-265.37
-245.56
-213.26
-176.17
-142.28
-116.33
-97.14
-79.14
-55.90
-25.14
8.94
37.43
51.04
45.59
23.77
-5.98
-34.34
-54.92
-66.03
-69.51
-67.68
-61.57
-50.23
-32.64
-9.34
16.26
38.90
53.85
58.93
55.84
48.86
42.86
40.54
41.43
42.82
41.49
36.21
28.14
20.16
14.44
11.05
7.60
1.00
-9.67
-21.86
-29.64
-26.96
-10.64
17.08
49.25
77.09
93.20
94.39
81.59
58.74
30.45
0.91
-26.64
-49.46
-64.70
-69.99
-63.86
-47.06
-22.81
3.51
25.78
39.16
41.61
34.79
22.95
11.41
4.13
2.61
5.63
10.00
12.22
9.59
1.78
-9.06
-18.97
-23.97
-22.11
-14.22
-3.62
6.37
14.20
20.94
28.83
38.77
48.82
54.49
51.87
40.11
22.83
5.91
-5.75
-11.15
-13.38
-17.00
-24.96
-36.12
-46.26
-50.15
-44.65
-30.06
-9.59
12.43
32.52
48.39
59.00
63.67
62.06
54.50
42.21
27.46
12.50
-0.79
-11.57
-19.42
-24.03
-25.25
-23.47
-20.41
-18.26
-18.69
-20.87
-21.75
-17.69
-7.22
6.95
19.01
22.82
16.12
1.76
-13.49
-22.87
-23.55
-18.10
-13.04
-14.72
-25.93
-44.12
-62.84
-74.41
-73.06
-56.85
-27.31
11.10
52.62
90.99
120.35
136.10
136.12
121.99
98.69
73.68
53.83
43.31
42.23
47.77
56.47
65.59
73.69
79.49
81.78
79.43
72.85
64.87
59.54
60.15
66.56
74.89
79.26
75.42
63.27
47.19
33.55
26.69
26.80
29.60
29.16
21.14
5.18
-14.99
-33.34
-44.18
-44.89
-36.38
-22.44
-7.49
5.16
14.25
20.06
22.87
22.27
16.69
5.03
-12.24
-32.14
-49.29
-58.12
-55.17
-41.29
-21.71
-4.22
4.49
2.10
-8.20
-18.89
-22.18
-13.47
6.32
31.68
55.20
70.88
76.26
72.02
60.80
44.78
25.12
2.23
-22.97
-48.03
-68.94
-80.91
-80.30
-65.67
-38.78
-4.01
33.19
67.86
96.65
117.75
130.07
132.38
123.67
104.41
78.00
51.23
31.99
25.84
32.82
47.29
60.52
65.04
57.90
40.72
18.00
-6.06
-28.47
-47.17
-59.89
-63.98
-58.19
-44.69
-30.18
-23.74
-33.11
-60.67
-101.83
-146.82
-184.26
-205.50
-206.80
-189.94
-160.68
-126.92
-96.30
-74.58
-65.02
-68.00
-81.88
-103.42
-128.47
-152.06
-168.98
-174.95
-168.09
-150.55
-128.00
-108.02
-96.49
-94.58
-97.74
-97.51
-85.87
-59.14
-20.36
22.36
59.49
84.11
94.21
92.07
82.10
67.83
51.05
31.93
11.04
-9.39
-25.35
-32.35
-27.84
-12.51
9.23
31.25
47.78
55.68
54.96
47.78
37.25
25.87
15.51
7.43
2.50
0.71
0.77
0.48
-2.33
-7.69
-12.97
-13.47
-5.01
13.23
37.52
60.62
75.47
78.20
70.06
56.07
42.27
32.77
28.10
26.10
23.50
18.34
10.74
2.82
-2.59
-3.36
1.28
10.39
22.26
34.83
46.45
55.70
60.96
60.37
52.17
36.10
13.92
-10.30
-32.09
-48.41
-58.80
-65.00
-68.59
-69.29
-64.02
-49.13
-23.27
10.18
43.42
67.56
76.49
70.01
53.09
33.20
16.29
4.33
-4.49
-13.65
-25.49
-39.89
-53.94
-63.91
-66.92
-62.10
-50.38
-33.52
-13.28
8.85
30.80
49.64
61.37
62.37
51.44
31.42
9.26
-6.85
-11.11
-3.39
10.84
23.69
29.37
27.76
23.88
24.93
35.24
53.73
74.47
89.81
94.11
85.64
66.33
39.65
9.64
-19.49
-42.74
-54.57
-50.55
-29.42
5.12
45.13
80.60
103.28
109.47
101.22
85.40
70.52
63.56
67.13
78.81
92.46
101.44
102.04
94.95
84.54
75.27
68.88
63.29
54.55
40.59
23.65
9.93
5.92
14.31
31.41
48.75
57.43
52.59
35.62
12.33
-10.43
-28.63
-42.16
-53.45
-64.72
-75.63
-83.25
-83.32
-73.16
-53.34
-27.93
-3.01
16.08
26.64
29.36
26.85
21.94
15.97
9.16
2.22
-2.18
0.49
14.03
38.68
69.35
97.60
115.42
118.99
110.02
93.62
75.11
56.92
38.67
19.04
-1.99
-22.39
-39.54
-52.55
-63.95
-78.58
-101.40
-134.47
-175.16
-216.65
-249.70
-266.06
-261.03
-235.66
-196.40
-153.38
-117.22
-95.87
-92.82
-106.53
-132.04
-162.65
-191.70
-213.45
-223.80
-220.80
-205.09
-180.08
-150.65
-121.47
-94.97
-70.55
-45.66
-17.97
12.31
42.00
66.04
80.23
83.18
76.68
64.49
50.14
35.81
22.13
9.76
0.17
-3.97
0.17
13.85
35.58
60.70
82.85
96.12
97.30
87.05
69.14
48.82
30.45
16.53
7.47
2.60
0.85
0.91
1.16
-0.26
-4.22
-9.57
-12.36
-7.43
8.86
35.90
68.07
96.89
114.51
117.27
106.16
85.46
59.98
33.26
7.48
-15.59
-33.42
-43.36
-43.51
-34.23
-18.30
0.11
16.98
29.91
38.16
42.30
43.28
42.12
39.44
35.61
30.69
24.52
17.36
9.75
2.48
-4.04
-10.01
-15.98
-21.85
-25.76
-24.54
-14.87
4.52
31.41
60.52
85.33
100.67
104.06
96.09
78.94
55.49
28.81
2.33
-19.88
-33.90
-37.03
-29.05
-12.49
7.89
26.80
39.81
44.38
40.64
30.85
18.67
7.97
1.37
-0.67
0.06
0.66
-1.52
-7.34
-15.92
-25.55
-34.89
-43.69
-52.03
-59.34
-63.60
-62.00
-52.37
-34.50
-10.37
17.31
46.17
74.83
101.59
123.04
133.61
127.43
101.64
59.12
9.16
-35.74
-64.00
-69.10
-51.16
-15.98
27.14
68.04
97.47
109.02
100.10
73.21
35.48
-3.29
-33.77
-50.46
-52.65
-43.77
-28.74
-12.06
3.00
13.90
18.30
15.18
5.82
-4.88
-10.06
-3.91
15.01
42.58
71.27
93.71
106.56
110.79
109.90
106.56
100.61
89.74
71.79
47.43
20.81
-1.39
-12.64
-8.90
10.02
40.27
75.46
108.22
132.28
143.71
141.54
127.11
103.09
72.57
38.55
4.65
-25.31
-47.66
-60.65
-65.75
-67.39
-71.09
-80.31
-94.86
-110.55
-122.05
-125.83
-122.00
-114.00
-106.09
-101.22
-99.85
-101.16
-104.57
-110.91
-122.20
-139.76
-162.84
-187.53
-207.98
-217.93
-213.25
-193.18
-160.83
-122.27
-84.39
-53.43
-33.36
-25.90
-30.73
-45.77
-67.53
-91.02
-110.59
-121.21
-120.95
-111.77
-99.04
-89.03
-85.17
-86.22
-86.19
-77.77
-55.96
-21.27
20.21
59.51
88.29
102.20
101.08
88.06
66.99
41.06
12.69
-15.34
-38.75
-52.10
-50.25
-31.27
1.69
40.41
73.80
92.18
90.70
71.17
40.75
8.91
-16.41
-31.23
-35.45
-31.59
-22.49
-10.63
2.13
13.44
20.55
21.46
16.39
9.15
5.90
12.46
30.78
57.30
84.16
102.64
107.29
97.56
77.29
51.62
24.50
-2.30
-28.14
-51.68
-70.01
-79.07
-75.96
-60.47
-35.75
-7.13
20.06
42.07
57.56
66.75
70.63
69.65
63.60
52.20
35.82
16.84
-0.86
-12.96
-16.78
-12.85
-5.07
1.54
4.04
3.49
5.00
14.23
33.78
60.81
88.06
107.45
114.03
107.88
92.83
73.93
54.62
36.37
19.69
5.40
-4.75
-9.14
-7.25
-0.53
8.46
17.25
24.50
30.43
35.81
41.45
46.94
50.86
51.01
45.29
32.57
13.40
-9.36
-31.08
-45.97
-49.22
-38.58
-15.55
15.07
47.01
74.57
94.66
106.79
112.51
113.85
112.63
110.61
109.54
111.29
116.62
124.04
129.14
125.95
109.49
78.65
37.54
-5.68
-41.04
-60.50
-60.12
-40.92
-8.43
29.25
63.38
87.07
96.34
91.09
74.09
49.49
21.37
-7.09
-33.13
-53.83
-65.68
-66.08
-55.13
-36.92
-18.73
-7.70
-7.41
-15.76
-26.26
-31.31
-26.19
-10.86
11.01
34.38
55.64
72.73
84.47
88.94
83.36
65.64
36.58
1.43
-31.15
-51.77
-54.19
-37.74
-7.55
27.15
56.35
72.12
70.59
51.94
19.67
-20.98
-64.57
-106.08
-141.72
-168.62
-185.40
-192.46
-192.58
-190.55
-191.67
-199.68
-214.23
-230.71
-241.30
-238.75
-220.11
-188.56
-152.25
-120.56
-100.29
-93.04
-96.11
-104.67
-114.52
-123.64
-131.63
-138.74
-144.29
-146.51
-142.53
-129.80
-107.13
-75.14
-37.12
1.62
34.24
54.17
56.56
40.42
9.17
-30.08
-67.05
-91.68
-96.50
-79.32
-43.88
0.61
42.87
72.65
83.66
77.18
59.97
41.40
29.44
28.33
37.11
52.53
69.72
83.26
90.48
89.85
80.62
63.07
39.62
14.28
-5.34
-11.96
-1.58
28.24
76.22
137.36
204.44
269.84
326.18
371.11
404.76
411.79
381.71
313.85
219.33
115.62
27.93
-42.70
-99.35
-144.59
-178.74
-200.34
-206.88
-198.86
-179.82
-155.90
-135.28
-122.12
-118.66
-122.98
-128.14
-125.90
-110.49
-79.98
-38.24
4.66
38.67
53.83
46.74
21.89
-11.07
-40.44
-54.26
-44.34
-9.00
48.60
118.53
191.38
259.78
318.59
352.17
348.87
305.18
227.40
142.84
60.09
-17.38
-86.43
-146.76
-195.20
-227.47
-240.78
-234.38
-208.95
-169.06
-118.53
-62.50
-7.76
39.71
76.84
102.92
118.76
125.83
124.23
116.33
105.17
93.15
81.93
72.73
66.27
62.66
61.40
60.55
59.15
56.80
53.64
50.97
50.83
54.37
60.31
64.32
59.97
42.90
13.39
-22.99
-57.08
-80.32
-88.62
-83.54
-69.98
-52.54
-32.58
-8.85
19.15
48.20
70.92
79.16
69.12
44.33
14.52
-9.79
-22.33
-24.12
-21.61
-21.73
-27.29
-35.24
-39.18
-33.67
-17.88
4.56
27.92
47.54
61.72
71.71
80.21
89.47
100.38
112.30
124.42
136.43
148.94
163.18
180.16
199.90
220.71
241.91
260.23
272.19
275.20
268.11
251.49
227.07
197.28
164.53
130.99
98.16
67.58
40.69
18.66
2.34
-8.10
-13.18
-14.09
-12.39
-9.92
-7.98
-7.26
-7.85
-9.44
-11.59
-13.88
-16.08
-18.16
-20.44
-23.19
-26.37
-29.59
-32.03
-32.59
-30.09
-23.64
-13.66
-1.14
12.67
26.58
39.46
50.34
58.50
63.70
65.60
63.06
55.04
40.94
21.12
-3.12
-29.61
-55.60
-78.10
-95.19
-107.51
-116.55
-123.73
-130.00
-136.47
-144.90
-157.28
-174.67
-196.78
-224.80
-256.51
-286.51
-308.99
-321.42
-325.77
-325.96
-323.76
-318.84
-316.26
-317.57
-320.04
-318.95
-312.01
-301.40
-291.13
-283.34
-281.21
-299.59
-347.15
-421.02
-508.18
-593.89
-668.22
-725.43
-760.43
-774.06
-785.57
-808.83
-845.28
-885.68
-920.34
-947.32
-969.71
-989.37
-905.93
-676.67
-334.08
35.68
358.44
605.01
778.13
874.38
925.17
949.09
939.28
890.50
807.58
703.43
601.93
513.06
439.02
381.46
336.59
288.81
229.01
159.10
89.86
32.22
-10.19
-38.22
-52.97
-60.26
-73.73
-102.02
-144.24
-189.71
-223.61
-234.33
-214.89
-163.60
-87.88
-3.56
74.13
135.70
178.84
206.19
221.26
228.60
233.78
241.51
254.35
273.04
295.62
317.23
330.98
329.81
310.06
273.29
225.86
177.70
140.25
123.53
133.22
168.15
219.33
271.95
309.58
319.55
296.84
244.68
171.91
88.31
1.86
-81.13
-154.10
-208.89
-237.39
-235.42
-206.80
-164.04
-125.20
-106.65
-116.28
-150.37
-195.20
-233.32
-250.51
-240.65
-206.38
-156.31
-100.31
-46.29
0.67
37.16
59.55
63.97
48.26
15.02
-27.09
-65.24
-87.58
-88.87
-72.40
-47.81
-25.23
-9.69
1.41
15.94
41.44
80.32
128.20
177.04
219.34
251.52
273.71
286.70
289.47
278.95
252.99
214.17
171.37
137.13
122.08
129.39
152.90
180.38
199.64
204.05
194.16
174.91
150.82
122.58
87.20
40.88
-16.60
-79.65
-137.26
-176.47
-186.91
-164.90
-115.31
-50.34
13.74
61.82
83.82
76.75
44.15
-7.10
-69.81
-138.04
-206.29
-268.16
-316.01
-343.00
-346.37
-329.58
-301.97
-274.76
-255.97
-246.93
-242.42
-233.83
-213.50
-177.99
-128.74
-71.37
-13.63
35.75
68.55
78.41
62.63
23.40
-32.46
-94.93
-153.63
-199.69
-227.37
-234.49
-221.87
-192.45
-150.50
-101.02
-48.72
2.28
49.30
91.35
129.09
164.52
199.27
233.12
263.69
287.67
303.08
311.11
315.56
319.85
324.10
324.02
313.84
291.16
260.98
235.61
229.30
250.77
297.60
356.50
408.90
439.26
440.89
416.55
374.79
324.59
272.44
222.02
176.61
140.70
119.51
116.21
128.67
149.13
166.72
172.52
163.48
143.05
118.14
94.70
74.48
54.90
31.83
2.84
-30.83
-64.76
-94.11
-115.83
-130.21
-140.46
-151.43
-167.86
-192.92
-226.54
-264.25
-297.46
-315.46
-309.98
-279.34
-230.85
-178.98
-140.10
-126.00
-139.45
-174.59
-220.76
-267.84
-309.74
-344.23
-370.14
-384.81
-383.96
-364.33
-327.50
-281.00
-236.22
-203.42
-186.76
-182.66
-182.30
-177.11
-163.73
-146.28
-133.42
-132.97
-146.86
-169.73
-192.51
-207.92
-214.95
-218.67
-226.15
-240.90
-259.69
-274.02
-274.72
-257.31
-224.47
-184.10
-144.67
-110.97
-82.35
-54.63
-23.94
10.40
45.02
74.35
93.43
100.47
97.78
90.86
86.28
88.95
101.07
121.94
148.99
179.15
209.12
235.46
254.16
261.04
252.86
228.42
189.26
139.48
85.12
33.16
-9.62
-38.35
-51.62
-51.96
-45.51
-39.23
-37.67
-40.77
-43.98
-40.64
-25.70
1.70
38.04
77.34
113.87
143.47
163.76
173.04
170.13
155.22
130.82
102.32
76.70
60.29
56.52
64.94
82.45
105.44
131.60
160.11
190.32
219.91
244.34
258.44
259.14
247.76
229.80
212.35
200.85
196.60
196.57
195.42
188.04
171.38
144.99
110.93
73.58
38.94
13.73
2.79
6.64
19.99
32.90
34.34
16.70
-21.29
-74.73
-134.92
-193.00
-242.08
-277.81
-297.77
-300.74
-286.79
-258.03
-218.70
-173.94
-128.28
-83.95
-41.15
0.40
40.15
76.36
107.31
132.66
154.12
174.31
194.98
215.25
231.19
237.14
227.71
199.67
153.01
91.56
22.77
-42.68
-92.56
-116.71
-111.02
-80.09
-36.55
3.41
26.57
27.93
11.88
-10.52
-26.96
-28.96
-14.55
12.36
44.94
76.07
100.47
115.21
119.76
115.70
106.01
94.11
82.20
70.42
56.71
38.01
12.06
-21.20
-58.95
-96.18
-126.43
-143.41
-142.02
-119.65
-76.94
-18.08
50.10
119.50
182.65
234.44
271.87
293.86
300.22
291.92
271.85
244.83
216.55
191.25
170.34
151.94
132.36
108.07
78.71
48.63
25.46
16.29
23.84
44.44
68.70
84.86
82.41
56.61
11.36
-43.00
-94.65
-135.26
-161.66
-174.87
-177.28
-171.89
-159.95
-140.20
-111.17
-74.24
-34.98
-1.51
