1513817889.00
64.000000
-0.00
-0.00
-0.00
-0.00
-0.00
-0.00
-0.00
-0.00
-0.00
-0.00
0.00
0.01
0.01
-0.00
-0.03
-0.05
-0.05
0.00
0.13
0.36
0.66
1.01
1.37
1.72
2.06
2.40
2.79
3.24
3.80
4.42
5.06
5.66
6.20
6.68
7.15
7.68
8.31
9.14
10.09
11.04
11.88
12.56
13.14
13.76
14.65
15.96
17.91
20.32
22.90
25.38
27.58
29.57
31.68
34.32
37.81
42.54
48.15
54.10
59.83
64.97
69.58
74.14
79.34
85.71
93.76
103.00
112.62
121.73
129.77
136.75
143.30
150.75
157.77
166.64
177.95
191.79
206.97
220.57
228.25
225.36
208.53
176.87
132.76
80.05
23.07
-34.94
-92.44
-149.16
-205.23
-260.37
-313.74
-363.87
-409.83
-450.91
-486.50
-515.74
-537.23
-549.22
-549.96
-538.37
-514.21
-478.67
-433.88
-382.45
-327.02
-269.84
-212.63
-156.66
-102.95
-52.37
-5.90
35.58
71.43
101.35
125.50
144.38
158.69
169.15
176.37
180.75
182.57
182.07
179.51
175.23
169.65
163.18
156.15
148.81
141.30
133.69
126.02
118.33
110.69
103.16
95.80
88.68
81.83
75.25
68.95
62.95
57.25
51.86
46.78
42.03
37.59
33.45
29.61
26.07
22.81
19.83
17.11
14.67
12.48
10.54
8.83
7.35
6.07
4.97
4.05
3.27
2.62
2.09
1.65
1.30
1.01
0.79
0.61
0.48
0.37
0.29
0.24
0.20
0.18
0.17
0.18
0.19
0.21
0.24
0.27
0.31
0.35
0.40
0.44
0.49
0.54
0.59
0.64
0.69
0.75
0.82
0.89
0.96
1.05
1.14
1.24
1.36
1.49
1.63
1.79
1.98
2.18
2.40
2.65
2.92
3.22
3.55
3.92
4.32
4.75
5.22
5.73
6.27
6.86
7.49
8.17
8.89
9.65
10.46
11.32
12.22
13.17
14.17
15.23
16.36
17.55
18.80
20.10
21.40
22.65
23.77
24.67
25.22
25.30
24.80
23.61
21.71
19.07
15.76
11.87
7.57
3.06
-1.46
-5.78
-9.74
-13.19
-16.05
-18.26
-19.77
-20.58
-20.74
-20.35
-19.51
-18.38
-17.07
-15.69
-14.29
-12.84
-11.32
-9.70
-7.99
-6.25
-4.54
-2.92
-1.46
-0.12
1.21
2.73
4.43
6.32
8.30
10.16
11.73
12.88
13.67
14.39
15.45
16.95
18.88
21.06
23.06
24.46
24.98
24.69
24.06
23.88
24.34
25.52
27.10
28.41
28.69
27.42
24.65
20.97
17.36
14.09
11.28
8.52
4.86
-1.01
-10.78
-26.34
-49.75
-77.79
-107.94
-136.46
-158.81
-170.94
-170.70
-158.78
-138.48
-114.38
-90.58
-70.12
-53.84
-41.15
-31.12
-23.20
-17.34
-13.55
-11.45
-10.10
-8.85
-7.15
-4.88
-2.46
-0.61
0.05
-0.66
-2.51
-4.90
-7.55
-10.31
-13.25
-16.55
-20.22
-23.83
-26.58
-27.45
-25.68
-21.19
-14.53
-6.75
0.99
7.76
13.04
16.77
19.15
20.46
20.91
20.71
20.05
19.21
18.45
18.01
18.00
18.46
19.34
20.60
22.14
23.81
25.39
26.58
27.05
26.62
25.31
23.44
21.53
20.18
19.77
20.39
21.67
23.02
23.74
23.27
21.37
18.12
13.91
9.18
4.43
0.00
-3.94
-7.46
-10.81
-14.28
-17.99
-21.73
-24.95
-26.88
-26.86
-24.52
-19.97
-13.65
-6.15
1.87
9.83
17.16
23.33
27.89
30.57
31.38
30.52
28.36
25.20
21.35
17.10
12.82
9.01
6.20
4.78
4.84
6.13
8.09
10.06
11.44
11.84
11.11
9.42
7.15
4.79
2.80
1.40
0.56
-0.05
-0.88
-2.30
-4.53
-7.49
-11.02
-14.83
-18.66
-22.32
-25.71
-28.86
-31.91
-35.08
-38.50
-41.99
-44.99
-46.59
-45.83
-42.05
-35.20
-25.89
-15.28
-4.67
4.78
12.38
17.92
21.63
23.95
25.29
25.94
25.99
25.46
24.37
22.86
21.16
19.59
18.38
17.68
17.53
17.85
18.52
19.37
20.13
20.49
20.18
19.09
17.28
14.95
12.32
9.57
6.68
3.58
0.22
-3.40
-7.13
-10.81
-14.34
-17.75
-21.24
-25.10
-29.70
-35.38
-42.27
-50.21
-58.56
-66.20
-71.78
-74.07
-72.48
-67.26
-59.41
-50.37
-41.53
-33.87
-27.87
-23.56
-20.77
-19.13
-18.18
-17.37
-16.13
-13.99
-10.73
-6.29
-0.76
5.76
13.14
21.15
29.40
37.33
44.36
50.04
54.26
57.15
58.97
59.93
60.11
59.46
57.93
55.64
52.81
49.72
46.57
43.36
40.03
36.36
32.22
27.64
22.69
17.49
11.97
6.00
-0.45
-7.18
-13.66
-19.05
-22.44
-23.11
-20.87
-16.11
-9.71
-2.66
4.31
10.70
16.30
21.04
24.76
27.18
28.06
27.54
26.49
26.53
29.20
35.49
45.62
58.85
73.72
88.46
101.62
112.85
123.12
133.54
145.18
158.91
174.96
192.47
209.51
223.91
234.46
241.64
246.17
249.36
252.92
258.23
265.38
272.72
277.26
276.11
266.55
244.82
207.54
153.59
85.14
7.39
-72.98
-149.77
-225.52
-297.65
-363.41
-421.35
-469.72
-503.79
-516.36
-501.92
-466.40
-414.46
-352.46
-288.30
-227.88
-173.00
-121.96
-71.56
-21.07
29.19
79.61
130.76
182.45
233.78
282.80
325.95
357.84
372.43
365.02
335.08
286.27
225.25
160.43
99.57
47.70
5.95
-27.93
-57.81
-87.12
-118.33
-152.57
-189.25
-225.93
-258.48
-281.82
-291.49
-285.44
-265.11
-235.87
-205.32
-180.33
-164.52
-157.28
-155.14
-154.08
-151.76
-148.43
-146.23
-147.34
-152.13
-158.50
-162.57
-160.37
-149.58
-130.17
-104.45
-76.36
-50.55
-31.60
-23.21
-27.71
-45.60
-75.05
-111.95
-150.31
-183.33
-204.77
-210.23
-198.01
-169.02
-126.26
-73.74
-15.93
42.60
97.41
144.53
181.17
206.32
220.91
227.05
227.05
222.45
213.88
201.82
187.32
172.47
159.82
151.38
147.78
147.97
149.96
151.63
151.55
149.17
144.66
138.55
131.42
123.71
115.69
107.44
98.90
89.88
80.14
69.52
57.99
45.61
32.62
19.21
5.54
-8.43
-22.97
-38.56
-55.71
-74.60
-94.83
-115.25
-134.27
-150.40
-162.68
-171.07
-176.32
-179.48
-181.36
-182.00
-180.40
-174.44
-161.23
-137.83
-102.30
-54.72
2.26
63.93
124.73
179.99
227.12
265.92
297.76
324.42
347.21
366.79
383.58
398.24
411.63
424.22
435.31
442.82
443.88
436.05
418.54
392.53
360.81
326.36
291.18
255.62
218.80
179.51
137.30
92.98
48.36
5.46
-34.34
-70.79
-104.65
-137.26
-170.03
-203.96
-239.45
-275.91
-311.61
-343.68
-368.64
-383.52
-387.12
-380.87
-368.60
-355.10
-344.12
-336.74
-330.98
-322.84
-308.20
-284.57
-251.97
-212.55
-169.60
-126.47
-85.92
-49.89
-19.61
4.31
21.90
33.74
40.99
45.15
47.83
50.34
53.22
55.95
57.02
54.47
46.79
33.76
16.72
-1.82
-19.13
-33.38
-44.16
-52.59
-60.32
-68.50
-77.39
-86.59
-95.43
-103.38
-110.28
-116.10
-121.03
-125.06
-127.79
-128.43
-126.39
-121.27
-112.91
-101.52
-87.38
-71.15
-53.19
-33.06
-9.83
16.67
46.53
80.05
117.67
159.94
204.83
248.18
284.56
308.21
313.20
297.23
263.12
217.72
170.10
124.47
81.01
37.95
-6.53
-55.03
-106.85
-157.52
-200.44
-227.86
-239.43
-239.41
-233.86
-229.79
-236.83
-261.64
-304.81
-360.70
-417.34
-467.73
-508.12
-536.81
-528.23
-468.20
-361.51
-232.58
-131.43
-66.07
-31.92
-20.57
-15.72
-5.47
14.74
45.10
83.58
126.73
173.56
219.05
259.83
296.34
330.78
362.68
391.12
415.97
437.10
455.86
469.27
474.22
469.94
457.61
438.32
404.71
355.78
296.98
238.36
186.09
142.07
105.63
76.58
51.42
27.96
4.92
-19.93
-49.89
-89.66
-140.20
-200.90
-270.15
-346.33
-415.81
-462.37
-473.33
-445.63
-386.14
-307.63
-224.04
-146.59
-81.99
-30.61
10.11
47.32
84.77
123.22
160.03
192.04
216.17
229.97
228.59
213.27
189.78
164.42
141.43
121.93
104.69
88.21
71.72
55.64
40.45
24.68
4.25
-25.28
-66.78
-120.42
-177.76
-230.68
-270.71
-290.35
-285.66
-258.42
-215.67
-167.70
-124.54
-92.49
-73.46
-64.47
-59.91
-55.37
-49.58
-43.62
-39.04
-36.53
-33.84
-28.88
-20.30
-7.84
6.89
21.14
32.43
39.63
43.26
45.12
46.70
48.97
52.48
56.68
60.40
62.70
63.45
63.49
64.61
68.73
74.53
81.84
90.55
100.71
112.52
125.98
140.38
153.95
163.88
167.33
162.90
150.64
132.10
109.70
85.84
62.29
40.07
19.73
1.56
-13.85
-26.32
-36.16
-43.95
-50.30
-55.37
-58.82
-59.96
-58.24
-53.31
-45.59
-36.14
-26.26
-17.24
-9.96
-4.87
-1.85
-0.50
-0.15
-0.26
-0.54
-0.84
-1.10
-1.14
-0.67
0.63
3.00
6.42
10.56
14.83
18.57
21.20
22.32
21.75
19.47
15.73
10.89
5.50
0.16
-4.64
-8.61
-11.83
-14.71
-17.93
-22.12
-27.68
-34.45
-41.66
-48.03
-52.03
-52.42
-48.57
-40.77
-30.06
-18.03
-6.22
4.19
12.58
18.82
23.07
25.60
26.62
26.43
25.38
24.01
22.92
22.59
23.29
24.84
26.86
28.82
30.30
31.08
31.11
30.47
29.15
27.08
24.10
20.12
15.18
9.54
3.63
-2.10
-7.28
-11.86
-16.01
-20.14
-24.70
-29.97
-35.90
-42.03
-47.60
-51.67
-53.43
-52.34
-48.33
-41.84
-33.70
-24.95
-16.50
-8.99
-2.61
2.73
7.33
11.38
14.92
17.84
20.01
21.45
22.32
22.92
23.51
24.19
24.87
25.34
25.38
24.89
23.89
22.53
21.01
19.45
17.86
16.14
13.96
11.01
6.93
1.66
-4.58
-11.21
-17.57
-23.14
-27.82
-32.07
-36.63
-42.31
-49.57
-58.27
-67.69
-76.69
-84.01
-88.56
-89.71
-87.35
-81.96
-74.47
-66.07
-57.90
-50.78
-45.05
-40.50
-36.62
-32.71
-28.28
-23.01
-16.78
-9.41
-0.56
10.23
23.48
39.52
58.32
79.30
101.25
122.53
141.38
156.38
166.77
172.68
174.83
174.14
171.32
166.60
159.98
151.47
141.38
130.20
118.22
105.19
90.27
72.46
51.16
26.73
0.44
-25.73
-49.71
-69.79
-84.94
-94.80
-99.52
-99.74
-96.24
-90.05
-82.14
-73.46
-64.77
-56.64
-49.51
-43.66
-39.26
-36.21
-34.20
-32.76
-31.33
-29.52
-27.10
-24.15
-20.86
-17.48
-14.21
-11.18
-8.49
-6.23
-4.57
-3.69
-3.75
-4.81
-6.75
-9.31
-12.13
-14.93
-17.50
-19.82
-21.98
-24.18
-26.67
-29.67
-33.35
-37.71
-42.50
-47.13
-50.77
-52.43
-51.36
-47.22
-40.24
-31.18
-21.07
-10.92
-1.47
6.87
13.98
19.89
24.61
28.14
30.46
31.70
32.15
32.24
32.44
33.05
34.17
35.61
37.04
38.08
38.50
38.22
37.30
35.87
34.02
31.83
29.29
26.38
23.05
19.25
15.01
10.42
5.71
1.13
-3.00
-6.55
-9.53
-12.23
-15.09
-18.59
-23.15
-28.86
-35.41
-42.07
-47.81
-51.48
-52.22
-49.67
-44.07
-36.21
-27.10
-17.77
-8.97
-1.11
5.63
11.28
15.91
19.63
22.51
24.66
26.11
26.90
27.08
26.78
26.16
25.36
24.52
23.66
22.78
21.86
20.94
20.07
19.26
18.44
17.48
16.26
14.68
12.81
10.75
8.56
6.22
3.56
0.45
-3.14
-7.02
-10.83
-14.21
-16.99
-19.25
-21.44
-24.18
-28.00
-33.14
-39.25
-45.49
-50.66
-53.57
-53.44
-50.11
-44.05
-36.16
-27.42
-18.70
-10.58
-3.37
2.76
7.69
11.37
13.76
15.01
15.39
15.33
15.29
15.68
16.71
18.36
20.43
22.61
24.62
26.28
27.49
28.22
28.42
28.04
27.02
25.41
23.36
21.09
18.82
16.62
14.42
11.98
9.10
5.69
1.87
-2.08
-5.85
-9.15
-11.92
-14.26
-16.44
-18.79
-21.66
-25.27
-29.65
-34.51
-39.19
-42.80
-44.41
-43.41
-39.63
-33.49
-25.82
-17.57
-9.60
-2.41
3.74
8.83
12.93
16.04
18.17
19.33
19.64
19.29
18.55
17.77
17.23
17.16
17.61
18.54
19.70
20.84
21.68
22.07
21.94
21.30
20.20
18.63
16.61
14.07
11.07
7.67
4.05
0.38
-3.21
-6.59
-9.71
-12.54
-15.06
-17.29
-19.29
-21.24
-23.40
-26.07
-29.42
-33.36
-37.41
-40.78
-42.56
-42.01
-38.83
-33.22
-25.86
-17.68
-9.59
-2.25
4.01
9.14
13.26
16.42
18.65
19.87
20.10
19.50
18.48
17.54
17.12
17.42
18.28
19.32
20.11
20.35
19.98
19.16
18.15
17.14
16.23
15.32
14.21
12.65
10.39
7.32
3.49
-0.83
-5.24
-9.24
-12.50
-14.84
-16.40
-17.57
-18.84
-20.72
-23.49
-27.14
-31.18
-34.83
-37.14
-37.38
-35.25
-30.94
-25.12
-18.57
-12.06
-6.10
-0.94
3.29
6.60
8.97
10.51
11.37
11.82
12.13
12.56
13.27
14.24
15.37
16.40
17.11
17.33
17.08
16.47
15.75
15.14
14.70
14.38
13.94
13.09
11.60
9.39
6.52
3.23
-0.24
-3.66
-6.90
-9.98
-13.01
-16.27
-20.07
-24.72
-30.29
-36.45
-42.50
-47.40
-50.07
-49.77
-46.33
-40.27
-32.59
-24.49
-16.96
-10.58
-5.49
-1.49
1.65
4.15
6.08
7.56
8.75
10.00
11.66
13.95
16.80
19.81
22.42
24.11
24.68
24.23
23.11
21.71
20.31
18.96
17.51
15.81
13.74
11.28
8.56
5.84
3.45
1.72
0.96
1.08
1.55
1.30
-0.89
-5.85
-13.50
-22.63
-31.26
-37.18
-38.79
-35.27
-26.74
-14.08
1.00
16.05
28.28
35.34
36.49
33.17
28.76
27.05
30.47
38.88
49.72
59.49
65.65
67.97
68.63
70.92
77.72
89.95
106.14
122.84
135.55
139.93
132.65
112.05
78.76
36.09
-9.96
-51.62
-81.69
-95.92
-94.82
-83.34
-68.54
-56.45
-49.90
-48.66
-51.22
-57.03
-67.02
-82.37
-102.40
-123.36
-139.67
-146.76
-143.87
-134.92
-126.77
-125.89
-135.32
-153.86
-177.16
-200.23
-219.68
-234.43
-245.01
-252.12
-255.55
-253.88
-245.15
-227.75
-201.13
-165.86
-123.29
-75.12
-23.14
30.99
86.03
141.42
197.60
255.81
317.13
381.06
444.25
500.52
542.22
562.89
559.67
534.45
493.13
442.92
389.54
335.41
279.70
219.98
154.22
82.26
6.81
-66.10
-128.02
-169.84
-184.92
-172.53
-139.83
-100.83
-72.10
-66.27
-86.85
-126.97
-172.62
-208.90
-225.95
-221.49
-199.66
-167.83
-131.98
-94.82
-56.61
-17.74
19.04
48.49
65.44
67.99
57.78
40.72
24.00
12.59
7.02
3.64
-2.49
-13.81
-28.49
-43.89
-56.94
-66.53
-74.34
-84.13
-100.31
-125.72
-160.28
-200.92
-245.90
-293.32
-341.20
-387.06
-427.95
-461.27
-485.08
-498.53
-482.02
-423.43
-322.42
-193.11
-57.31
66.44
168.76
248.55
308.80
353.76
384.16
399.81
400.90
389.51
369.40
344.80
319.27
295.36
273.21
249.86
221.95
187.07
144.92
97.28
47.06
1.04
-37.12
-65.79
-86.24
-101.04
-112.92
-123.63
-133.77
-143.50
-153.18
-163.72
-174.79
-184.57
-189.25
-184.15
-166.04
-135.41
-97.19
-59.17
-29.09
-11.09
-4.59
-5.80
-10.01
-13.85
-16.11
-16.95
-16.58
-14.67
-10.68
-3.30
7.26
19.46
31.06
39.95
45.17
47.06
46.75
45.61
44.67
43.92
42.73
40.12
35.33
28.32
19.67
10.38
1.36
-6.89
-14.64
-22.47
-31.17
-41.37
-53.20
-66.32
-80.04
-93.56
-106.23
-117.78
-127.90
-136.49
-143.50
-148.83
-152.23
-153.36
-151.77
-146.81
-139.83
-131.48
-122.32
-112.77
-103.20
-93.89
-85.04
-76.76
-69.08
-61.99
-55.15
-48.34
-41.46
-34.58
-27.92
-21.72
-16.15
-11.21
-6.75
-2.32
2.45
7.70
13.29
18.94
24.36
29.47
34.53
40.04
46.75
55.13
65.29
76.83
89.11
101.55
113.85
126.20
139.06
153.09
168.85
186.78
207.14
229.93
254.56
279.53
302.47
320.53
331.33
333.73
328.27
316.68
300.85
281.91
259.94
234.56
205.99
175.79
146.77
121.91
103.01
89.89
80.65
72.61
63.73
53.25
41.67
29.94
18.74
8.00
-2.86
-14.44
-27.01
-40.37
-54.15
-68.03
-81.86
-95.51
-108.46
-119.66
-127.70
-131.26
-129.61
-122.98
-112.51
-99.82
-86.58
-74.09
-63.25
-54.61
-48.51
-45.06
-44.03
-44.74
-46.00
-46.57
-45.41
-42.10
-36.86
-30.50
-24.03
-18.38
-14.15
-11.37
-9.63
-8.12
-5.88
-2.11
3.60
11.17
20.31
30.81
43.01
57.92
77.09
102.30
135.08
176.34
225.52
279.89
334.09
380.65
411.62
420.95
406.64
371.30
321.24
263.77
204.80
147.25
91.22
35.09
-23.00
-84.05
-147.61
-211.10
-269.91
-317.83
-348.77
-358.93
-348.68
-322.89
-289.38
-256.27
-229.32
-210.73
-199.52
-192.87
-187.51
-180.13
-167.58
-146.82
-115.75
-73.95
-23.50
31.29
84.94
132.18
169.36
195.06
209.93
215.83
214.75
207.74
194.70
175.07
148.83
117.67
84.73
53.38
25.59
0.98
-22.67
-47.58
-74.13
-100.34
-122.89
-138.94
-147.44
-149.27
-146.37
-140.78
-134.41
-129.04
-126.31
-126.93
-129.83
-131.84
-128.77
-117.31
-96.66
-68.98
-38.28
-8.79
16.24
34.92
46.51
51.35
50.94
48.21
47.00
50.90
61.81
79.29
100.99
123.98
146.11
166.43
184.64
200.12
211.74
218.50
220.73
220.72
221.85
226.71
235.11
243.66
246.88
239.79
220.12
188.96
149.65
105.83
59.95
12.75
-35.76
-85.37
-135.35
-184.79
-233.58
-283.01
-335.64
-393.99
-458.65
-526.57
-590.64
-641.01
-668.08
-665.93
-634.53
-579.72
-510.72
-436.53
-362.96
-291.74
-221.62
-150.74
-78.66
-7.38
59.13
116.29
160.51
190.45
207.40
214.72
216.65
216.55
216.03
214.88
212.00
206.65
199.21
190.94
183.02
175.59
167.42
156.57
141.61
122.55
101.19
80.64
64.51
55.80
56.32
66.46
85.43
111.44
141.89
173.75
203.77
229.12
247.65
257.86
258.41
247.64
223.54
184.54
130.82
65.27
-6.45
-77.25
-140.61
-192.33
-231.33
-259.05
-277.98
-290.18
-296.38
-295.99
-287.89
-271.43
-247.24
-217.49
-185.36
-154.08
-125.83
-101.15
-79.01
-57.76
-36.14
-13.83
8.65
30.60
51.81
72.71
93.92
115.66
137.31
157.44
174.43
187.13
195.24
199.21
199.82
197.67
192.91
185.29
174.38
159.90
141.83
120.56
96.85
71.87
47.14
24.37
5.19
-9.16
-17.91
-20.91
-18.50
-11.44
-0.80
12.12
25.93
39.41
51.75
62.45
71.16
77.08
78.70
73.98
61.16
39.71
10.98
-22.11
-56.13
-88.53
-118.43
-146.52
-174.13
-202.12
-230.18
-257.08
-281.23
-301.18
-315.71
-323.55
-323.43
-314.54
-297.32
-273.88
-247.55
-221.52
-197.44
-174.70
-151.15
-124.55
-94.15
-61.21
-28.34
1.75
27.24
47.36
62.05
71.60
76.94
80.17
84.83
95.10
114.32
143.31
179.67
218.44
254.01
282.25
301.77
313.95
321.72
327.81
333.31
337.12
336.46
328.01
309.21
279.25
239.44
192.87
143.69
96.17
53.74
18.38
-9.67
-31.76
-50.25
-67.59
-85.26
-103.10
-119.21
-130.64
-134.64
-129.84
-117.01
-98.82
-78.93
-60.62
-45.62
-33.62
-22.83
-11.16
2.31
16.46
28.42
34.70
32.98
23.42
8.82
-6.29
-17.38
-21.59
-18.44
-9.48
2.88
16.75
31.45
47.33
64.98
84.33
104.63
124.94
144.70
163.81
181.94
197.64
208.05
209.92
201.28
183.08
159.25
135.06
114.48
98.19
83.58
66.77
45.43
20.19
-5.61
-27.98
-44.70
-56.39
-65.82
-76.28
-89.79
-106.38
-125.59
-147.40
-172.65
-202.04
-234.42
-265.58
-288.74
-297.03
-286.67
-259.79
-222.82
-183.24
-145.96
-111.52
-77.80
-43.35
-10.39
15.46
27.08
20.99
-0.17
-28.56
-54.96
-73.28
-82.74
-87.07
-91.44
-100.79
-116.87
-138.36
-162.27
-185.29
-205.09
-220.62
-231.61
-228.68
-204.26
-154.33
-81.35
6.22
97.31
181.89
252.97
306.97
343.71
364.54
373.03
374.23
372.71
371.18
370.02
367.41
360.56
347.32
326.36
298.19
264.51
228.81
193.19
157.51
119.56
75.77
22.78
-42.06
-118.64
-202.93
-286.32
-356.75
-401.56
-411.99
-387.49
-337.15
-277.74
-227.57
-199.80
-198.33
-218.06
-249.05
-282.09
-312.40
-340.12
-368.34
-400.17
-436.88
-477.36
-518.70
-556.52
-585.65
-600.93
-598.42
-576.82
-538.18
-487.15
-429.63
-370.94
-314.94
-264.00
-219.65
-182.91
-154.15
-132.53
-115.85
-101.19
-86.00
-69.37
-52.27
-37.00
-26.09
-21.05
-21.65
-26.13
-31.91
-36.61
-38.83
-38.44
-36.30
-33.55
-31.01
-28.66
-25.75
-21.06
-13.46
-2.32
12.32
29.79
49.01
68.88
88.41
106.96
124.12
139.69
153.61
165.78
176.11
184.38
190.35
193.75
194.39
192.37
188.15
182.60
176.84
172.03
169.00
168.03
168.78
170.56
172.67
174.86
177.49
181.49
187.95
197.69
210.76
226.56
243.93
261.73
279.24
296.36
313.65
332.32
354.11
380.98
414.17
453.00
493.74
529.58
551.94
553.13
529.01
480.46
413.05
334.73
253.38
175.02
103.58
41.72
-8.39
-44.92
-67.25
-76.76
-77.16
-73.49
-70.52
-70.99
-74.81
-79.33
-80.82
-76.25
-64.47
-46.57
-25.16
-3.50
15.32
28.77
35.16
34.20
27.65
19.94
17.34
26.14
49.95
87.78
133.90
179.57
216.36
239.07
247.14
243.82
233.87
221.08
206.76
189.86
168.21
140.36
106.54
68.71
29.62
-8.43
-44.53
-79.18
-113.69
-149.47
-187.50
-228.29
-271.58
-315.83
-357.65
-391.80
-412.37
-414.64
-396.99
-361.66
-314.16
-261.42
-209.53
-162.40
-121.49
-86.66
-57.15
-32.36
-11.88
4.72
17.94
28.30
36.04
41.16
43.76
44.40
44.61
46.61
52.61
63.97
80.46
100.24
120.45
138.19
151.30
158.86
160.87
157.91
150.59
139.39
124.65
106.83
86.81
66.02
46.49
30.31
19.08
13.28
11.86
12.28
10.95
4.16
-11.07
-36.08
-70.16
-110.54
-153.08
-193.35
-227.96
-255.70
-278.03
-298.29
-320.06
-345.07
-371.67
-394.92
-408.20
-405.81
-385.06
-346.94
-295.20
-234.29
-167.59
-96.56
-21.18
59.08
144.46
234.21
326.18
416.44
499.10
566.70
611.68
628.64
616.14
577.35
518.81
448.04
371.12
291.53
210.41
127.82
43.75
-41.59
-128.29
-216.97
-308.23
-401.28
-492.59
-575.63
-642.15
-684.61
-698.73
-684.94
-648.01
-595.23
-533.89
-469.37
-404.14
-338.12
-270.03
-198.97
-125.63
-52.65
15.84
75.46
122.95
157.10
179.12
192.25
201.04
210.36
224.53
246.31
276.37
312.91
352.10
388.91
418.35
436.66
442.08
435.00
417.52
392.66
363.46
332.18
300.04
267.36
234.27
201.37
170.09
142.48
120.70
106.55
101.01
104.26
115.27
131.30
147.40
156.54
150.56
122.16
67.10
-14.17
-116.16
-229.44
-342.77
-445.31
-528.32
-586.15
-616.61
-620.87
-602.83
-568.14
-522.78
-471.63
-417.57
-361.35
-302.29
-239.41
-172.28
-101.19
-26.86
49.84
127.56
203.76
273.97
332.13
372.23
390.42
386.70
365.04
331.95
294.20
256.99
223.12
193.51
168.25
147.37
131.28
120.47
114.98
113.84
114.92
115.19
111.57
102.00
86.31
66.24
44.65
24.36
7.21
-6.04
-15.15
-19.66
-18.80
-12.13
-0.56
13.16
24.92
30.83
28.71
18.90
3.89
-12.88
-28.33
-40.57
-48.98
-53.76
-55.35
-54.21
-50.83
-45.81
-40.00
-34.30
-29.47
-25.89
-23.52
-22.00
-20.80
-19.41
-17.45
-14.73
-11.28
-7.32
-3.17
0.89
4.77
8.53
12.28
16.01
19.43
22.04
23.36
23.15
21.57
19.08
16.16
13.11
9.85
6.12
1.70
-3.33
-8.52
-13.11
-16.27
-17.38
-16.22
-13.06
-8.47
-3.21
2.02
6.71
10.49
13.15
14.52
14.45
12.85
9.80
5.59
0.77
-4.00
-8.09
-11.04
-12.71
-13.16
-12.59
-11.19
-9.14
-6.60
-3.78
-1.05
1.21
2.63
2.87
1.65
-1.37
-6.60
-14.38
-24.68
-36.94
-50.07
-62.64
-73.39
-81.50
-86.81
-89.73
-90.98
-91.20
-90.83
-90.04
-88.83
-87.22
-85.35
-83.57
-82.25
-81.62
-81.54
-81.50
-80.77
-78.71
-75.14
-70.35
-65.00
-59.76
-55.01
-50.69
-46.51
-42.20
-37.71
-33.32
-29.48
-26.55
-24.67
-23.71
-23.44
-23.72
-24.54
-25.94
-27.79
-29.64
-30.73
-30.22
-27.48
-22.35
-15.25
-6.99
1.52
9.44
16.17
21.38
24.92
26.85
27.32
26.67
25.35
23.89
22.73
22.16
22.24
22.75
23.34
23.66
23.47
22.77
21.75
20.65
19.70
18.94
18.23
17.26
15.73
13.36
10.04
5.84
1.07
-3.74
-7.91
-10.71
-11.52
-9.98
-6.10
-0.28
6.79
14.18
20.99
26.48
30.20
32.11
32.49
31.77
30.44
28.83
27.15
25.53
24.11
23.03
22.41
22.23
22.34
22.45
22.28
21.67
20.65
19.34
17.85
16.25
14.50
12.52
10.20
7.47
4.25
0.55
-3.51
-7.57
-11.06
-13.34
-13.84
-12.28
-8.75
-3.71
2.15
8.12
13.57
18.10
21.47
23.64
24.70
24.87
24.45
23.75
23.08
22.63
22.46
22.50
22.63
22.72
22.69
22.48
22.06
21.39
20.42
19.06
17.28
15.11
12.63
9.92
7.07
4.09
0.97
-2.22
-5.26
-7.73
-9.08
-8.81
-6.53
-2.20
3.92
11.28
19.23
27.08
34.23
40.25
44.83
47.89
49.50
49.87
49.32
48.17
46.72
45.23
43.86
42.69
41.72
40.87
39.98
38.84
37.25
35.04
32.20
28.79
25.04
21.19
17.48
14.01
10.67
7.09
2.69
-3.14
-10.79
-20.26
-30.99
-41.93
-51.82
-59.44
-63.97
-65.18
-63.39
-59.33
-53.91
-48.02
-42.41
-37.62
-34.00
-31.65
-30.44
-30.03
-29.95
-29.71
-28.94
-27.46
-25.26
-22.50
-19.39
-16.16
-13.05
-10.18
-7.64
-5.40
-3.36
-1.37
0.69
2.84
4.96
6.80
8.06
8.52
8.15
7.16
6.00
5.19
5.20
6.24
8.30
11.13
14.40
17.82
21.17
24.27
26.92
28.89
29.93
29.83
28.57
26.34
23.56
20.72
18.30
16.59
15.66
15.35
15.31
15.18
14.69
13.74
12.44
10.98
9.60
8.39
7.30
6.14
4.69
2.78
0.37
-2.38
-5.15
-7.50
-8.89
-8.81
-6.93
-3.18
2.20
8.67
15.58
22.28
28.26
33.22
37.04
39.75
41.49
42.51
43.17
43.93
45.23
47.36
50.38
54.04
57.89
61.40
64.23
66.28
67.72
68.77
69.57
69.98
69.60
67.80
63.91
57.28
47.39
33.97
17.08
-2.80
-24.82
-47.87
-70.74
-92.32
-111.61
-127.80
-140.32
-148.97
-153.97
-155.97
-155.88
-154.53
-152.45
-149.81
-146.52
-142.35
-137.16
-130.72
-122.79
-113.03
-101.25
-87.60
-72.68
-57.46
-42.93
-29.86
-18.60
-9.08
-1.02
5.88
11.81
16.82
20.89
23.98
26.09
27.32
27.88
28.11
28.44
29.31
30.98
33.44
36.43
39.54
42.32
44.43
45.69
46.06
45.56
44.22
42.04
39.10
35.58
31.81
28.19
25.10
22.76
21.16
20.12
19.32
18.47
17.35
15.89
14.11
12.08
9.87
7.52
5.06
2.54
-0.02
-2.62
-5.32
-8.20
-11.22
-14.18
-16.71
-18.32
-18.57
-17.23
-14.42
-10.51
-6.07
-1.70
2.11
5.07
6.99
7.82
7.60
6.48
4.69
2.56
0.45
-1.30
-2.45
-2.93
-2.84
-2.40
-1.85
-1.39
-1.08
-0.85
-0.60
-0.25
0.16
0.48
0.49
-0.05
-1.28
-3.27
-5.95
-9.14
-12.54
-15.73
-18.24
-19.63
-19.64
-18.25
-15.72
-12.49
-9.06
-5.84
-3.06
-0.75
1.26
3.16
5.12
7.14
9.13
10.90
12.25
13.04
13.26
12.97
12.34
11.52
10.67
9.87
9.12
8.36
7.48
6.35
4.89
3.07
0.98
-1.20
-3.26
-4.98
-6.21
-6.90
-7.06
-6.70
-5.88
-4.60
-2.85
-0.65
1.98
5.01
8.40
12.07
15.86
19.53
22.75
25.19
26.64
27.07
26.69
25.82
24.82
23.95
23.39
23.24
23.58
24.46
25.87
27.66
29.55
31.24
32.49
33.26
33.71
34.05
34.44
34.84
35.04
34.83
34.07
32.79
31.11
29.23
27.28
25.40
23.68
22.31
21.44
21.24
21.71
22.74
24.03
25.22
25.94
25.92
25.06
23.39
21.11
18.45
15.70
13.04
10.58
8.35
6.33
4.52
2.97
1.70
0.70
-0.18
-1.15
-2.47
-4.26
-6.56
-9.24
-12.20
-15.37
-18.78
-22.45
-26.30
-30.05
-33.30
-35.68
-36.92
-36.98
-35.94
-33.93
-31.03
-27.32
-22.99
-18.39
-13.98
-10.22
-7.47
-5.87
-5.32
-5.56
-6.23
-6.91
-7.24
-7.02
-6.26
-5.21
-4.25
-3.73
-3.81
-4.46
-5.49
-6.68
-7.89
-9.08
-10.28
-11.48
-12.63
-13.66
-14.45
-15.00
-15.32
-15.48
-15.55
-15.51
-15.29
-14.77
-13.83
-12.41
-10.51
-8.20
-5.55
-2.77
-0.26
1.32
1.09
-1.75
-7.50
-15.72
-25.24
-34.49
-42.11
-47.31
-50.10
-51.05
-50.88
-50.19
-49.23
-48.03
-46.45
-44.31
-41.38
-37.38
-32.11
-25.49
-17.79
-9.61
-1.78
4.87
9.74
12.62
13.66
13.33
12.24
11.02
10.17
10.01
10.61
11.83
13.37
14.83
15.86
16.22
15.81
14.73
13.22
11.55
9.93
8.44
7.03
5.64
4.22
2.84
1.56
0.48
-0.40
-1.21
-2.08
-3.12
-4.38
-5.83
-7.38
-8.94
-10.45
-11.86
-13.14
-14.29
-15.35
-16.32
-17.11
-17.57
-17.45
-16.50
-14.51
-11.36
-7.07
-1.83
4.05
10.14
15.96
21.06
25.12
27.95
29.52
29.91
29.32
28.00
26.26
24.41
22.69
21.21
19.91
18.64
17.22
15.55
13.66
11.68
9.79
8.14
6.74
5.53
4.32
2.92
1.20
-0.89
-3.26
-5.76
-8.18
-10.35
-12.12
-13.35
-13.91
-13.68
-12.59
-10.66
-8.06
-5.10
-2.20
0.21
1.87
2.69
2.78
2.36
1.65
0.80
-0.11
-1.03
-1.86
-2.47
-2.74
-2.67
-2.42
-2.27
-2.46
-3.09
-4.06
-5.16
-6.13
-6.86
-7.38
-7.88
-8.59
-9.68
-11.21
-13.05
-14.91
-16.42
-17.21
-16.98
-15.64
-13.32
-10.32
-7.01
-3.78
-0.93
1.32
2.88
3.73
3.92
3.55
2.77
1.83
0.98
0.43
0.30
0.56
1.01
1.42
1.56
1.36
0.90
0.40
0.09
0.06
0.26
0.42
0.27
-0.42
-1.66
-3.23
-4.77
-5.89
-6.29
-5.85
-4.60
-2.66
-0.21
2.57
5.46
8.18
10.45
12.04
12.82
12.85
12.30
11.40
10.34
9.26
8.20
7.17
6.19
5.31
4.55
3.94
3.47
3.08
2.70
2.26
1.71
1.02
0.17
-0.87
-2.13
-3.67
-5.54
-7.69
-9.97
-12.08
-13.66
-14.35
-13.93
-12.37
-9.87
-6.78
-3.51
-0.46
2.11
4.07
5.44
6.29
6.70
6.76
6.52
6.07
5.58
5.29
5.43
6.13
7.30
8.69
9.96
10.87
11.35
11.48
11.47
11.49
11.66
12.02
12.54
13.14
13.69
14.03
13.94
13.31
12.17
10.78
9.63
9.29
10.21
12.61
16.36
21.07
26.17
31.01
35.06
37.95
39.52
39.83
39.08
37.49
35.29
32.67
29.82
27.03
24.64
23.06
22.54
23.10
24.47
26.13
27.54
28.33
28.42
28.05
27.59
27.36
27.47
27.80
28.12
28.30
28.46
29.11
30.97
34.88
41.38
50.37
60.92
71.44
80.13
85.67
87.78
87.39
86.31
86.49
89.33
95.31
104.02
114.64
126.44
138.92
151.83
164.86
177.62
189.63
200.52
210.10
218.17
224.32
227.70
227.20
221.75
210.81
194.48
173.43
148.62
121.25
92.88
65.67
42.32
25.36
16.16
13.92
15.36
15.59
9.62
-5.84
-31.23
-63.94
-99.39
-132.61
-160.19
-181.52
-198.86
-216.24
-237.27
-263.23
-292.11
-319.49
-340.50
-351.95
-353.49
-347.05
-335.36
-320.37
-302.76
-282.57
-260.44
-238.20
-218.49
-203.62
-194.24
-188.99
-185.11
-179.70
-171.01
-158.92
-144.60
-129.64
-115.14
-101.14
-86.86
-71.28
-53.84
-34.95
-15.90
1.69
16.59
28.34
37.20
43.74
48.38
51.30
52.78
53.51
54.54
56.70
59.85
62.58
62.61
57.86
47.51
32.42
14.76
-2.96
-18.81
-31.61
-40.72
-45.56
-45.66
-41.12
-33.26
-24.65
-18.48
-17.27
-21.61
-29.69
-37.76
-41.56
-37.95
-26.23
-8.39
11.68
29.88
43.61
52.97
60.86
71.68
89.26
114.69
145.10
174.23
194.51
200.02
188.80
163.57
130.21
95.37
63.70
36.68
13.01
-9.91
-34.53
-62.53
-94.70
-130.76
-168.76
-204.41
-231.32
-242.78
-234.37
-206.19
-163.40
-114.55
-68.48
-31.57
-6.61
6.59
9.30
2.15
-15.45
-44.65
-85.48
-135.27
-187.91
-234.76
-266.76
-277.26
-264.43
-231.62
-185.78
-134.47
-83.18
-34.33
11.85
55.38
95.03
128.23
152.29
165.59
168.32
161.97
148.21
128.06
101.85
69.75
32.78
-6.52
-44.17
-75.46
-96.21
-104.35
-101.22
-91.72
-82.91
-81.22
-89.25
-103.97
-117.60
-121.12
-109.18
-83.09
-50.38
-20.73
-0.83
8.56
11.72
13.92
17.16
18.57
12.68
-4.35
-31.32
-61.69
-86.48
-98.58
-96.07
-82.61
-65.22
-50.86
-43.62
-43.89
-49.27
-56.68
-64.31
-72.39
-82.40
-95.23
-109.51
-121.24
-125.19
-117.31
-96.77
-66.47
-31.67
2.31
32.02
56.61
77.16
95.46
112.91
130.09
147.04
163.83
181.18
200.73
224.44
253.48
286.71
319.94
346.49
358.95
351.76
323.06
275.08
213.10
143.83
74.25
11.17
-39.05
-71.23
-82.93
-75.93
-56.38
-33.05
-13.92
-3.03
0.71
2.09
6.46
16.47
30.56
43.87
50.48
46.17
30.00
4.25
-26.66
-57.89
-85.40
-106.59
-120.19
-125.87
-123.93
-115.21
-101.09
-83.30
-63.78
-44.24
-25.75
-8.64
7.30
22.37
36.54
49.21
59.34
65.83
67.93
65.58
59.57
51.52
43.60
37.99
36.21
38.61
44.21
51.15
57.37
61.36
62.48
60.84
56.87
50.96
43.36
34.32
24.44
14.68
6.14
-0.31
-4.33
-6.07
-5.80
-3.57
0.83
7.61
16.49
26.43
35.81
42.93
46.73
47.22
45.54
43.51
42.99
45.32
50.99
59.83
71.29
84.76
99.60
115.07
130.18
143.77
154.72
162.35
166.67
168.19
167.60
165.27
160.92
153.77
142.90
127.66
108.00
84.37
57.60
28.75
-0.94
-29.93
-56.46
-78.86
-95.90
-107.18
-113.16
-114.87
-113.43
-109.69
-104.23
-97.55
-90.35
-83.61
-78.35
-75.17
-73.93
-73.67
-72.97
-70.47
-65.51
-58.33
-49.98
-41.91
-35.43
-31.27
-29.45
-29.29
-29.71
-29.58
-27.99
-24.48
-19.13
-12.55
-5.61
0.79
6.08
10.17
13.42
16.32
19.25
22.15
24.69
26.31
26.52
24.92
21.10
14.62
5.06
-7.72
-23.35
-40.83
-58.73
-75.47
-89.76
-100.74
-107.94
-111.20
-110.44
-105.76
-97.61
-86.96
-75.29
-64.32
-55.52
-49.59
-46.25
-44.29
-42.09
-38.24
-32.03
-23.82
-14.93
-7.33
-3.10
-3.75
-9.75
-20.37
-33.86
-48.15
-61.56
-73.26
-83.20
-91.53
-97.91
-101.16
-99.65
-92.14
-78.75
-61.22
-42.37
-25.11
-11.58
-2.73
1.57
2.35
1.73
3.24
11.64
31.71
66.08
113.33
167.69
220.72
264.45
294.52
311.20
318.06
319.03
315.68
306.29
287.38
256.63
215.65
170.58
130.33
102.83
91.61
94.27
103.81
112.13
113.50
106.62
93.99
79.38
65.12
51.00
35.18
16.21
-5.30
-26.57
-44.01
-55.05
-59.29
-58.13
-53.65
-47.38
-39.76
-30.39
-18.88
-5.46
8.95
23.16
36.51
49.32
63.13
80.20
102.57
130.86
163.48
196.42
224.30
241.99
246.19
236.30
214.18
183.44
148.43
113.43
81.75
54.78
31.62
9.53
-14.37
-41.10
-68.63
-92.97
-110.76
-122.28
-132.56
-149.38
-179.43
-224.66
-281.13
-340.78
-394.93
-437.25
-464.77
-477.04
-474.63
-458.47
-430.06
-392.28
-349.80
-308.33
-273.30
-248.24
-233.83
-227.94
-226.58
-225.04
-219.27
-206.73
-186.79
-160.51
-129.91
-97.36
-64.98
-34.39
-6.75
17.14
36.74
51.71
62.09
68.35
71.48
72.92
74.42
77.63
83.81
93.35
105.60
118.80
130.36
137.47
138.01
131.45
119.26
104.62
91.42
82.95
80.63
83.47
88.37
91.17
88.07
76.79
57.32
31.77
3.68
-22.96
-44.79
-59.74
-67.38
-68.71
-65.67
-60.46
-54.97
-50.49
-47.58
-46.28
-46.23
-46.97
-47.93
-48.65
-48.79
-48.17
-46.90
-45.28
-43.65
-42.28
-41.17
-40.02
-38.40
-35.87
-32.31
-27.92
-23.22
-18.86
-15.35
-12.95
-11.56
-10.89
-10.60
-10.46
-10.40
-10.44
-10.54
-10.46
-9.76
-7.99
-4.85
-0.37
5.11
11.03
16.83
22.09
26.57
30.17
32.86
34.65
35.54
35.65
35.13
34.27
33.37
32.68
32.34
32.33
32.48
32.55
32.29
31.52
30.23
28.54
26.65
24.78
23.06
21.45
19.73
17.53
14.48
10.42
5.53
0.33
-4.36
-7.70
-9.08
-8.24
-5.32
-0.79
4.75
10.67
16.37
21.36
25.21
27.72
28.83
28.71
27.69
26.19
24.63
23.30
22.37
21.84
21.62
21.59
21.60
21.48
21.13
20.45
19.42
18.09
16.56
14.94
13.30
11.62
9.76
7.57
4.89
1.70
-1.83
-5.34
-8.33
-10.28
-10.74
-9.47
-6.54
-2.30
2.65
7.64
12.04
15.43
17.58
18.50
18.33
17.26
15.52
13.36
11.07
8.96
7.31
6.31
6.00
6.27
6.86
7.52
8.04
8.33
8.43
8.49
8.62
8.87
9.11
9.08
8.53
7.25
5.23
2.66
-0.09
-2.58
-4.40
-5.24
-4.94
-3.48
-1.02
2.21
5.91
9.74
13.37
16.50
18.85
20.21
20.44
19.53
17.67
15.21
12.58
10.20
8.35
7.11
6.38
5.94
5.60
5.21
4.73
4.13
3.45
2.67
1.78
0.74
-0.51
-2.02
-3.82
-5.91
-8.26
-10.68
-12.83
-14.25
-14.45
-13.08
-10.04
-5.59
-0.27
5.27
10.42
14.80
18.24
20.82
22.62
23.72
24.16
23.96
23.23
22.16
21.04
20.15
19.69
19.68
19.98
20.29
20.31
19.83
18.85
17.50
16.05
14.68
13.43
12.19
10.77
9.01
6.84
4.28
1.46
-1.41
-4.01
-5.98
-6.94
-6.67
-5.16
-2.62
0.56
4.00
7.33
10.31
12.70
14.32
15.04
14.86
13.93
12.54
11.03
9.62
8.43
7.51
6.87
6.52
6.51
6.81
7.26
7.63
7.70
7.34
6.58
5.57
4.48
3.42
2.38
1.23
-0.16
-1.89
-3.92
-6.11
-8.19
-9.84
-10.71
-10.55
-9.22
-6.82
-3.64
-0.08
3.39
6.38
8.64
10.05
10.63
10.43
9.54
8.11
6.39
4.68
3.33
2.63
2.67
3.33
4.35
5.39
6.16
6.49
6.35
5.83
5.02
4.02
2.90
1.70
0.48
-0.72
-1.90
-3.06
-4.25
-5.51
-6.77
-7.87
-8.57
-8.54
-7.54
-5.50
-2.55
0.98
4.63
7.97
10.67
12.53
13.49
13.61
13.01
11.88
10.46
8.99
7.70
6.81
6.42
6.53
6.99
7.51
7.82
7.68
7.00
5.87
4.48
3.03
1.64
0.32
-0.95
-2.25
-3.58
-4.91
-6.24
-7.62
-9.14
-10.87
-12.76
-14.53
-15.76
-15.97
-14.83
-12.32
-8.77
-4.80
-1.02
2.08
4.32
5.77
6.63
7.10
7.28
7.16
6.77
6.17
5.56
5.20
5.27
5.84
6.76
7.76
8.53
8.86
8.65
7.97
6.94
5.66
4.21
2.60
0.87
-0.95
-2.82
-4.68
-6.53
-8.35
-10.15
-11.89
-13.46
-14.61
-15.07
-14.52
-12.81
-9.98
-6.35
-2.49
1.04
3.78
5.58
6.51
6.81
6.70
6.33
5.75
5.03
4.29
3.74
3.55
3.78
4.33
4.99
5.57
5.98
6.24
6.44
6.61
6.70
6.60
6.18
5.40
4.32
3.05
1.76
0.56
-0.49
-1.35
-1.98
-2.28
-2.12
-1.31
0.29
2.77
6.04
9.82
13.71
17.22
19.88
21.36
21.54
20.50
18.48
15.77
12.64
9.17
5.45
1.47
-2.65
-6.74
-10.56
-13.92
-16.77
-19.11
-21.00
-22.43
-23.39
-23.86
-23.88
-23.56
-23.04
-22.45
-21.83
-21.23
-20.67
-20.21
-19.92
-19.79
-19.73
-19.54
-18.91
-17.54
-15.19
-11.75
-7.33
-2.22
3.13
8.23
12.66
16.19
18.79
20.56
21.72
22.50
23.10
23.67
24.28
25.00
25.83
26.81
27.96
29.33
30.87
32.41
33.66
34.23
33.82
32.28
29.70
26.36
22.56
18.59
14.61
10.66
6.76
2.93
-0.72
-4.05
-6.87
-8.98
-10.21
-10.53
-10.01
-8.88
-7.44
-6.00
-4.84
-4.17
-4.14
-4.80
-6.11
-7.85
-9.69
-11.23
-12.15
-12.33
-11.84
-10.91
-9.75
-8.54
-7.33
-6.16
-5.10
-4.23
-3.63
-3.37
-3.45
-3.89
-4.68
-5.84
-7.29
-8.93
-10.58
-12.06
-13.17
-13.76
-13.73
-12.97
-11.46
-9.24
-6.46
-3.42
-0.53
1.83
3.38
4.05
4.00
3.50
2.87
2.32
1.96
1.76
1.67
1.65
1.71
1.90
2.17
2.42
2.46
2.14
1.41
0.34
-0.88
-2.07
-3.14
-4.09
-5.00
-5.96
-6.98
-8.04
-9.08
-10.05
-10.88
-11.42
-11.46
-10.73
-9.08
-6.54
-3.39
-0.08
2.94
5.35
7.02
7.99
8.37
8.27
7.76
6.94
5.93
4.93
4.11
3.60
3.40
3.44
3.59
3.68
3.60
3.28
2.76
2.10
1.40
0.76
0.20
-0.31
-0.86
-1.58
-2.55
-3.79
-5.23
-6.73
-8.04
-8.91
-9.08
-8.39
-6.82
-4.50
-1.72
1.14
3.76
5.90
7.47
8.48
9.00
9.09
8.81
8.21
7.38
6.48
5.69
5.17
5.00
5.12
5.34
5.47
5.35
4.92
4.23
3.38
2.46
1.52
0.59
-0.29
-1.09
-1.81
-2.47
-3.15
-3.96
-5.05
-6.41
-7.98
-9.51
-10.67
-11.14
-10.69
-9.27
-7.01
-4.25
-1.37
1.29
3.45
5.00
5.92
6.24
6.05
5.49
4.75
4.06
3.65
3.65
4.07
4.76
5.48
5.96
6.03
5.63
4.86
3.88
2.79
1.67
0.52
-0.64
-1.77
-2.77
-3.55
-4.07
-4.41
-4.73
-5.21
-5.95
-6.90
-7.91
-8.73
-9.10
-8.84
-7.90
-6.37
-4.45
-2.43
-0.59
0.87
1.87
2.46
2.73
2.78
2.68
2.45
2.08
1.62
1.18
0.88
0.83
1.09
1.64
2.37
3.17
3.90
4.44
4.70
4.62
4.22
3.53
2.67
1.71
0.77
-0.10
-0.84
-1.46
-1.99
-2.51
-3.10
-3.81
-4.54
-5.12
-5.28
-4.82
-3.66
-1.93
0.08
2.05
3.72
4.98
5.84
6.35
6.53
6.39
5.86
5.00
3.92
2.83
1.97
1.50
1.44
1.67
2.04
2.39
2.66
2.83
2.92
2.96
2.93
2.83
2.64
2.34
1.88
1.23
0.33
-0.83
-2.24
-3.84
-5.49
-7.03
-8.28
-9.02
-9.12
-8.57
-7.46
-5.96
-4.30
-2.63
-1.03
0.45
1.78
2.87
3.62
3.95
3.85
3.42
2.86
2.39
2.19
2.30
2.64
3.02
3.22
3.09
2.57
1.76
0.84
0.02
-0.57
-0.90
-1.07
-1.25
-1.57
-2.12
-2.83
-3.60
-4.29
-4.75
-4.86
-4.52
-3.63
-2.14
-0.13
2.19
4.54
6.55
7.99
8.71
8.76
8.26
7.38
6.26
5.02
3.80
2.73
1.95
1.51
1.32
1.19
0.87
0.21
-0.81
-1.99
-3.07
-3.84
-4.24
-4.36
-4.42
-4.63
-5.06
-5.70
-6.40
-7.04
-7.50
-7.66
-7.43
-6.69
-5.36
-3.44
-1.06
1.53
4.00
6.07
7.52
8.22
8.14
7.33
5.91
4.06
2.02
0.08
-1.52
-2.65
-3.25
-3.39
-3.23
-2.94
-2.72
-2.70
-2.97
-3.50
-4.21
-5.00
-5.76
-6.45
-7.10
-7.76
-8.50
-9.34
-10.26
-11.11
-11.68
-11.70
-10.89
-9.11
-6.39
-3.02
0.52
3.79
6.44
8.45
10.03
11.53
13.27
15.40
17.83
20.36
22.72
24.74
26.37
27.81
29.46
31.83
35.46
40.62
47.26
54.87
62.52
69.17
73.82
75.85
75.01
71.46
65.61
58.06
49.38
40.15
30.85
21.87
13.54
6.07
-0.37
-5.74
-10.11
-13.73
-16.97
-20.25
-23.91
-28.06
-32.51
-36.84
-40.54
-43.25
-44.86
-45.51
-45.49
-45.08
-44.39
-43.40
-42.04
-40.31
-38.31
-36.25
-34.30
-32.54
-30.96
-29.45
-27.96
-26.52
-25.23
-24.23
-23.65
-23.44
-23.42
-23.26
-22.59
-21.09
-18.65
-15.36
-11.53
-7.54
-3.70
-0.23
2.83
5.45
7.63
9.30
10.38
10.86
10.77
10.24
9.45
8.59
7.83
7.37
7.37
7.94
9.01
10.35
11.49
11.88
10.98
8.44
4.21
-1.50
-8.22
-15.33
-22.17
-28.07
-32.53
-35.16
-35.84
-34.64
-31.82
-27.84
-23.22
-18.54
-14.31
-10.88
-8.39
-6.73
-5.64
-4.82
-3.99
-3.06
-2.04
-1.02
-0.09
0.71
1.39
1.95
2.40
2.72
2.89
2.94
2.90
2.83
2.72
2.57
2.34
2.02
1.65
1.32
1.07
0.89
0.69
0.34
-0.22
-1.01
-2.00
-3.12
-4.29
-5.40
-6.30
-6.75
-6.55
-5.57
-3.90
-1.84
0.18
1.77
2.66
2.83
2.38
1.53
0.44
-0.74
-1.87
-2.81
-3.38
-3.42
-2.90
-1.93
-0.75
0.35
1.16
1.57
1.62
1.36
0.84
0.02
-1.13
-2.61
-4.24
-5.80
-7.09
-8.02
-8.67
-9.21
-9.82
-10.52
-11.22
-11.71
-11.75
-11.16
-9.90
-8.03
-5.72
-3.17
-0.64
1.69
3.67
5.24
6.35
6.99
7.15
6.86
6.22
5.39
4.57
3.98
3.74
3.91
4.44
5.19
6.02
6.80
7.43
7.83
7.98
7.82
7.34
6.54
5.49
4.33
3.14
2.01
0.89
-0.31
-1.66
-3.18
-4.76
-6.20
-7.31
-7.93
-7.94
-7.31
-6.04
-4.18
-1.85
0.74
3.34
5.69
7.62
9.08
10.14
10.86
11.32
11.53
11.48
11.20
10.80
10.44
10.31
10.47
10.88
11.40
11.86
12.11
12.08
11.75
11.12
10.19
8.99
7.60
6.17
4.87
3.82
3.04
2.44
1.88
1.19
0.28
-0.91
-2.40
-4.21
-6.28
-8.51
-10.66
-12.41
-13.47
-13.62
-12.83
-11.22
-9.06
-6.63
-4.20
-1.89
0.27
2.32
4.35
6.35
8.28
10.04
11.55
12.79
13.82
14.75
15.69
16.71
17.80
18.99
20.32
21.85
23.62
25.62
27.68
29.63
31.28
32.56
33.53
34.31
35.05
35.76
36.28
36.35
35.60
33.79
30.77
26.60
21.49
15.80
9.94
4.36
-0.54
-4.51
-7.43
-9.43
-10.79
-11.94
-13.23
-14.91
-17.04
-19.57
-22.38
-25.35
-28.37
-31.26
-33.75
-35.48
-36.13
-35.57
-33.92
-31.58
-29.04
-26.71
-24.76
-23.12
-21.60
-20.02
-18.33
-16.60
-14.97
-13.48
-12.06
-10.55
-8.82
-6.86
-4.77
-2.77
-1.06
0.23
1.07
1.51
1.68
1.73
1.79
1.95
2.23
2.57
2.85
2.93
2.76
2.30
1.62
0.76
-0.24
-1.44
-2.87
-4.58
-6.55
-8.72
-11.00
-13.29
-15.48
-17.45
-19.02
-20.02
-20.27
-19.75
-18.55
-16.95
-15.27
-13.78
-12.59
-11.66
-10.81
-9.87
-8.76
-7.51
-6.24
-5.08
-4.14
-3.43
-2.86
-2.26
-1.43
-0.20
1.48
3.46
5.46
7.18
8.41
9.11
9.41
9.53
9.60
9.64
9.56
9.24
8.65
7.84
6.98
6.20
5.58
5.06
4.51
3.82
2.95
1.94
0.88
-0.14
-1.09
-1.98
-2.86
-3.69
-4.43
-4.99
-5.34
-5.54
-5.73
-6.03
-6.47
-6.95
-7.23
-7.09
-6.39
-5.12
-3.37
-1.32
0.84
2.98
4.93
6.58
7.86
8.72
9.19
9.31
9.13
8.69
8.08
7.40
6.83
6.49
6.43
6.57
6.70
6.63
6.25
5.61
4.81
4.01
3.25
2.50
1.70
0.81
-0.18
-1.26
-2.46
-3.86
-5.57
-7.63
-9.97
-12.33
-14.36
-15.69
-16.09
-15.49
-14.05
-12.05
-9.79
-7.56
-5.55
-3.85
-2.50
-1.54
-0.97
-0.73
-0.72
-0.77
-0.68
-0.30
0.45
1.54
2.87
4.26
5.52
6.48
7.04
7.18
6.95
6.49
5.90
5.29
4.70
4.12
3.48
2.71
1.77
0.68
-0.48
-1.59
-2.44
-2.87
-2.74
-2.06
-0.91
0.48
1.83
2.92
3.56
3.71
3.43
2.85
2.13
1.41
0.81
0.41
0.27
0.34
0.58
0.89
1.20
1.46
1.64
1.75
1.78
1.72
1.56
1.36
1.16
1.04
1.02
1.03
0.95
0.60
-0.14
-1.27
-2.68
-4.12
-5.26
-5.86
-5.75
-4.95
-3.64
-2.09
-0.59
0.64
1.50
2.02
2.31
2.44
2.44
2.32
2.05
1.70
1.41
1.40
1.85
2.80
4.11
5.49
6.62
7.30
7.57
7.64
7.80
8.27
9.07
10.05
11.00
11.78
12.38
12.96
13.69
14.78
16.30
18.28
20.73
23.67
27.16
31.25
36.00
41.39
47.40
53.93
60.83
67.89
74.81
81.35
87.38
93.00
98.59
104.72
112.02
120.93
131.53
143.39
155.60
166.84
175.58
180.36
180.15
174.63
164.27
150.15
133.64
115.92
97.72
79.29
60.67
41.93
23.39
5.51
-11.24
-26.66
-40.77
-53.73
-65.66
-76.60
-86.57
-95.66
-104.07
-111.91
-119.04
-124.87
-128.52
-129.11
-126.13
-119.76
-110.82
-100.58
-90.42
-81.44
-74.22
-68.76
-64.42
-60.26
-55.41
-49.35
-42.18
-34.48
-26.97
-20.08
-13.79
-7.68
-1.28
5.57
12.65
19.38
25.18
29.54
32.12
32.70
31.31
28.30
24.22
19.45
13.52
5.06
-7.70
-25.73
-48.03
-71.50
-91.80
-105.28
-110.40
-108.39
-102.31
-95.57
-90.54
-87.97
-87.35
-87.44
-86.72
-83.55
-76.32
-63.79
-45.79
-23.55
0.56
23.79
44.13
61.04
75.51
89.42
104.55
121.70
140.26
158.53
174.35
185.95
192.47
194.16
192.01
187.34
181.38
174.95
168.47
161.85
154.38
144.67
130.98
111.79
86.54
56.08
22.47
-11.73
-44.35
-74.17
-100.91
-124.90
-146.74
-167.05
-186.60
-206.38
-227.40
-250.41
-275.40
-301.31
-326.20
-347.57
-363.16
-371.50
-372.22
-365.76
-352.96
-334.22
-309.14
-276.55
-234.81
-182.44
-118.52
-43.15
42.19
134.10
227.10
314.02
387.42
441.55
473.91
485.80
481.20
464.64
439.44
407.13
368.40
324.77
279.54
237.30
202.02
174.89
153.10
130.54
100.02
56.02
-3.56
-77.14
-160.28
-247.11
-331.44
-407.35
-469.53
-513.83
-538.14
-543.21
-532.90
-513.31
-490.83
-470.09
-452.61
-436.97
-420.46
-400.97
-378.22
-353.59
-328.90
-304.87
-280.57
-253.92
-223.11
-187.82
-149.59
-110.96
-74.15
-40.23
-9.09
19.91
47.01
71.71
93.05
110.23
123.23
132.86
140.55
147.71
155.29
163.49
171.80
179.23
184.69
187.45
187.28
184.62
180.30
175.24
170.13
165.20
160.23
154.84
148.70
141.78
134.28
126.51
118.71
110.89
102.94
94.62
85.79
76.43
66.67
56.69
46.67
36.74
26.98
17.49
8.46
0.17
-6.97
-12.44
-15.67
-16.16
-13.66
-8.32
-0.86
7.69
16.20
23.79
30.07
35.07
39.04
42.22
44.64
46.25
47.07
47.47
48.13
49.90
53.45
59.05
66.45
74.86
83.07
89.87
94.45
96.65
96.99
96.41
95.80
95.79
96.18
95.90
93.66
88.43
79.91
68.67
55.84
42.87
31.36
22.42
16.26
12.77
11.62
12.40
14.65
17.69
20.67
23.08
23.94
21.68
14.94
2.73
-15.30
-38.79
-66.99
-98.74
-132.12
-162.29
-184.76
-195.80
-193.88
-180.18
-157.99
-131.45
-107.84
-88.59
-73.21
-61.07
-51.60
-44.43
-39.35
-34.75
-30.00
-24.86
-18.74
-11.79
-4.68
1.94
7.54
11.75
14.34
15.05
13.92
11.72
9.02
6.09
3.14
0.43
-1.70
-2.68
-2.06
0.53
5.29
11.46
17.48
21.69
22.92
21.06
17.19
13.04
10.44
10.74
14.15
19.91
26.78
33.53
39.14
42.82
43.67
40.75
33.35
21.37
5.79
-11.30
-27.21
-39.34
-45.96
-46.53
-41.56
-32.17
-19.67
-5.36
9.41
23.22
34.71
42.88
47.47
49.04
48.72
47.75
46.95
46.49
45.99
44.75
42.04
37.22
29.86
19.83
7.40
-6.62
-20.94
-34.06
-44.83
-52.83
-58.48
-62.80
-66.74
-70.75
-74.57
-77.47
-78.72
-77.96
-75.34
-71.25
-65.99
-59.46
-51.20
-40.57
-27.08
-10.64
8.24
28.48
48.50
66.50
80.81
90.26
94.54
94.28
90.82
85.78
80.55
75.98
72.25
69.08
66.02
62.67
58.83
54.37
49.27
43.62
37.79
32.50
28.73
27.46
29.23
33.83
40.38
47.60
54.27
59.66
63.56
66.13
67.54
67.79
66.71
64.19
60.38
55.72
50.82
46.20
42.07
38.37
34.84
31.34
27.93
24.85
22.35
20.51
19.15
17.95
16.65
15.18
13.71
12.54
11.93
11.98
12.60
13.65
14.99
16.63
18.69
21.35
24.71
28.78
33.41
38.32
43.15
47.45
50.84
53.02
53.97
54.01
53.79
54.10
55.63
58.67
62.93
67.62
71.71
74.29
74.82
73.19
69.63
64.46
57.93
50.19
41.45
32.11
22.79
14.25
7.07
1.53
-2.50
-5.46
-7.84
-9.99
-12.06
-14.09
-16.05
-18.06
-20.27
-22.84
-25.85
-29.30
-33.17
-37.50
-42.41
-48.03
-54.34
-61.09
-67.79
-73.84
-78.68
-81.83
-82.87
-81.43
-77.25
-70.37
-61.40
-51.57
-42.54
-35.89
-32.58
-32.57
-34.94
-38.33
-41.51
-43.89
-45.56
-47.09
-49.12
-52.06
-55.97
-60.68
-65.84
-71.05
-75.85
-79.65
-81.81
-81.74
-79.09
-73.91
-66.72
-58.46
-50.18
-42.86
-37.10
-33.06
-30.44
-28.71
-27.32
-25.85
-24.14
-22.22
-20.25
-18.39
-16.79
-15.54
-14.67
-14.19
-14.01
-14.00
-13.99
-13.91
-13.74
-13.53
-13.40
-13.43
-13.60
-13.77
-13.64
-12.86
-11.06
-7.98
-3.61
1.80
7.81
13.79
19.17
23.52
26.61
28.42
29.09
28.83
27.89
26.53
24.99
23.48
22.22
21.33
20.86
20.78
20.95
21.22
21.42
21.39
20.99
20.09
18.64
16.63
14.17
11.38
8.42
5.40
2.38
-0.54
-3.28
-5.70
-7.63
-8.98
-9.68
-9.81
-9.57
-9.27
-9.29
-10.03
-11.77
-14.49
-17.84
-21.14
-23.51
-24.22
-22.86
-19.50
-14.62
-8.92
-3.05
2.46
7.33
11.42
14.62
16.82
17.96
18.04
17.22
15.82
14.20
12.71
11.57
10.76
10.16
9.50
8.61
7.44
6.10
4.82
3.85
3.29
3.08
3.02
2.87
2.49
1.92
1.32
0.88
0.71
0.80
1.04
1.32
1.58
1.79
1.93
1.89
1.58
1.02
0.50
0.65
2.28
6.06
12.22
20.31
29.26
37.69
44.41
48.80
51.01
51.86
52.46
53.77
56.18
59.39
62.61
64.89
65.72
65.26
64.44
64.67
67.15
72.30
79.29
86.24
90.81
91.23
86.95
79.22
70.70
64.35
61.91
62.74
63.54
59.08
44.11
15.16
-27.10
-77.18
-125.53
-160.81
-173.57
-159.74
-123.10
-75.25
-33.74
-15.92
-32.87
-85.06
-161.67
-244.03
-311.89
-350.06
-352.79
-326.23
-284.32
-244.01
-220.11
-221.24
-248.08
-294.12
-348.34
-398.77
-437.99
-463.11
-475.70
-480.14
-481.38
-483.32
-488.41
-497.97
-499.02
-480.38
-432.87
-352.77
-243.93
-116.50
16.63
143.50
255.13
346.23
412.89
454.39
472.92
473.12
461.22
443.57
425.12
408.66
394.85
381.51
366.35
347.94
326.27
302.74
279.51
258.56
241.11
227.40
216.11
205.76
195.14
183.57
171.03
158.05
145.40
133.89
124.17
116.34
110.29
105.46
100.85
95.21
87.36
76.54
62.70
46.60
29.19
11.39
-6.21
-23.83
-42.18
-62.03
-83.81
-106.73
-130.86
-155.69
-179.50
-198.96
-209.43
-206.51
-188.11
-156.28
-117.09
-78.71
-47.94
-27.77
-16.84
-11.15
-6.62
-1.19
5.11
11.11
15.91
19.98
24.68
31.13
39.17
47.35
53.59
55.98
53.85
48.05
40.85
34.80
31.72
31.85
33.83
35.36
34.06
28.50
18.73
6.41
-6.17
-16.95
-25.14
-31.77
-38.13
-45.56
-54.40
-63.87
-71.92
-76.00
-74.00
-65.27
-50.42
-30.85
-8.75
11.77
25.46
26.82
12.32
-16.82
-53.97
-89.03
-112.33
-118.21
-108.98
-91.46
-73.82
-61.70
-55.89
-53.61
-51.26
-46.81
-39.78
-33.21
-28.20
-23.92
-20.34
-15.92
-9.31
-0.17
11.28
26.74
46.36
72.18
104.79
141.25
175.04
197.80
202.23
176.74
133.66
76.02
9.85
-58.89
-124.52
-180.87
-220.78
-238.59
-232.47
-204.65
-164.72
-122.25
-84.58
-54.76
-31.52
-9.79
15.30
46.33
83.83
123.83
162.41
196.02
222.27
240.56
254.58
269.40
290.42
322.22
365.57
419.45
481.14
547.52
600.80
626.86
616.89
570.89
497.88
410.94
323.12
243.51
175.70
117.78
65.86
14.34
-41.22
-101.55
-163.24
-219.60
-263.85
-292.35
-306.23
-308.43
-302.88
-292.33
-277.87
-260.01
-239.87
-219.74
-202.48
-190.28
-182.53
-176.87
-170.25
-160.22
-146.25
-129.71
-113.07
-98.82
-88.51
-81.75
-76.93
-71.96
-65.21
-56.21
-45.65
-34.93
-25.50
-18.25
-13.09
-9.22
-5.61
-1.45
3.47
8.73
13.55
17.10
18.85
18.59
16.64
13.51
9.71
5.65
1.61
-2.30
-6.01
-9.42
-12.36
-14.66
-16.24
-17.04
-17.07
-16.31
-14.81
-12.53
-9.43
-5.40
-0.36
5.52
12.02
18.86
25.73
32.33
38.38
43.69
48.22
52.05
55.05
57.27
58.91
60.27
61.70
63.56
66.19
69.86
74.83
80.64
86.95
93.44
99.90
106.22
112.44
118.68
125.12
131.97
138.61
144.53
149.28
152.48
153.78
152.83
148.95
140.71
131.15
120.71
109.34
96.80
83.02
68.28
53.18
38.50
24.94
12.87
1.49
-10.03
-22.29
-35.39
-48.63
-60.73
-70.16
-75.79
-77.00
-74.62
-69.85
-63.98
-58.24
-53.84
-51.88
-53.02
-56.78
-61.15
-63.29
-60.32
-50.90
-36.32
-20.15
-6.86
0.23
0.07
-6.02
-15.82
-27.38
-39.74
-52.88
-66.84
-81.20
-95.12
-107.83
-119.32
-130.64
-143.46
-159.33
-178.91
-201.11
-223.30
-241.89
-253.60
-256.65
-251.45
-240.30
-226.22
-211.61
-197.32
-182.64
-166.15
-146.85
-124.89
-101.60
-78.92
-58.54
-41.37
-27.48
-16.38
-7.47
-0.34
5.14
9.05
11.59
13.21
14.60
16.46
19.31
23.19
27.70
32.12
35.68
37.86
38.47
37.73
36.03
33.75
31.04
27.78
23.73
18.80
13.22
7.54
2.44
-1.55
-4.35
-6.36
-8.22
-10.60
-13.90
-18.07
-22.73
-27.21
-30.81
-32.76
-32.43
-29.38
-23.57
-15.46
-5.90
3.94
12.91
20.15
25.26
28.25
29.39
29.11
27.87
26.14
24.41
23.11
22.54
22.83
23.82
25.15
26.42
27.25
27.41
26.80
25.45
23.36
20.59
17.19
13.25
8.94
4.45
0.01
-4.20
-8.01
-11.39
-14.34
-17.03
-19.66
-22.50
-25.80
-29.61
-33.80
-37.92
-41.22
-42.86
-42.08
-38.51
-32.34
-24.36
-15.68
-7.46
-0.52
4.79
8.49
10.87
12.25
12.97
13.33
13.71
14.54
16.12
18.50
21.44
24.47
27.08
28.90
29.81
29.92
29.43
28.46
27.06
25.11
22.53
19.31
15.61
11.70
7.94
4.63
1.89
-0.34
-2.37
-4.61
-7.51
-11.37
-16.18
-21.53
-26.63
-30.49
-32.10
-30.80
-26.41
-19.33
-10.45
-0.93
8.05
15.57
21.10
24.55
26.19
26.40
25.62
24.22
22.50
20.74
19.23
18.24
17.88
18.09
18.57
18.93
18.86
18.23
17.12
15.82
14.60
13.59
12.79
12.00
10.97
9.54
7.66
5.39
2.91
0.33
-2.24
-4.76
-7.26
-9.75
-12.29
-14.99
-17.95
-21.31
-25.14
-29.28
-33.23
-36.20
-37.28
-35.68
-31.07
-23.76
-14.61
-4.79
4.60
12.80
19.49
24.73
28.77
31.82
34.08
35.67
36.70
37.30
37.58
37.62
37.51
37.28
36.98
36.64
36.31
36.06
35.91
35.83
35.76
35.55
35.06
34.11
32.53
30.18
26.91
22.73
17.78
12.36
6.83
1.55
-3.26
-7.60
-11.58
-15.47
-19.50
-23.83
-28.51
-33.40
-38.05
-41.75
-43.70
-43.09
-39.51
-33.07
-24.51
-14.93
-5.57
2.59
8.98
13.46
16.27
17.71
18.06
17.51
16.28
14.59
12.75
11.13
9.97
9.48
9.66
10.43
11.59
12.93
14.11
14.86
14.91
14.11
12.47
10.13
7.27
4.10
0.75
-2.62
-5.89
-8.87
-11.43
-13.54
-15.28
-16.85
-18.48
-20.39
-22.67
-25.37
-28.51
-31.98
-35.53
-38.65
-40.62
-40.60
-38.03
-32.82
-25.47
-17.00
-8.56
-1.07
5.09
9.96
13.93
17.33
20.32
22.87
24.91
26.42
27.50
28.31
29.05
29.82
30.59
31.23
31.51
31.14
29.90
27.66
24.49
20.71
16.72
12.92
9.53
6.64
4.19
2.13
0.36
-1.22
-2.79
-4.61
-6.87
-9.65
-12.77
-15.90
-18.71
-21.01
-22.92
-24.73
-26.83
-29.43
-32.39
-35.19
-37.05
-37.12
-34.83
-30.10
-23.37
-15.53
-7.57
-0.39
5.46
9.76
12.49
13.77
13.73
12.60
10.69
8.43
6.30
4.69
3.77
3.47
3.53
3.62
3.49
2.97
2.07
0.90
-0.37
-1.51
-2.33
-2.72
-2.76
-2.67
-2.78
-3.35
-4.51
-6.27
-8.47
-10.99
-13.72
-16.69
-19.97
-23.63
-27.66
-31.92
-36.08
-39.59
-41.69
-41.61
-38.76
-32.99
-24.72
-14.84
-4.45
5.43
14.03
20.94
26.02
29.28
30.85
30.94
29.97
28.47
27.06
26.26
26.39
27.44
29.14
30.97
32.37
32.77
31.87
29.67
26.54
23.03
19.75
16.99
14.68
12.44
9.81
6.51
2.58
-1.68
-5.89
-9.79
-13.29
-16.48
-19.44
-22.27
-25.01
-27.78
-30.73
-33.97
-37.42
-40.65
-42.92
-43.38
-41.39
-36.74
-29.87
-21.72
-13.44
-6.10
-0.34
3.65
6.04
7.22
7.57
7.39
6.87
6.19
5.56
5.25
5.47
6.32
7.69
9.28
10.73
11.76
12.24
12.22
11.84
11.24
10.49
9.58
8.40
6.86
4.93
2.68
0.28
-2.08
-4.22
-6.07
-7.64
-9.15
-10.82
-12.90
-15.56
-18.80
-22.45
-26.09
-29.11
-30.73
-30.23
-27.11
-21.31
-13.35
-4.25
4.79
12.61
18.44
22.04
23.62
23.68
22.73
21.26
19.66
18.27
17.43
17.42
18.36
20.09
22.21
24.10
25.22
25.27
24.24
22.36
20.02
17.49
14.94
12.35
9.61
6.59
3.24
-0.34
-3.98
-7.39
-10.37
-12.80
-14.74
-16.32
-17.76
-19.32
-21.25
-23.68
-26.56
-29.59
-32.14
-33.44
-32.81
-29.90
-24.92
-18.51
-11.60
-5.09
0.32
4.21
6.43
7.02
6.25
4.61
2.79
1.51
1.36
2.64
5.22
8.66
12.34
15.66
18.20
19.78
20.41
20.25
19.49
18.31
16.81
15.00
12.85
10.35
7.51
4.44
1.28
-1.84
-4.87
-7.91
-11.11
-14.69
-18.68
-22.84
-26.63
-29.25
-29.93
-28.12
-23.74
-17.27
-9.59
-1.78
5.22
10.77
14.64
16.91
17.83
17.70
16.78
15.36
13.76
12.34
11.42
11.18
11.58
12.36
13.10
13.41
13.05
11.97
10.33
8.34
6.18
3.99
1.77
-0.46
-2.69
-4.90
-7.06
-9.26
-11.57
-14.13
-17.02
-20.26
-23.74
-27.24
-30.31
-32.29
-32.44
-30.16
-25.26
-18.15
-9.83
-1.58
5.41
10.37
13.22
14.30
14.27
13.64
12.78
11.89
11.14
10.74
10.92
11.82
13.31
15.08
16.68
17.78
18.27
18.18
17.63
16.60
14.90
12.31
8.73
4.33
-0.47
-5.20
-9.43
-13.01
-16.07
-18.93
-21.86
-24.92
-27.84
-29.99
-30.61
-29.09
-25.21
-19.34
-12.32
-5.18
1.15
6.13
9.64
11.83
12.94
13.17
12.72
11.87
11.03
10.70
11.26
12.85
15.21
17.85
20.20
21.79
22.35
21.87
20.48
18.35
15.71
12.76
9.69
6.63
3.68
0.86
-1.86
-4.59
-7.46
-10.62
-14.19
-18.13
-22.13
-25.62
-27.80
-27.87
-25.26
-19.89
-12.27
-3.38
5.57
13.44
19.48
23.42
25.39
25.75
24.99
23.55
21.84
20.29
19.32
19.24
20.16
21.86
23.86
25.55
26.44
26.29
25.21
23.50
21.51
19.43
17.26
14.88
12.12
8.97
5.57
2.19
-0.95
-3.77
-6.41
-9.26
-12.69
-16.87
-21.52
-25.90
-28.91
-29.51
-27.04
-21.52
-13.69
-4.81
3.70
10.63
15.23
17.38
17.45
16.19
14.55
13.34
13.11
13.94
15.47
17.01
17.85
17.50
15.87
13.34
10.52
8.04
6.24
5.15
4.48
3.81
2.78
1.24
-0.72
-2.89
-5.02
-6.95
-8.68
-10.33
-12.11
-14.29
-17.06
-20.39
-24.07
-27.51
-29.99
-30.70
-29.04
-24.85
-18.40
-10.45
-1.96
6.05
12.78
17.76
20.80
22.11
22.06
21.19
20.07
19.20
18.93
19.36
20.35
21.53
22.45
22.78
22.35
21.25
19.68
17.84
15.84
13.70
11.35
8.76
5.98
3.10
0.26
-2.45
-5.01
-7.44
-9.88
-12.49
-15.43
-18.72
-22.10
-24.99
-26.59
-26.12
-23.14
-17.75
-10.63
-2.85
4.46
10.40
14.54
16.87
17.67
17.38
16.43
15.24
14.23
13.85
14.52
16.49
19.73
23.83
28.12
31.81
34.25
35.13
34.49
32.68
30.12
27.16
23.94
20.42
16.48
11.99
7.02
1.74
-3.55
-8.52
-12.94
-16.70
-19.86
-22.62
-25.32
-28.35
-32.00
-36.32
-41.00
-45.37
-48.56
-49.71
-48.23
-43.98
-37.33
-29.01
-19.95
-11.04
-2.98
3.81
9.15
13.06
15.69
17.27
18.00
18.14
17.92
17.59
17.38
17.44
17.79
18.34
18.88
19.14
18.89
17.98
16.41
14.26
11.68
8.76
5.58
2.20
-1.39
-5.10
-8.92
-12.81
-16.83
-20.97
-25.20
-29.36
-33.19
-36.45
-39.04
-41.10
-43.02
-45.38
-48.70
-53.16
-58.49
-63.82
-67.86
-69.21
-66.78
-60.20
-50.02
-37.51
-24.33
-11.95
-1.24
7.63
15.21
22.44
30.24
39.11
48.95
59.06
68.43
76.10
81.48
84.56
85.76
85.63
84.60
82.88
80.45
77.32
73.66
69.77
65.93
62.24
58.56
54.61
50.15
45.10
39.68
34.34
29.59
25.80
23.09
21.15
19.50
17.65
15.27
12.33
9.00
5.47
1.84
-1.93
-6.02
-10.51
-15.39
-20.47
-25.48
-30.02
-33.64
-35.83
-36.07
-33.98
-29.43
-22.75
-14.64
-6.12
1.67
7.73
11.39
12.42
11.04
7.89
3.84
-0.28
-3.77
-6.25
-7.69
-8.28
-8.37
-8.31
-8.35
-8.66
-9.26
-10.06
-10.94
-11.71
-12.22
-12.37
-12.12
-11.52
-10.71
-9.87
-9.12
-8.50
-8.01
-7.62
-7.41
-7.54
-8.24
-9.64
-11.69
-14.09
-16.46
-18.43
-19.77
-20.53
-20.92
-21.29
-22.01
-23.38
-25.54
-28.37
-31.49
-34.24
-35.89
-35.73
-33.41
-28.95
-22.87
-16.00
-9.24
-3.28
1.51
5.06
7.57
9.28
10.35
10.92
11.12
11.22
11.58
12.50
14.09
16.18
18.38
20.22
21.38
21.72
21.26
20.13
18.53
16.68
14.83
13.23
11.98
11.03
10.14
9.00
7.44
5.48
3.33
1.22
-0.71
-2.59
-4.64
-7.12
-10.18
-13.84
-18.03
-22.64
-27.44
-32.05
-35.87
-38.16
-38.27
-35.87
-31.18
-24.85
-17.84
-11.05
-5.18
-0.60
2.63
4.60
5.50
5.50
4.82
3.72
2.49
1.47
0.92
1.05
1.88
3.24
4.84
6.35
7.48
8.05
7.97
7.23
5.93
4.26
2.50
1.02
0.07
-0.26
-0.20
-0.15
-0.61
-1.87
-3.91
-6.41
-8.96
-11.23
-13.16
-14.92
-16.81
-19.12
-21.97
-25.18
-28.35
-30.82
-31.91
-30.99
-27.77
-22.36
-15.34
-7.66
-0.28
6.00
10.73
13.82
15.40
15.71
15.00
13.60
11.83
10.11
8.81
8.19
8.34
9.19
10.54
12.11
13.62
14.81
15.43
15.34
14.54
13.13
11.27
9.19
7.04
4.94
2.94
1.04
-0.81
-2.73
-4.88
-7.38
-10.19
-13.11
-15.77
-17.75
-18.84
-19.11
-18.97
-19.08
-20.03
-22.10
-25.11
-28.41
-30.97
-31.79
-30.09
-25.68
-18.98
-10.97
-2.80
4.45
10.13
14.10
16.54
17.84
18.32
18.16
17.45
16.34
15.05
13.93
13.31
13.33
14.00
15.03
16.09
16.86
17.11
16.78
15.98
14.91
13.71
12.51
11.28
9.94
8.39
6.62
4.64
2.50
0.27
-2.01
-4.30
-6.54
-8.67
-10.62
-12.43
-14.23
-16.24
-18.70
-21.70
-25.05
-28.22
-30.44
-30.95
-29.21
-25.17
-19.27
-12.36
-5.40
0.75
5.51
8.63
10.14
10.21
9.17
7.47
5.59
4.04
3.24
3.44
4.64
6.65
9.11
11.60
13.74
15.16
15.65
15.14
13.76
11.74
9.43
7.09
4.84
2.69
0.58
-1.53
-3.58
-5.44
-7.03
-8.33
-9.49
-10.70
-12.17
-14.02
-16.30
-18.98
-21.99
-25.11
-27.96
-30.03
-30.72
-29.63
-26.68
-22.24
-16.99
-11.77
-7.29
-3.98
-1.99
-1.21
-1.38
-2.20
-3.30
-4.36
-4.99
-4.86
-3.73
-1.51
1.64
5.34
9.05
12.21
14.48
15.82
16.43
16.63
16.66
16.58
16.24
15.41
13.94
11.85
9.29
6.49
3.69
0.99
-1.55
-3.99
-6.44
-9.02
-11.88
-15.17
-18.95
-23.07
-27.12
-30.43
-32.25
-32.00
-29.50
-25.08
-19.49
-13.66
-8.42
-4.32
-1.63
-0.32
-0.25
-1.15
-2.64
-4.29
-5.59
-6.14
-5.72
-4.38
-2.40
-0.21
1.74
3.13
3.81
3.85
3.42
2.72
1.86
0.86
-0.38
-1.96
-3.89
-6.03
-8.11
-9.83
-11.06
-11.84
-12.44
-13.24
-14.57
-16.58
-19.17
-21.92
-24.17
-25.17
-24.21
-20.85
-15.09
-7.38
1.45
10.44
18.71
25.64
30.94
34.58
36.71
37.57
37.53
37.02
36.52
36.46
37.07
38.38
40.13
41.96
43.51
44.60
45.28
45.76
46.25
46.78
47.20
47.22
46.57
45.21
43.38
41.51
40.02
39.15
38.73
38.31
37.31
35.22
31.80
27.19
21.82
16.40
11.77
8.93
8.84
12.27
19.23
28.58
37.98
44.69
46.66
43.49
36.50
27.97
19.83
12.67
5.83
-1.59
-9.62
-16.99
-21.87
-23.24
-21.84
-19.99
-20.32
-24.17
-30.78
-37.93
-43.29
-45.78
-45.97
-45.37
-45.32
-46.01
-46.48
-45.43
-42.22
-37.36
-32.12
-27.70
-24.40
-21.47
-17.78
-12.74
-7.15
-3.20
-3.67
-10.58
-24.17
-42.44
-61.73
-77.91
-87.77
-90.03
-85.64
-77.32
-68.62
-62.68
-61.36
-64.72
-71.32
-78.60
-83.81
-84.42
-78.67
-65.99
-47.28
-25.03
-2.97
14.83
25.32
27.26
21.58
10.85
-1.74
-13.20
-21.09
-23.53
-19.36
-8.40
7.92
26.66
43.95
56.12
60.76
57.37
47.30
33.14
17.97
4.64
-4.58
-8.01
-4.91
4.22
17.55
32.37
45.93
56.16
61.97
63.74
63.52
64.23
68.41
76.95
88.66
100.95
110.89
115.95
115.20
109.82
102.37
95.11
88.68
81.82
72.19
56.89
32.37
-4.38
-53.97
-113.63
-177.50
-237.77
-286.89
-319.64
-331.85
-325.05
-308.54
-294.56
-290.56
-296.80
-307.44
-317.34
-323.59
-325.12
-321.36
-311.86
-295.18
-269.53
-234.41
-191.37
-143.84
-95.74
-50.33
-9.96
24.39
53.46
79.00
102.46
124.33
144.11
161.26
175.80
188.15
199.09
209.58
220.18
230.36
238.70
243.43
243.47
238.83
230.27
218.90
205.90
192.31
178.76
165.59
152.95
140.92
129.45
118.23
106.84
94.96
82.67
70.37
58.61
47.92
38.58
30.58
23.66
17.36
11.17
4.63
-2.59
-10.61
-19.22
-27.81
-35.32
-40.54
-42.39
-40.30
-34.39
-25.42
-14.56
-3.05
8.04
17.94
26.25
32.90
38.04
41.96
44.97
47.24
48.87
49.84
50.17
50.01
49.74
49.80
50.64
52.47
55.17
58.28
61.10
62.90
63.25
62.16
60.17
58.21
57.27
57.90
60.01
62.77
64.98
65.65
64.52
62.26
60.02
58.77
58.43
57.46
53.00
41.53
19.85
-14.12
-60.41
-116.28
-175.93
-230.98
-272.11
-291.56
-285.71
-256.46
-210.78
-158.40
-108.61
-67.63
-37.62
-17.22
-3.26
7.67
18.28
30.34
44.70
61.47
79.84
98.27
114.90
128.04
136.64
140.50
140.11
136.43
130.66
124.02
117.71
112.54
108.67
105.38
101.20
94.61
84.65
71.61
56.95
42.88
31.68
25.04
23.72
27.46
35.10
44.90
54.94
63.66
70.36
75.03
77.80
78.25
75.16
67.22
54.02
36.91
18.63
1.99
-11.75
-24.08
-38.79
-60.29
-91.63
-133.25
-182.67
-234.94
-283.54
-321.30
-341.96
-341.69
-320.39
-281.79
-232.19
-178.27
-124.80
-73.91
-24.67
24.97
76.47
129.48
181.39
227.24
260.22
273.49
262.41
228.62
179.47
126.28
80.42
49.69
35.98
34.81
38.32
38.08
31.08
17.82
0.75
-17.59
-34.80
-47.80
-53.38
-46.74
-24.53
17.73
78.95
150.62
218.71
269.41
295.79
299.19
290.46
283.09
294.12
334.15
403.61
493.03
587.66
673.48
738.85
779.78
761.03
666.01
505.94
318.40
144.82
8.86
-76.35
-127.76
-159.33
-179.78
-188.70
-185.41
-173.50
-159.49
-150.53
-150.56
-160.99
-178.01
-197.67
-213.14
-219.97
-217.96
-210.75
-203.27
-198.60
-198.21
-199.97
-201.72
-199.67
-191.59
-177.92
-161.46
-145.76
-133.20
-124.96
-119.97
-116.90
-113.75
-109.34
-103.83
-98.63
-95.45
-95.47
-99.03
-105.25
-112.83
-120.21
-126.14
-129.96
-131.87
-132.31
-131.86
-130.81
-129.09
-126.32
-122.13
-116.37
-109.05
-100.80
-92.44
-85.15
-79.76
-76.72
-75.88
-76.52
-77.98
-79.73
-82.15
-85.99
-92.51
-102.54
-116.21
-132.80
-150.85
-169.09
-186.50
-203.26
-220.17
-238.59
-260.02
-285.55
-315.70
-349.42
-384.01
-414.80
-436.51
-444.49
-436.51
-413.24
-377.48
-332.99
-282.41
-227.09
-166.77
-101.25
-31.77
38.11
102.13
152.92
183.45
190.00
173.45
140.25
100.89
67.06
48.41
49.86
71.67
110.01
159.43
214.29
269.74
322.21
369.31
410.45
446.36
478.76
508.71
535.44
555.69
564.61
557.78
533.18
492.63
440.78
383.76
326.86
273.26
223.95
178.09
134.06
89.76
43.58
-5.21
-55.13
-102.10
-139.94
-162.09
-164.44
-146.91
-113.79
-71.65
-26.84
16.60
57.42
95.96
132.49
165.62
192.42
209.65
215.50
210.63
197.77
180.52
161.90
143.75
126.68
110.79
96.06
82.41
69.44
56.09
40.87
22.16
-1.11
-29.11
-61.13
-95.96
-132.30
-168.72
-203.90
-236.52
-266.11
-293.28
-319.81
-348.24
-381.19
-421.00
-468.86
-524.07
-583.22
-640.02
-686.44
-714.97
-721.42
-706.51
-675.72
-636.90
-597.25
-561.15
-529.62
-501.57
-475.50
-450.79
-427.46
-405.49
-383.93
-360.98
-334.91
-305.03
-272.23
-238.55
-206.44
-177.53
-152.01
-128.78
-106.02
-82.36
-57.36
-31.81
-7.06
15.71
36.20
55.18
74.09
94.31
116.40
139.84
163.39
185.70
205.86
223.73
239.75
254.43
268.85
284.54
303.60
327.52
355.68
383.74
403.66
406.27
385.06
339.43
274.81
200.14
123.88
51.33
-15.24
-74.67
-124.81
-162.30
-184.31
-190.85
-185.58
-174.17
-161.39
-148.57
-133.47
-111.96
-80.68
-38.66
12.65
70.65
132.91
197.77
264.76
333.88
404.76
475.18
540.52
594.01
628.55
639.27
625.56
591.82
545.84
496.08
448.83
406.77
369.45
334.98
301.76
269.21
237.61
207.23
177.86
148.82
119.53
90.03
61.11
34.17
10.57
-8.80
-23.88
-35.38
-44.66
-53.20
-62.15
-72.07
-82.75
-93.51
-103.51
-112.09
-118.89
-123.64
-125.95
-125.17
-120.52
-111.52
-98.50
-82.77
-66.28
-51.15
-38.88
-30.10
-24.49
-21.20
-19.28
-18.02
-17.10
-16.53
-16.56
-17.45
-19.45
-22.64
-26.87
-31.82
-37.08
-42.40
-47.80
-53.65
-60.44
-68.59
-78.13
-88.65
-99.45
-109.68
-118.68
-126.12
-132.03
-136.63
-140.14
-142.62
-143.88
-143.53
-141.03
-135.89
-127.68
-115.91
-99.78
-78.19
-49.99
-14.57
27.50
74.28
122.72
169.72
213.03
251.75
286.11
316.52
342.76
363.68
377.83
384.30
383.12
374.96
360.08
337.68
305.82
262.57
207.25
141.46
68.89
-5.93
-79.52
-150.60
-219.73
-287.40
-351.71
-407.25
-446.28
-461.95
-451.99
-420.52
-376.80
-331.16
-290.72
-256.94
-226.55
-195.12
-160.76
-125.66
-94.70
-72.01
-58.10
-49.19
-39.30
-23.76
-1.89
22.74
44.25
57.69
61.46
57.60
50.29
43.37
38.53
34.98
30.72
24.42
16.39
8.29
1.67
-3.18
-7.39
-12.87
-20.97
-31.45
-42.49
-51.60
-56.78
-57.39
-53.96
-47.13
-37.60
-25.91
-12.43
2.81
20.09
39.81
61.96
85.69
110.10
133.22
152.55
166.29
174.46
178.85
181.73
184.22
185.60
185.65
183.92
180.14
174.88
169.49
165.64
164.18
164.57
165.40
167.48
171.75
178.21
185.66
191.98
195.12
193.53
186.55
161.49
114.78
53.65
-7.23
-55.23
-86.11
-102.19
-108.11
-108.13
-105.15
-99.06
-89.78
-79.73
-72.36
-70.54
-74.87
-83.60
-94.08
-104.03
-110.96
-115.18
-120.61
-131.03
-150.86
-181.86
-221.33
-262.21
-294.52
-307.28
-293.12
-251.16
-187.49
-113.75
-43.52
11.10
42.14
47.47
31.14
1.11
-33.72
-66.21
-92.94
-113.91
-131.26
-147.61
-164.67
-182.80
-201.64
-220.32
-237.24
-249.74
-254.02
-246.52
-225.92
-194.28
-156.78
-119.66
-87.48
-61.36
-39.29
-17.76
5.92
32.22
59.39
84.55
104.83
118.16
123.33
120.10
109.34
93.11
74.40
56.53
42.13
32.36
26.84
24.21
22.81
21.27
18.60
14.16
7.73
-0.24
-8.48
-15.01
-17.91
-16.29
-10.75
-3.25
3.54
7.21
6.17
-0.16
-11.37
-26.23
-42.67
-57.80
-68.15
-70.42
-62.57
-44.85
-20.21
6.49
29.98
46.59
55.56
59.12
61.28
65.95
75.25
88.85
104.66
119.95
132.63
141.75
147.04
148.48
146.05
139.89
130.91
121.04
112.76
108.23
108.35
112.46
118.58
124.22
127.25
126.45
121.71
113.71
103.52
92.19
80.25
67.65
54.06
39.31
23.86
8.94
-3.88
-13.46
-19.67
-23.68
-27.32
-32.33
-39.60
-49.03
-59.75
-70.76
-81.29
-90.94
-99.56
-107.09
-113.58
-119.31
-124.86
-130.84
-137.38
-143.56
-147.34
-146.08
-137.42
-120.40
-95.92
-66.70
-36.30
-8.18
15.30
33.17
45.73
54.21
60.31
66.04
73.69
85.73
104.25
130.05
161.75
195.50
225.87
247.53
257.27
255.12
244.07
228.44
211.88
196.03
180.54
164.16
146.05
126.54
106.89
88.43
71.78
56.64
42.21
27.79
13.23
-1.03
-14.26
-25.89
-35.68
-43.77
-50.37
-55.54
-59.02
-60.30
-58.88
-54.59
-47.76
-39.23
-30.16
-21.64
-14.53
-9.26
-5.85
-4.04
-3.50
-3.89
-4.96
-6.53
-8.48
-10.69
-13.09
-15.58
-18.07
-20.39
-22.39
-23.90
-24.85
-25.24
-25.21
-24.94
-24.50
-23.92
-23.17
-22.28
-21.53
-21.37
-22.33
-24.74
-28.56
-33.23
-37.86
-41.36
-42.87
-41.91
-38.60
-33.56
-27.77
-22.29
-17.86
-14.79
-12.87
-11.54
-10.17
-8.38
-6.15
-3.70
-1.28
1.07
3.55
6.53
10.25
14.67
19.48
24.20
28.42
31.83
34.22
35.39
35.16
33.46
30.52
26.90
23.33
20.43
18.35
16.72
14.77
11.74
7.29
1.72
-4.01
-8.54
-10.51
-9.01
-3.87
4.37
14.61
25.56
36.04
45.27
52.82
58.55
62.41
64.37
64.52
63.12
60.69
57.93
55.56
54.04
53.41
53.15
52.22
49.32
43.09
32.39
16.50
-4.87
-31.49
-62.61
-96.83
-132.25
-166.62
-197.87
-224.52
-245.84
-261.68
-272.04
-276.62
-274.77
-265.81
-249.46
-226.27
-197.60
-165.33
-131.52
-98.07
-66.54
-37.88
-12.32
10.75
32.63
54.75
78.10
102.73
127.76
151.76
173.41
191.79
206.50
217.36
224.26
227.06
225.78
220.80
212.87
202.82
191.35
178.77
165.09
150.22
134.21
117.34
100.06
82.83
65.98
49.67
33.95
18.71
3.86
-10.56
-24.34
-36.98
-47.78
-56.08
-61.57
-64.43
-65.27
-64.97
-64.30
-63.75
-63.46
-63.34
-63.28
-63.21
-63.17
-63.15
-63.04
-62.58
-61.38
-59.03
-55.24
-49.94
-43.33
-35.90
-28.24
-20.93
-14.35
-8.64
-3.75
0.42
3.87
6.47
8.01
8.29
7.22
4.82
1.26
-3.20
-8.28
-13.62
-18.73
-23.09
-26.20
-27.69
-27.53
-25.97
-23.52
-20.77
-18.22
-16.14
-14.52
-13.20
-12.03
-11.03
-10.43
-10.61
-11.83
-14.05
-16.90
-19.77
-22.06
-23.42
-23.92
-23.92
-23.91
-24.27
-25.11
-26.35
-27.82
-29.39
-31.02
-32.80
-34.78
-36.94
-39.22
-41.53
-43.88
-46.36
-49.10
-52.07
-55.02
-57.42
-58.53
-57.69
-54.48
-48.93
-41.48
-32.89
-24.04
-15.60
-8.02
-1.45
4.14
8.85
12.66
15.57
17.60
19.00
20.21
21.75
24.00
26.85
29.97
32.92
35.45
37.51
39.12
40.32
41.09
41.43
41.26
40.70
40.08
39.94
40.72
42.61
45.48
48.95
52.54
55.39
56.96
57.37
57.53
58.83
62.64
69.88
80.69
94.41
108.48
120.15
127.57
130.40
129.49
126.15
121.72
117.30
113.62
108.41
99.30
85.25
67.23
47.35
27.41
8.22
-10.32
-28.79
-51.75
-82.63
-121.62
-165.24
-208.76
-249.05
-285.48
-318.99
-350.51
-385.42
-427.49
-476.93
-530.28
-582.89
-631.45
-674.46
-711.05
-706.83
-638.99
-506.63
-334.73
-158.27
-3.22
119.69
210.70
275.25
320.16
346.33
353.95
346.01
327.87
305.28
282.12
259.21
235.25
208.63
175.00
132.95
85.79
44.35
20.10
20.19
44.60
86.88
137.19
183.24
215.89
231.34
231.13
219.39
200.54
177.98
154.06
130.43
106.84
82.34
55.64
25.59
-9.10
-49.16
-93.69
-139.23
-179.84
-209.10
-221.78
-215.85
-193.41
-160.46
-125.05
-95.11
-76.68
-72.80
-83.39
-105.44
-133.59
-161.11
-181.34
-189.26
-182.54
-161.91
-130.50
-92.59
-52.38
-12.94
24.07
58.45
90.95
122.57
153.68
183.35
209.05
227.28
234.94
230.79
216.53
196.24
174.85
155.98
140.52
126.74
111.75
93.57
72.44
50.73
31.52
16.84
6.78
-0.07
-5.43
-10.10
-13.52
-14.44
-11.97
-6.26
1.55
10.02
18.01
25.06
31.21
36.41
40.39
42.69
43.07
41.75
39.48
37.11
35.29
34.25
33.82
33.60
33.12
31.97
29.80
26.39
21.66
15.75
9.02
1.98
-4.65
-10.01
-13.27
-13.94
-12.18
-8.96
-5.92
-4.87
-7.12
-12.92
-21.30
-30.43
-38.14
-42.65
-42.95
-39.06
-31.85
-22.99
-14.48
-8.30
-5.89
-7.71
-13.00
-20.04
-26.81
-31.72
-34.19
-34.80
-34.85
-35.63
-37.72
-40.59
-42.90
-43.05
-39.99
-33.77
-25.46
-16.67
-8.86
-2.85
1.32
4.03
5.74
6.71
6.95
6.33
4.71
2.03
-1.61
-5.93
-10.29
-13.83
-15.67
-15.25
-12.63
-8.48
-3.80
0.54
4.15
7.16
10.03
13.20
16.90
21.13
25.72
30.51
35.32
40.01
44.31
47.91
50.41
51.49
51.03
49.17
46.22
42.61
38.71
34.82
31.10
27.56
24.11
20.54
16.64
12.21
7.27
1.93
-3.58
-9.01
-14.28
-19.42
-24.57
-29.69
-34.46
-38.27
-40.45
-40.63
-38.98
-36.18
-33.03
-30.02
-27.04
-23.39
-18.28
-11.37
-3.08
5.43
12.84
18.20
21.32
22.71
23.25
23.60
24.03
24.37
24.44
24.29
24.30
24.99
26.61
28.93
31.15
32.36
31.95
29.95
27.12
24.49
22.88
22.41
22.40
21.59
18.81
13.50
5.94
-2.70
-10.75
-16.67
-19.53
-19.39
-17.29
-14.77
-13.30
-13.64
-15.58
-18.12
-20.01
-20.27
-18.54
-14.95
-9.92
-3.86
2.78
9.43
15.25
19.34
21.08
20.41
17.90
14.32
10.29
6.05
1.71
-2.47
-5.92
-7.91
-8.06
-6.71
-4.77
-3.24
-2.68
-2.94
-3.41
-3.62
-3.64
-4.05
-5.49
-8.17
-11.62
-14.89
-17.03
-17.55
-16.60
-14.84
-13.10
-12.00
-11.85
-12.51
-13.61
-14.77
-15.73
-16.50
-17.23
-18.01
-18.73
-18.98
-18.18
-15.86
-11.90
-6.60
-0.51
5.78
11.83
17.41
22.33
26.37
29.18
30.49
30.32
29.08
27.52
26.38
26.08
26.61
27.60
28.54
29.11
29.15
28.55
27.24
25.25
22.74
20.10
17.79
16.10
14.83
13.32
10.80
6.84
1.78
-3.40
-7.62
-10.32
-11.75
-12.84
-14.50
-17.03
-19.83
-21.68
-21.43
-18.65
-13.98
-8.83
-4.67
-2.41
-1.91
-2.27
-2.37
-1.52
0.21
2.15
3.45
3.65
2.88
1.76
0.97
0.92
1.50
2.31
2.87
2.88
2.43
1.72
1.03
0.34
-0.52
-1.79
-3.54
-5.59
-7.72
-9.84
-12.18
-15.06
-18.73
-23.07
-27.58
-31.67
-34.96
-37.47
-39.59
-41.81
-44.44
-47.47
-50.62
-53.55
-55.89
-57.26
-57.41
-56.23
-54.02
-51.51
-49.71
-49.59
-51.64
-55.75
-61.24
-67.32
-73.40
-79.30
-85.16
-91.12
-97.14
-103.14
-109.09
-115.22
-121.83
-128.92
-135.80
-141.22
-143.92
-143.33
-140.16
-136.21
-133.46
-132.89
-133.70
-133.37
-128.72
-117.26
-98.32
-73.36
-45.27
-17.41
7.67
28.78
46.12
60.93
74.99
90.29
108.40
129.83
153.32
175.80
193.01
200.93
197.48
183.56
162.92
140.77
122.03
109.90
105.36
107.49
114.19
122.86
130.78
135.63
135.88
131.29
122.98
113.18
104.43
98.97
98.09
101.77
108.56
115.77
120.02
118.21
108.55
91.42
69.43
46.67
27.38
14.61
9.43
10.89
16.64
23.74
29.49
31.97
30.27
24.57
15.86
5.65
-4.40
-12.81
-18.60
-21.29
-21.03
-18.47
-14.64
-10.65
-7.43
-5.52
-5.03
-5.75
-7.29
-9.20
-11.09
-12.67
-13.88
-14.84
-15.76
-16.84
-18.12
-19.43
-20.48
-21.09
-21.28
-21.31
-21.53
-22.21
-23.35
-24.75
-26.12
-27.16
-27.74
-27.81
-27.38
-26.44
-25.03
-23.17
-20.95
-18.56
-16.20
-14.08
-12.32
-10.94
-9.78
-8.55
-6.88
-4.50
-1.39
2.19
5.71
8.70
10.88
12.25
13.09
13.65
14.01
14.08
13.69
12.78
11.51
10.17
9.01
8.15
7.44
6.53
5.14
3.22
0.99
-1.13
-2.74
-3.71
-4.28
-4.92
-6.15
-8.21
-10.89
-13.68
-16.00
-17.55
-18.48
-19.29
-20.57
-22.73
-25.83
-29.64
-33.66
-37.31
-40.00
-41.18
-40.52
-37.84
-33.21
-26.92
-19.47
-11.48
-3.56
3.71
9.89
14.76
18.22
20.35
21.29
21.29
20.74
20.16
20.06
20.77
22.24
23.99
25.36
25.78
25.05
23.39
21.27
19.18
17.35
15.80
14.41
13.03
11.65
10.31
9.03
7.74
6.30
4.53
2.39
-0.00
-2.37
-4.38
-5.85
-6.79
-7.41
-8.02
-8.80
-9.77
-10.72
-11.38
-11.58
-11.33
-10.87
-10.55
-10.66
-11.24
-12.07
-12.69
-12.59
-11.38
-9.03
-5.83
-2.35
0.75
2.98
4.06
4.01
3.00
1.37
-0.55
-2.53
-4.47
-6.47
-8.76
-11.63
-15.15
-19.07
-22.74
-25.24
-25.85
-24.28
-21.00
-17.05
-13.68
-11.87
-11.99
-13.77
-16.46
-19.09
-20.80
-20.96
-19.29
-15.96
-11.64
-7.36
-4.28
-3.19
-4.13
-6.42
-8.93
-10.61
-10.95
-10.09
-8.49
-6.56
-4.41
-1.95
0.92
3.99
6.80
8.83
9.82
9.93
9.62
9.42
9.59
9.96
10.11
9.52
7.91
5.40
2.45
-0.30
-2.32
-3.43
-3.89
-4.24
-5.04
-6.64
-8.92
-11.42
-13.51
-14.63
-14.48
-13.08
-10.64
-7.48
-3.96
-0.34
3.20
6.53
9.58
12.18
14.08
15.07
15.04
14.14
12.75
11.35
10.35
9.94
10.06
10.43
10.74
10.70
10.12
8.98
7.35
5.40
3.31
1.23
-0.85
-3.07
-5.57
-8.44
-11.57
-14.74
-17.69
-20.26
-22.48
-24.50
-26.58
-28.90
-31.51
-34.30
-36.92
-38.93
-39.94
-39.85
-38.86
-37.57
-36.62
-36.50
-37.30
-38.71
-40.31
-41.86
-43.49
-45.59
-48.64
-52.87
-58.15
-64.01
-69.89
-75.42
-80.52
-85.25
-89.40
-92.33
-92.92
-90.19
-83.80
-74.39
-63.26
-51.60
-39.85
-27.47
-13.45
2.96
21.62
41.53
61.50
80.61
98.50
114.94
129.27
140.20
146.30
146.90
142.65
135.52
127.88
121.40
116.21
110.89
103.18
91.29
74.94
55.86
37.25
22.61
14.25
12.36
14.91
18.60
20.16
17.57
10.51
0.09
-11.91
-23.75
-34.03
-41.68
-45.90
-46.22
-42.81
-36.58
-29.08
-21.92
-16.09
-11.66
-7.88
-3.62
1.90
8.68
15.87
22.03
25.78
26.28
23.57
18.46
12.26
6.38
1.98
-0.12
0.52
3.96
9.85
17.38
25.28
32.13
36.70
38.39
37.49
34.99
32.13
29.87
28.48
27.64
26.67
25.08
22.81
20.23
17.87
16.06
14.76
13.64
12.39
10.95
9.57
8.58
8.20
8.34
8.67
8.89
8.90
8.90
9.22
10.10
11.42
12.82
13.73
13.70
12.58
10.52
7.97
5.46
3.49
2.41
2.36
3.25
4.83
6.81
8.92
11.00
12.91
14.57
15.85
16.60
16.67
16.04
14.81
13.19
11.49
9.96
8.82
8.16
7.97
8.17
8.67
9.40
10.23
11.05
11.65
11.77
11.15
9.67
7.45
4.89
2.43
0.42
-1.11
-2.39
-3.80
-5.65
-7.96
-10.54
-13.05
-15.21
-16.86
-17.94
-18.39
-18.12
-17.01
-15.03
-12.30
-9.06
-5.69
-2.52
0.15
2.12
3.31
3.72
3.49
2.92
2.34
1.99
1.97
2.14
2.22
2.02
1.49
0.82
0.25
-0.01
0.02
0.18
0.17
-0.19
-0.91
-1.89
-2.97
-4.07
-5.21
-6.48
-7.92
-9.59
-11.50
-13.62
-15.94
-18.34
-20.69
-22.75
-24.26
-24.96
-24.67
-23.25
-20.75
-17.38
-13.64
-10.17
-7.58
-6.22
-6.02
-6.52
-7.15
-7.44
-7.28
-6.82
-6.25
-5.66
-4.99
-4.11
-2.99
-1.80
-0.81
-0.24
-0.11
-0.25
-0.42
-0.47
-0.40
-0.39
-0.68
-1.43
-2.67
-4.30
-6.13
-8.05
-10.06
-12.23
-14.64
-17.28
-19.99
-22.49
-24.54
-25.92
-26.55
-26.39
-25.40
-23.57
-20.89
-17.53
-13.78
-10.02
-6.59
-3.70
-1.39
0.38
1.71
2.68
3.35
3.82
4.24
4.78
5.58
6.70
8.11
9.62
10.92
11.74
11.89
11.38
10.42
9.34
8.42
7.81
7.42
7.03
6.42
5.45
4.07
2.33
0.35
-1.74
-3.74
-5.46
-6.81
-7.86
-8.82
-9.91
-11.29
-12.93
-14.63
-16.13
-17.15
-17.50
-17.09
-15.92
-14.02
-11.50
-8.57
-5.48
-2.47
0.25
2.54
4.39
5.78
6.78
7.46
7.90
8.18
8.37
8.52
8.57
8.52
8.33
8.06
7.80
7.60
7.50
7.48
7.50
7.50
7.48
7.43
7.37
7.34
7.36
7.50
7.79
8.26
8.92
9.71
10.50
11.05
11.10
10.37
8.81
6.57
4.10
2.02
0.90
1.08
2.57
5.05
8.08
11.31
14.48
17.53
20.38
22.87
24.70
25.59
25.34
23.95
21.70
19.02
16.40
14.19
12.55
11.35
10.29
9.01
7.26
4.94
2.18
-0.76
-3.55
-5.96
-7.85
-9.16
-9.96
-10.40
-10.64
-10.92
-11.41
-12.21
-13.35
-14.69
-16.08
-17.35
-18.43
-19.36
-20.29
-21.39
-22.86
-24.72
-26.84
-28.89
-30.44
-31.12
-30.69
-29.21
-26.84
-23.86
-20.50
-16.96
-13.40
-9.99
-6.91
-4.32
-2.32
-0.94
-0.06
0.45
0.79
1.08
1.44
1.89
2.40
2.91
3.39
3.82
4.16
4.37
4.39
4.18
3.72
3.06
2.30
1.51
0.70
-0.13
-0.99
-1.85
-2.65
-3.35
-3.94
-4.49
-5.16
-6.09
-7.35
-8.92
-10.61
-12.15
-13.29
-13.82
-13.71
-13.05
-12.06
-10.93
-9.82
-8.77
-7.78
-6.84
-5.96
-5.22
-4.70
-4.42
-4.31
-4.20
-3.92
-3.31
-2.32
-1.01
0.45
1.85
3.01
3.80
4.19
4.24
4.03
3.58
2.87
1.81
0.36
-1.45
-3.48
-5.53
-7.37
-8.86
-10.01
-10.94
-11.79
-12.67
-13.60
-14.50
-15.22
-15.63
-15.59
-15.00
-13.80
-11.99
-9.64
-6.92
-4.10
-1.47
0.71
2.24
3.07
3.24
2.89
2.17
1.23
0.18
-0.87
-1.77
-2.37
-2.54
-2.25
-1.60
-0.81
-0.10
0.34
0.45
0.27
-0.17
-0.85
-1.71
-2.71
-3.75
-4.71
-5.55
-6.34
-7.23
-8.39
-9.88
-11.63
-13.43
-15.07
-16.31
-17.00
-16.93
-15.99
-14.11
-11.40
-8.15
-4.82
-1.84
0.49
2.05
2.93
3.32
3.39
3.31
3.13
2.93
2.75
2.69
2.79
3.11
3.65
4.38
5.21
6.04
6.72
7.10
7.06
6.54
5.59
4.32
2.92
1.59
0.43
-0.56
-1.50
-2.57
-3.92
-5.59
-7.57
-9.77
-12.03
-14.23
-16.15
-17.51
-18.02
-17.46
-15.78
-13.16
-9.93
-6.47
-3.08
0.09
3.00
5.60
7.83
9.55
10.64
11.05
10.86
10.28
9.61
9.12
9.01
9.34
9.98
10.71
11.28
11.48
11.23
10.54
9.50
8.17
6.57
4.68
2.53
0.20
-2.17
-4.41
-6.40
-8.09
-9.52
-10.75
-11.90
-13.06
-14.37
-15.92
-17.65
-19.39
-20.75
-21.31
-20.74
-18.95
-16.13
-12.67
-9.03
-5.54
-2.33
0.59
3.29
5.72
7.73
9.10
9.70
9.57
8.97
8.26
7.79
7.73
8.07
8.64
9.23
9.65
9.82
9.73
9.40
8.89
8.26
7.54
6.78
5.96
5.05
4.02
2.86
1.57
0.15
-1.39
-3.10
-5.02
-7.18
-9.52
-11.90
-14.12
-15.99
-17.30
-17.88
-17.64
-16.51
-14.57
-12.00
-9.10
-6.19
-3.54
-1.31
0.45
1.73
2.56
2.93
2.92
2.67
2.45
2.53
3.07
4.10
5.49
7.07
8.62
9.98
11.04
11.68
11.81
11.37
10.40
8.98
7.32
5.62
4.01
2.56
1.23
-0.13
-1.67
-3.51
-5.72
-8.24
-10.86
-13.26
-15.07
-15.85
-15.29
-13.25
-9.86
-5.57
-1.03
3.11
6.30
8.28
9.10
9.01
8.35
7.43
6.45
5.53
4.72
4.09
3.75
3.78
4.27
5.19
6.47
7.93
9.33
10.40
10.86
10.56
9.48
7.80
5.82
3.89
2.20
0.78
-0.52
-1.88
-3.43
-5.18
-7.06
-8.98
-10.91
-12.81
-14.66
-16.24
-17.27
-17.41
-16.40
-14.22
-11.07
-7.33
-3.45
0.24
3.59
6.53
9.09
11.23
12.86
13.98
14.62
14.99
15.31
15.73
16.21
16.58
16.64
16.32
15.74
15.13
14.72
14.56
14.45
14.14
13.37
12.08
10.39
8.50
6.57
4.67
2.78
0.87
-1.03
-2.88
-4.66
-6.39
-8.17
-10.07
-11.99
-13.62
-14.52
-14.31
-12.90
-10.47
-7.47
-4.35
-1.39
1.35
3.91
6.33
8.44
9.98
10.68
10.48
9.55
8.28
7.11
6.35
6.12
6.37
6.96
7.64
8.27
8.67
8.75
8.42
7.65
6.41
4.73
2.73
0.52
-1.72
-3.87
-5.81
-7.53
-9.04
-10.38
-11.53
-12.37
-12.70
-12.32
-11.09
-9.03
-6.36
-3.41
-0.59
1.81
3.61
4.77
5.40
5.61
5.49
5.08
4.41
3.55
2.66
1.94
1.58
1.70
2.30
3.20
4.23
5.22
6.07
6.77
7.30
7.62
7.69
7.45
6.91
6.14
5.30
4.47
3.71
3.01
2.28
1.45
0.39
-1.01
-2.81
-4.97
-7.27
-9.36
-10.77
-11.13
-10.26
-8.29
-5.63
-2.76
-0.13
2.05
3.78
5.20
6.40
7.39
8.09
8.37
8.19
7.67
7.03
6.54
6.37
6.55
6.93
7.37
7.72
7.95
8.11
8.27
8.41
8.45
8.20
7.54
6.48
5.18
3.95
3.00
2.44
2.13
1.76
0.98
-0.50
-2.75
-5.59
-8.61
-11.27
-13.10
-13.71
-13.01
-11.14
-8.46
-5.38
-2.34
0.37
2.58
4.21
5.26
5.81
6.01
6.01
5.99
6.08
6.33
6.71
7.16
7.56
7.80
7.83
7.66
7.39
7.15
7.01
7.00
6.99
6.79
6.23
5.26
3.95
2.46
0.94
-0.52
-1.93
-3.43
-5.09
-6.96
-8.96
-10.90
-12.49
-13.43
-13.48
-12.56
-10.79
-8.42
-5.81
-3.28
-1.03
0.90
2.57
4.08
5.49
6.76
7.84
8.66
9.22
9.56
9.72
9.79
9.77
9.71
9.61
9.52
9.45
9.37
9.18
8.76
8.00
6.88
5.49
4.06
2.83
2.03
1.76
1.90
2.14
2.06
1.28
-0.37
-2.81
-5.64
-8.31
-10.28
-11.21
-11.02
-9.87
-8.07
-5.96
-3.83
-1.85
-0.10
1.39
2.62
3.61
4.37
4.92
5.35
5.72
6.08
6.49
6.96
7.53
8.25
9.12
10.12
11.08
11.79
11.99
11.47
10.17
8.14
5.59
2.75
-0.09
-2.71
-4.95
-6.69
-7.89
-8.59
-8.89
-9.04
-9.30
-9.89
-10.88
-12.10
-13.18
-13.68
-13.26
-11.85
-9.65
-7.09
-4.56
-2.37
-0.54
1.00
2.36
3.53
4.38
4.76
4.63
4.20
3.84
3.88
4.50
5.56
6.74
7.64
8.08
8.06
7.75
7.38
7.03
6.68
6.20
5.46
4.41
3.14
1.85
0.75
0.02
-0.28
-0.25
-0.16
-0.34
-1.10
-2.58
-4.67
-7.10
-9.44
-11.30
-12.39
-12.61
-11.99
-10.68
-8.90
-6.89
-4.89
-3.13
-1.77
-0.81
-0.23
0.10
0.32
0.48
0.59
0.65
0.69
0.80
1.10
1.68
2.58
3.72
5.00
6.25
7.36
8.17
8.60
8.56
8.06
7.17
5.99
4.64
3.21
1.77
0.35
-1.04
-2.38
-3.73
-5.16
-6.71
-8.32
-9.76
-10.74
-10.99
-10.36
-8.89
-6.84
-4.48
-2.09
0.13
2.06
3.68
4.98
5.95
6.62
7.03
7.21
7.18
6.96
6.57
6.08
5.60
5.27
5.15
5.28
5.59
5.94
6.15
6.09
5.71
5.04
4.15
3.09
1.93
0.67
-0.68
-2.08
-3.51
-4.95
-6.42
-7.97
-9.65
-11.43
-13.13
-14.46
-15.05
-14.62
-13.10
-10.73
-7.95
-5.28
-3.12
-1.65
-0.83
-0.45
-0.36
-0.45
-0.72
-1.17
-1.77
-2.46
-3.24
-4.17
-5.32
-6.73
-8.28
-9.74
-10.80
-11.29
-11.23
-10.85
-10.40
-10.05
-9.79
-9.51
-9.10
-8.56
-8.03
-7.71
-7.74
-8.09
-8.73
-9.58
-10.60
-11.81
-13.10
-14.26
-14.89
-14.64
-13.29
-11.01
-8.26
-5.66
-3.73
-2.66
-2.32
-2.30
-2.21
-1.74
-0.78
0.62
2.37
4.36
6.46
8.58
10.56
12.23
13.49
14.33
14.78
14.90
14.68
14.07
13.03
11.65
10.09
8.58
7.24
5.98
4.62
2.91
0.79
-1.57
-3.79
-5.50
-6.48
-6.75
-6.45
-5.78
-4.78
-3.41
-1.57
0.82
3.58
6.48
9.15
11.35
12.97
14.06
14.73
15.11
15.24
15.14
14.92
14.82
15.21
16.46
18.69
21.77
25.29
28.73
31.60
33.67
34.94
35.57
35.76
35.68
35.48
35.28
35.21
35.29
35.50
35.66
35.47
34.64
32.93
30.20
26.44
21.79
16.54
11.18
6.29
2.42
-0.10
-1.33
-1.74
-2.04
-2.95
-4.87
-7.83
-11.55
-15.66
-19.91
-24.22
-28.63
-33.10
-37.38
-41.03
-43.52
-44.53
-44.09
-42.58
-40.62
-38.78
-37.39
-36.41
-35.66
-35.01
-34.48
-34.38
-34.99
-36.42
-38.42
-40.32
-41.33
-40.73
-38.23
-34.08
-28.95
-23.70
-19.03
-15.34
-12.57
-10.33
-8.15
-5.78
-3.26
-0.96
0.62
1.13
0.45
-1.16
-3.27
-5.41
-7.17
-8.26
-8.49
-7.82
-6.31
-4.22
-1.91
0.24
1.91
2.95
3.35
3.11
2.25
0.75
-1.39
-4.06
-7.04
-10.06
-12.83
-15.09
-16.58
-17.06
-16.31
-14.30
-11.24
-7.65
-4.15
-1.29
0.68
1.79
2.30
2.46
2.48
2.43
2.39
2.46
2.82
3.58
4.71
6.02
7.20
8.00
8.29
8.10
7.53
6.75
5.80
4.68
3.39
2.00
0.64
-0.51
-1.34
-1.85
-2.23
-2.75
-3.66
-5.06
-6.76
-8.35
-9.36
-9.38
-8.26
-6.07
-3.05
0.51
4.36
8.26
12.03
15.38
18.10
19.97
20.97
21.20
20.87
20.24
19.51
18.79
18.14
17.57
17.09
16.76
16.59
16.57
16.70
16.92
17.14
17.16
16.83
15.93
14.35
12.10
9.25
5.93
2.23
-1.68
-5.69
-9.62
-13.34
-16.71
-19.58
-21.79
-23.11
-23.34
-22.39
-20.41
-17.77
-14.99
-12.58
-10.85
-9.90
-9.63
-9.89
-10.51
-11.35
-12.28
-13.09
-13.60
-13.63
-13.18
-12.34
-11.25
-10.05
-8.85
-7.69
-6.64
-5.76
-5.14
-4.81
-4.74
-4.85
-5.03
-5.29
-5.64
-6.17
-6.89
-7.72
-8.53
-9.27
-9.94
-10.69
-11.65
-12.81
-13.93
-14.62
-14.45
-13.16
-10.77
-7.52
-3.86
-0.22
3.06
5.82
8.04
9.83
11.36
12.75
14.05
15.21
16.16
16.91
17.56
18.26
19.14
20.19
21.26
22.09
22.54
22.57
22.34
21.99
21.60
21.07
20.20
18.84
17.00
14.86
12.77
11.04
9.83
9.10
8.55
7.85
6.69
5.09
3.31
1.92
1.46
2.28
4.33
7.22
10.34
13.19
15.51
17.36
18.97
20.51
22.04
23.49
24.81
25.99
27.15
28.32
29.39
30.08
30.02
29.03
27.14
24.62
21.83
19.02
16.25
13.47
10.61
7.69
4.86
2.24
-0.06
-2.17
-4.29
-6.67
-9.43
-12.48
-15.55
-18.32
-20.57
-22.29
-23.67
-24.90
-26.11
-27.29
-28.27
-28.83
-28.78
-27.99
-26.43
-24.18
-21.41
-18.43
-15.57
-13.13
-11.22
-9.75
-8.47
-7.11
-5.57
-3.91
-2.31
-0.96
0.09
0.92
1.69
2.57
3.58
4.67
5.62
6.22
6.31
5.88
4.99
3.79
2.43
1.03
-0.35
-1.67
-2.97
-4.24
-5.54
-6.95
-8.55
-10.35
-12.26
-14.07
-15.41
-15.97
-15.52
-14.03
-11.69
-8.84
-5.87
-3.13
-0.92
0.60
1.39
1.52
1.19
0.66
0.21
0.05
0.33
1.05
2.10
3.30
4.47
5.42
6.09
6.51
6.75
6.92
7.01
6.89
6.31
5.07
3.13
0.68
-1.90
-4.28
-6.32
-8.07
-9.73
-11.49
-13.42
-15.44
-17.39
-19.15
-20.70
-21.99
-22.92
-23.26
-22.72
-21.05
-18.21
-14.46
-10.20
-5.97
-2.19
0.95
3.43
5.38
6.91
8.12
9.02
9.65
10.09
10.50
11.05
11.89
13.11
14.66
16.39
18.11
19.65
20.94
21.99
22.88
23.68
24.48
25.26
26.05
26.87
27.76
28.70
29.53
29.88
29.34
27.61
24.74
21.21
17.82
15.39
14.41
14.90
16.39
18.22
19.90
21.23
22.35
23.48
24.66
25.66
26.04
25.42
23.67
21.05
18.13
15.57
13.92
13.36
13.71
14.48
15.00
14.72
13.33
10.83
7.52
3.80
0.08
-3.33
-6.19
-8.25
-9.27
-9.02
-7.44
-4.73
-1.39
1.95
4.71
6.62
7.78
8.66
9.84
11.83
14.88
18.92
23.73
29.14
35.14
41.93
49.68
58.30
67.33
76.02
83.60
89.66
94.45
98.68
103.21
108.43
113.98
118.91
122.35
124.16
125.07
126.09
127.14
126.53
121.00
106.95
82.21
47.13
4.20
-43.46
-93.77
-145.99
-199.35
-250.93
-294.85
-323.41
-330.09
-312.68
-274.25
-221.54
-161.76
-99.70
-37.49
23.28
79.05
123.47
149.52
153.11
135.92
104.90
69.89
39.33
17.04
1.72
-11.32
-26.70
-46.67
-70.38
-95.84
-120.33
-141.61
-158.40
-170.36
-177.82
-181.53
-182.77
-183.50
-187.74
-198.73
-217.54
-242.24
-268.12
-289.39
-301.14
-301.47
-291.63
-276.75
-260.83
-244.55
-225.38
-199.85
-166.17
-125.52
-81.65
-26.66
40.41
114.57
186.14
245.16
285.28
303.87
304.99
293.90
276.74
257.70
240.48
228.34
222.89
223.47
227.38
231.32
232.18
228.70
220.16
207.85
194.26
182.00
172.72
166.71
163.34
161.38
159.97
157.87
154.65
150.57
146.17
141.90
137.89
134.07
130.10
125.75
120.34
113.31
104.34
93.35
80.56
66.37
51.26
35.49
18.95
1.06
-18.58
-39.51
-59.86
-76.39
-85.43
-84.35
-73.22
-55.45
-37.04
-24.76
-23.95
-36.97
-62.96
-98.71
-140.13
-183.38
-225.60
-264.82
-299.93
-330.73
-358.19
-384.34
-411.36
-439.86
-467.37
-488.09
-494.41
-480.04
-442.91
-386.55
-318.94
-249.48
-185.69
-130.92
-84.37
-42.88
-3.24
36.08
74.57
110.17
140.49
163.58
178.56
185.75
186.48
182.60
175.98
168.24
160.67
154.17
149.19
145.56
142.38
138.29
131.94
122.85
111.81
100.62
91.15
84.08
78.29
70.91
58.50
38.32
9.15
-28.64
-73.69
-123.96
-176.64
-227.70
-271.73
-302.68
-315.52
-308.12
-282.32
-243.43
-198.44
-153.52
-112.27
-75.55
-42.48
-12.11
15.40
38.63
55.72
65.49
68.17
65.48
59.93
53.95
49.16
46.20
45.05
45.55
47.77
52.07
58.74
67.37
76.45
83.23
84.26
76.56
59.05
33.60
5.07
-19.94
-35.34
-37.65
-27.14
-7.22
17.34
42.62
67.02
91.22
116.94
145.30
175.74
206.04
233.33
255.22
270.53
278.95
280.28
273.64
257.35
229.43
188.77
136.37
75.95
13.54
-44.10
-91.55
-126.36
-149.48
-164.29
-174.63
-183.25
-191.21
-198.48
-205.06
-211.34
-217.45
-221.94
-221.24
-210.81
-187.64
-152.65
-111.26
-71.36
-39.75
-19.24
-8.23
-2.48
1.87
6.45
11.07
15.52
21.16
30.84
47.10
69.89
95.85
119.32
134.94
139.95
134.91
122.73
106.90
89.92
72.82
55.66
38.34
21.03
4.27
-11.20
-24.61
-35.23
-42.44
-45.92
-45.81
-42.81
-37.96
-32.42
-27.07
-22.29
-18.02
-13.93
-9.66
-4.99
0.12
5.58
11.40
17.78
25.13
33.75
43.56
53.96
64.05
72.85
79.76
84.69
88.03
90.33
91.97
92.95
92.90
91.34
88.01
83.15
77.58
72.43
68.75
67.01
66.94
67.67
68.03
67.18
64.80
61.11
56.52
51.32
45.49
38.82
31.13
22.49
13.11
3.27
-6.81
-16.95
-26.87
-36.05
-43.69
-48.98
-51.40
-50.89
-47.92
-43.29
-37.90
-32.51
-27.69
-23.82
-21.02
-19.19
-17.92
-16.58
-14.50
-11.18
-6.38
-0.13
7.40
16.03
25.64
36.05
46.96
57.84
68.03
76.94
84.18
89.65
93.40
95.58
96.20
95.12
92.19
87.34
80.77
72.83
63.96
54.54
44.84
35.14
25.81
17.38
10.47
5.56
2.83
2.00
2.47
3.55
4.62
5.34
5.54
5.20
4.30
2.83
0.83
-1.56
-4.07
-6.30
-7.87
-8.55
-8.34
-7.48
-6.37
-5.40
-4.80
-4.62
-4.73
-4.96
-5.20
-5.48
-5.85
-6.44
-7.29
-8.46
-9.96
-11.79
-13.89
-16.02
-17.82
-18.81
-18.60
-17.03
-14.25
-10.63
-6.68
-2.88
0.46
3.12
5.06
6.25
6.71
6.46
5.63
4.39
2.98
1.66
0.63
0.02
-0.23
-0.28
-0.38
-0.74
-1.47
-2.57
-3.88
-5.23
-6.52
-7.83
-9.35
-11.28
-13.74
-16.66
-19.81
-22.90
-25.68
-27.95
-29.54
-30.24
-29.84
-28.15
-25.19
-21.22
-16.69
-12.13
-7.93
-4.28
-1.15
1.55
3.84
5.60
6.65
6.94
6.58
5.94
5.40
5.28
5.61
6.14
6.54
6.47
5.83
4.68
3.23
1.66
0.04
-1.62
-3.38
-5.23
-7.09
-8.83
-10.42
-11.91
-13.50
-15.34
-17.40
-19.46
-21.03
-21.60
-20.78
-18.51
-15.01
-10.81
-6.44
-2.38
1.05
3.71
5.55
6.67
7.19
7.32
7.24
7.16
7.17
7.29
7.50
7.67
7.70
7.51
7.06
6.36
5.45
4.38
3.18
1.91
0.60
-0.74
-2.11
-3.52
-4.95
-6.42
-7.95
-9.55
-11.25
-13.07
-14.97
-16.77
-18.18
-18.80
-18.23
-16.26
-13.01
-8.90
-4.56
-0.60
2.59
4.84
6.27
7.06
7.36
7.25
6.78
6.04
5.22
4.53
4.13
4.03
4.11
4.20
4.16
3.99
3.73
3.42
3.01
2.37
1.37
0.00
-1.66
-3.42
-5.08
-6.54
-7.82
-9.06
-10.45
-12.17
-14.27
-16.69
-19.11
-21.10
-22.18
-21.96
-20.30
-17.39
-13.61
-9.46
-5.41
-1.77
1.28
3.61
5.14
5.87
5.89
5.39
4.66
3.98
3.55
3.44
3.62
3.99
4.43
4.80
4.97
4.82
4.27
3.31
1.99
0.39
-1.37
-3.23
-5.16
-7.09
-8.96
-10.69
-12.19
-13.51
-14.78
-16.18
-17.84
-19.71
-21.55
-22.92
-23.36
-22.55
-20.39
-17.11
-13.14
-9.00
-5.18
-1.98
0.42
2.05
2.96
3.26
3.08
2.59
2.01
1.61
1.60
2.09
3.02
4.16
5.21
5.95
6.29
6.28
6.06
5.71
5.20
4.47
3.39
1.95
0.24
-1.54
-3.25
-4.80
-6.28
-7.79
-9.48
-11.40
-13.53
-15.72
-17.75
-19.34
-20.18
-20.02
-18.71
-16.32
-13.08
-9.38
-5.63
-2.21
0.60
2.66
3.93
4.49
4.49
4.09
3.49
2.88
2.36
2.03
1.96
2.17
2.67
3.38
4.11
4.67
4.80
4.35
3.29
1.72
-0.14
-2.04
-3.77
-5.25
-6.48
-7.59
-8.70
-9.94
-11.37
-13.04
-14.95
-16.96
-18.87
-20.27
-20.78
-20.04
-17.95
-14.67
-10.66
-6.47
-2.64
0.48
2.75
4.27
5.21
5.78
6.09
6.23
6.20
6.05
5.83
5.63
5.52
5.52
5.58
5.56
5.35
4.85
4.08
3.06
1.86
0.52
-0.95
-2.54
-4.21
-5.86
-7.35
-8.58
-9.54
-10.35
-11.24
-12.45
-14.06
-15.90
-17.57
-18.50
-18.13
-16.19
-12.72
-8.18
-3.22
1.53
5.60
8.83
11.28
13.13
14.60
15.81
16.87
17.85
18.88
20.08
21.64
23.75
26.51
29.98
34.07
38.56
43.10
47.32
50.93
53.89
56.40
58.85
61.64
64.98
68.75
72.47
75.50
77.15
77.13
75.79
74.19
73.76
75.74
80.73
88.33
97.24
105.51
111.16
112.54
108.49
98.32
81.77
59.14
31.42
0.20
-33.07
-67.36
-102.22
-137.30
-171.60
-202.86
-227.69
-242.52
-245.04
-236.08
-218.90
-197.70
-175.79
-154.47
-133.15
-110.33
-84.81
-56.42
-27.60
-1.29
20.51
37.71
51.71
64.16
76.20
88.12
99.77
108.78
113.45
113.75
111.41
108.17
103.81
95.51
78.97
50.52
6.02
-55.27
-129.96
-211.17
-291.22
-364.12
-426.71
-477.92
-498.86
-475.30
-404.28
-298.80
-180.77
-69.52
24.30
98.00
153.56
194.75
222.71
237.95
241.33
235.59
223.58
207.66
189.45
170.07
150.41
129.52
106.48
81.06
54.20
27.34
1.37
-24.41
-49.36
-74.01
-99.28
-124.12
-144.84
-155.71
-151.17
-128.17
-87.45
-33.82
26.41
87.14
143.10
188.90
218.66
226.93
210.49
169.91
108.83
34.36
-44.05
-116.71
-175.75
-216.00
-235.40
-235.09
-212.00
-171.52
-126.60
-90.72
-70.12
-62.64
-62.31
-64.09
-66.33
-68.89
-72.96
-78.21
-82.29
-82.21
-76.37
-65.21
-51.23
-37.16
-24.58
-14.45
-5.72
4.31
18.60
38.63
63.73
91.66
119.77
146.08
169.03
188.54
205.99
223.69
244.27
270.01
302.09
339.51
378.13
410.44
427.93
424.33
398.37
354.52
301.49
248.79
203.30
167.57
140.00
117.22
95.97
74.00
49.16
18.58
-20.90
-70.71
-128.37
-187.20
-238.61
-275.75
-296.69
-304.79
-306.30
-306.83
-308.91
-311.92
-313.95
-313.92
-312.17
-309.40
-304.89
-295.86
-278.72
-251.62
-215.87
-175.56
-135.39
-98.45
-65.10
-33.38
-0.46
35.84
75.51
116.85
157.42
195.25
229.39
259.61
285.79
307.51
323.85
332.78
332.15
320.71
299.10
269.64
235.31
198.38
159.98
120.31
78.25
33.15
-14.51
-62.88
-109.50
-152.57
-191.29
-225.12
-247.17
-250.21
-230.10
-189.97
-138.54
-85.09
-35.92
6.28
41.54
71.07
94.80
112.67
124.45
130.79
133.19
134.25
134.95
135.90
137.39
138.27
137.93
136.07
133.47
131.95
133.56
139.88
151.76
171.66
195.52
220.46
243.66
262.97
277.98
287.81
291.39
287.56
275.03
251.91
217.53
171.87
116.32
53.65
-12.85
-79.51
-143.08
-201.05
-252.31
-296.31
-334.27
-368.85
-403.53
-441.01
-481.45
-521.05
-552.54
-567.81
-560.55
-529.76
-478.82
-413.41
-339.45
-262.02
-185.98
-117.04
-61.92
-26.46
-14.68
-24.81
-49.13
-76.91
-98.97
-110.69
-112.55
-108.20
-102.11
-100.07
-105.81
-120.88
-145.42
-178.65
-218.28
-259.38
-294.49
-315.35
-319.01
-306.16
-280.77
-248.64
-215.83
-186.89
-163.70
-145.84
-113.56
-60.43
5.90
69.08
115.99
142.94
153.48
153.61
148.48
140.10
127.44
109.82
88.70
67.66
50.51
39.60
35.52
37.60
43.53
48.52
49.17
44.74
36.85
27.80
19.04
10.76
2.20
-7.87
-21.65
-40.04
-61.94
-84.69
-105.52
-122.75
-136.15
-146.49
-154.97
-162.84
-170.13
-175.23
-175.57
-168.95
-154.67
-133.87
-109.07
-83.06
-57.89
-33.78
-9.13
18.51
50.77
87.25
125.13
160.24
188.64
208.41
220.51
228.33
236.34
248.35
266.56
291.12
320.24
350.08
374.90
387.79
382.45
356.00
311.19
256.68
204.34
164.25
139.87
126.14
112.07
86.72
45.59
-6.55
-57.65
-94.33
-108.35
-99.83
-76.06
-46.78
-19.19
4.74
27.10
50.73
76.09
100.46
119.89
132.06
138.17
142.28
148.82
159.94
174.33
187.98
196.31
196.33
187.54
171.74
151.88
130.95
111.29
94.32
80.40
68.82
58.30
47.54
36.12
24.90
15.58
9.84
8.23
9.87
13.02
16.02
17.97
18.96
19.56
20.14
20.66
20.71
20.11
19.19
18.84
19.96
23.03
27.95
34.11
40.97
48.26
56.04
64.30
72.58
79.82
84.75
86.49
85.02
81.41
77.30
74.36
73.65
75.38
79.07
83.82
88.72
93.01
96.25
98.25
99.19
99.64
100.48
102.76
107.39
114.96
125.57
138.90
154.29
170.79
187.20
201.93
213.19
219.14
218.54
211.16
198.15
181.77
164.67
149.01
135.75
124.67
114.74
104.81
94.02
81.94
68.29
52.71
34.71
13.79
-10.06
-36.23
-63.28
-89.23
-111.99
-129.83
-141.79
-147.74
-148.25
-144.15
-136.24
-125.01
-110.63
-93.25
-73.23
-51.46
-29.23
-8.14
10.43
25.62
37.27
45.64
51.06
53.54
52.44
46.57
34.46
14.63
-14.11
-52.44
-99.91
-154.33
-211.47
-265.46
-310.07
-340.58
-355.22
-355.68
-346.22
-331.89
-316.74
-302.79
-290.16
-277.89
-264.95
-250.75
-235.16
-218.24
-199.95
-180.24
-159.31
-137.84
-116.99
-98.21
-82.72
-71.09
-63.03
-57.47
-53.02
-48.49
-43.27
-37.41
-31.47
-26.15
-21.94
-19.01
-17.09
-15.65
-14.17
-12.32
-10.15
-8.10
-6.83
-6.90
-8.57
-11.64
-15.53
-19.53
-22.93
-25.26
-26.22
-25.68
-23.59
-20.05
-15.23
-9.56
-3.55
2.20
7.14
10.87
13.13
13.89
13.21
11.34
8.68
5.69
2.94
0.93
0.01
0.19
1.18
2.40
3.26
3.35
2.57
1.14
-0.59
-2.28
-3.84
-5.43
-7.39
-10.05
-13.53
-17.60
-21.69
-24.96
-26.53
-25.76
-22.48
-17.04
-10.18
-2.83
4.09
9.96
14.41
17.33
18.72
18.67
17.33
14.95
11.92
8.70
5.71
3.23
1.34
-0.01
-0.97
-1.62
-1.99
-2.07
-1.93
-1.72
-1.72
-2.18
-3.29
-5.08
-7.54
-10.61
-14.24
-18.39
-22.84
-27.16
-30.69
-32.69
-32.59
-30.16
-25.68
-19.74
-13.14
-6.61
-0.68
4.31
8.18
10.82
12.18
12.31
11.38
9.74
7.83
6.13
4.96
4.47
4.53
4.79
4.89
4.52
3.57
2.17
0.54
-1.10
-2.61
-4.05
-5.53
-7.24
-9.37
-11.99
-15.08
-18.38
-21.44
-23.71
-24.60
-23.71
-20.95
-16.54
-10.98
-4.96
0.85
5.88
9.73
12.25
13.46
13.55
12.81
11.55
10.09
8.67
7.52
6.76
6.43
6.45
6.62
6.71
6.52
5.93
4.94
3.64
2.18
0.75
-0.56
-1.74
-2.89
-4.23
-6.00
-8.39
-11.41
-14.79
-18.01
-20.38
-21.23
-20.09
-16.88
-11.91
-5.81
0.61
6.62
11.66
15.39
17.66
18.46
17.90
16.22
13.80
11.13
8.70
6.96
6.08
6.03
6.54
7.22
7.65
7.55
6.82
5.53
3.93
2.27
0.69
-0.86
-2.55
-4.62
-7.22
-10.34
-13.84
-17.36
-20.48
-22.68
-23.44
-22.34
-19.18
-14.13
-7.74
-0.88
5.56
10.80
14.44
16.40
16.83
16.03
14.32
12.05
9.62
7.46
5.99
5.45
5.84
6.83
7.94
8.60
8.45
7.38
5.54
3.21
0.71
-1.74
-4.03
-6.15
-8.19
-10.31
-12.68
-15.42
-18.41
-21.26
-23.33
-23.91
-22.44
-18.83
-13.42
-6.96
-0.34
5.69
10.63
14.28
16.61
17.68
17.61
16.52
14.70
12.51
10.39
8.75
7.82
7.55
7.70
7.90
7.82
7.31
6.42
5.33
4.23
3.24
2.28
1.21
-0.14
-1.88
-4.05
-6.67
-9.66
-12.91
-16.11
-18.83
-20.46
-20.48
-18.59
-14.89
-9.83
-4.14
1.45
6.34
10.17
12.80
14.24
14.62
14.17
13.15
11.87
10.62
9.62
9.02
8.84
9.02
9.37
9.64
9.57
8.98
7.84
6.27
4.47
2.61
0.77
-1.11
-3.13
-5.44
-8.09
-11.10
-14.37
-17.71
-20.73
-22.89
-23.56
-22.28
-18.91
-13.76
-7.57
-1.21
4.51
9.04
12.21
14.07
14.77
14.51
13.49
11.91
10.08
8.38
7.16
6.65
6.88
7.63
8.52
9.10
9.11
8.49
7.40
6.10
4.81
3.58
2.34
0.87
-1.05
-3.51
-6.52
-9.88
-13.25
-16.07
-17.69
-17.48
-15.08
-10.58
-4.50
2.27
8.79
14.24
18.12
20.19
20.45
19.07
16.35
12.82
9.10
5.86
3.60
2.58
2.66
3.47
4.48
5.19
5.28
4.59
3.15
1.03
-1.64
-4.74
-8.22
-11.99
-15.98
-20.05
-23.98
-27.50
-30.18
-31.56
-31.16
-28.66
-24.06
-17.74
-10.45
-3.13
3.29
8.12
11.00
11.95
11.28
9.51
7.22
5.05
3.56
3.09
3.77
5.37
7.44
9.40
10.69
10.95
10.07
8.26
5.83
3.21
0.66
-1.71
-4.01
-6.45
-9.22
-12.39
-15.75
-18.85
-21.03
-21.66
-20.28
-16.82
-11.61
-5.33
1.19
7.21
12.21
15.97
18.44
19.68
19.75
18.76
16.95
14.72
12.57
10.99
10.25
10.28
10.74
11.11
10.98
10.18
8.82
7.18
5.50
3.94
2.44
0.77
-1.30
-4.02
-7.45
-11.48
-15.64
-19.30
-21.63
-21.98
-20.00
-15.82
-10.07
-3.59
2.73
8.21
12.44
15.26
16.63
16.69
15.64
13.86
11.83
10.04
8.79
8.19
8.07
8.10
7.92
7.30
6.20
4.72
3.09
1.50
0.11
-1.07
-2.10
-3.14
-4.38
-5.96
-7.92
-10.20
-12.54
-14.49
-15.49
-14.99
-12.63
-8.36
-2.60
3.91
10.26
15.62
19.50
21.75
22.56
22.20
20.98
19.20
17.19
15.38
14.18
13.86
14.38
15.38
16.34
16.78
16.42
15.28
13.57
11.53
9.31
7.01
4.64
2.17
-0.45
-3.35
-6.55
-9.89
-12.96
-15.11
-15.71
-14.34
-11.03
-6.25
-0.75
4.70
9.52
13.38
16.11
17.65
18.02
17.26
15.58
13.34
10.97
8.93
7.48
6.66
6.27
6.00
5.48
4.52
3.12
1.44
-0.22
-1.62
-2.68
-3.49
-4.32
-5.46
-7.18
-9.63
-12.79
-16.35
-19.74
-22.20
-22.91
-21.33
-17.37
-11.47
-4.48
2.54
8.76
13.66
17.05
19.07
19.91
19.81
18.95
17.60
16.06
14.68
13.78
13.52
13.85
14.40
14.70
14.30
13.00
10.94
8.51
6.20
4.31
2.89
1.69
0.37
-1.36
-3.68
-6.54
-9.82
-13.21
-16.32
-18.61
-19.55
-18.73
-16.02
-11.72
-6.42
-0.88
4.21
8.37
11.43
13.38
14.32
14.45
13.89
12.88
11.64
10.41
9.37
8.65
8.29
8.23
8.37
8.49
8.39
7.84
6.70
4.99
2.91
0.79
-1.08
-2.60
-3.90
-5.29
-7.07
-9.42
-12.26
-15.36
-18.37
-20.92
-22.68
-23.26
-22.36
-19.80
-15.67
-10.39
-4.68
0.71
5.18
8.51
10.77
12.27
13.32
14.12
14.71
15.06
15.12
14.94
14.64
14.40
14.36
14.62
15.12
15.67
16.01
15.84
15.03
13.58
11.70
9.61
7.50
5.39
3.19
0.79
-1.87
-4.74
-7.72
-10.66
-13.37
-15.61
-17.00
-17.15
-15.77
-12.87
-8.81
-4.23
0.20
3.98
6.89
8.91
10.17
10.79
10.80
10.32
9.48
8.50
7.64
7.07
6.85
6.89
7.06
7.14
6.98
6.48
5.60
4.39
2.95
1.38
-0.25
-1.88
-3.50
-5.13
-6.81
-8.61
-10.61
-12.88
-15.36
-17.90
-20.14
-21.58
-21.66
-19.98
-16.44
-11.36
-5.46
0.37
5.29
8.77
10.68
11.21
10.71
9.55
8.00
6.29
4.61
3.19
2.18
1.68
1.61
1.83
2.11
2.26
2.13
1.63
0.71
-0.60
-2.17
-3.85
-5.42
-6.80
-8.03
-9.28
-10.79
-12.74
-15.17
-17.91
-20.63
-22.80
-23.90
-23.52
-21.46
-17.87
-13.18
-8.03
-3.06
1.23
4.60
7.00
8.53
9.26
9.23
8.53
7.35
5.98
4.81
4.17
4.20
4.83
5.79
6.69
7.23
7.19
6.51
5.22
3.44
1.37
-0.75
-2.64
-4.13
-5.17
-5.95
-6.79
-8.01
-9.80
-12.05
-14.36
-16.19
-16.97
-16.30
-14.07
-10.47
-5.91
-0.98
3.70
7.65
10.55
12.35
13.20
13.32
12.91
12.07
10.84
9.30
7.62
6.04
4.81
4.05
3.71
3.62
3.55
3.39
3.15
2.92
2.75
2.60
2.30
1.69
0.62
-0.95
-3.02
-5.52
-8.39
-11.47
-14.48
-16.95
-18.31
-18.06
-15.91
-12.03
-6.97
-1.54
3.47
7.53
10.43
12.25
13.15
13.27
12.68
11.40
9.55
7.42
5.39
3.89
3.17
3.21
3.74
4.32
4.48
3.89
2.46
0.37
-2.06
-4.47
-6.60
-8.42
-10.07
-11.77
-13.69
-15.86
-18.16
-20.32
-22.06
-23.10
-23.16
-22.06
-19.68
-16.11
-11.58
-6.56
-1.58
2.86
6.42
8.96
10.51
11.18
11.09
10.39
9.27
7.97
6.84
6.13
5.94
6.18
6.62
6.99
7.10
6.94
6.57
6.09
5.49
4.68
3.44
1.63
-0.85
-3.91
-7.32
-10.75
-13.75
-15.86
-16.66
-15.87
-13.47
-9.71
-5.09
-0.24
4.25
7.95
10.59
12.10
12.54
12.07
10.86
9.23
7.50
6.01
5.02
4.61
4.72
5.09
5.37
5.26
4.61
3.42
1.86
0.17
-1.45
-2.91
-4.25
-5.66
-7.35
-9.48
-12.04
-14.82
-17.38
-19.18
-19.66
-18.50
-15.62
-11.31
-6.07
-0.56
4.54
8.70
11.57
13.02
13.13
12.15
10.47
8.46
6.48
4.82
3.66
3.04
2.87
2.98
3.17
3.24
3.11
2.77
2.25
1.57
0.73
-0.31
-1.61
-3.20
-5.12
-7.38
-9.90
-12.49
-14.78
-16.22
-16.28
-14.54
-11.01
-6.06
-0.41
5.11
9.83
13.32
15.45
16.26
15.91
14.54
12.41
9.91
7.47
5.59
4.55
4.39
4.80
5.38
5.72
5.63
5.20
4.57
3.89
3.10
2.04
0.46
-1.75
-4.58
-7.89
-11.38
-14.74
-17.59
-19.46
-19.89
-18.57
-15.50
-11.08
-6.02
-1.15
2.80
5.42
6.59
6.42
5.16
3.18
0.89
-1.23
-2.71
-3.22
-2.66
-1.23
0.67
2.48
3.73
4.12
3.52
2.05
-0.05
-2.51
-5.11
-7.72
-10.32
-12.95
-15.61
-18.18
-20.32
-21.55
-21.38
-19.49
-15.91
-11.09
-5.76
-0.71
3.50
6.62
8.79
10.22
11.15
11.66
11.73
11.35
10.60
9.69
8.89
8.39
8.19
8.09
7.80
7.13
6.05
4.78
3.56
2.60
1.90
1.31
0.58
-0.53
-2.17
-4.38
-7.06
-9.94
-12.52
-14.12
-14.09
-12.01
-7.93
-2.38
3.76
9.58
14.34
17.72
19.64
20.24
19.74
18.37
16.39
14.12
11.94
10.23
9.25
9.09
9.60
10.45
11.24
11.63
11.42
10.56
9.19
7.47
5.57
3.62
1.64
-0.44
-2.73
-5.35
-8.34
-11.59
-14.70
-17.15
-18.33
-17.75
-15.23
-10.97
-5.49
0.54
6.42
11.58
15.66
18.44
19.92
20.19
19.54
18.32
16.99
15.93
15.40
15.48
16.03
16.76
17.33
17.40
16.78
15.44
13.52
11.29
9.04
6.94
5.00
3.12
1.08
-1.25
-3.97
-6.99
-10.13
-13.10
-15.52
-16.95
-16.98
-15.31
-11.89
-6.98
-1.14
4.89
10.40
14.82
17.89
19.54
19.95
19.35
18.05
16.34
14.55
12.98
11.88
11.43
11.62
12.21
12.80
12.91
12.18
10.46
7.92
4.91
1.81
-1.08
-3.73
-6.21
-8.74
-11.49
-14.53
-17.85
-21.24
-24.39
-26.77
-27.84
-27.12
-24.42
-19.92
-14.16
-7.85
-1.68
3.83
8.34
11.65
13.67
14.34
13.74
12.12
9.90
7.58
5.59
4.22
3.50
3.32
3.45
3.59
3.48
2.94
1.92
0.56
-0.84
-1.96
-2.57
-2.70
-2.64
-2.91
-3.99
-6.23
-9.68
-14.10
-18.98
-23.57
-27.02
-28.52
-27.47
-23.76
-17.77
-10.35
-2.56
4.65
10.64
15.12
18.13
19.81
20.31
19.81
18.52
16.70
14.66
12.73
11.16
10.13
9.73
9.91
10.53
11.35
12.04
12.32
11.95
10.85
9.04
6.63
3.77
0.61
-2.67
-5.84
-8.75
-11.34
-13.72
-16.12
-18.76
-21.62
-24.34
-26.27
-26.65
-24.92
-20.91
-15.02
-8.05
-0.94
5.43
10.48
13.97
15.94
16.62
16.31
15.29
13.77
11.97
10.09
8.34
6.91
5.91
5.32
4.99
4.69
4.18
3.29
1.97
0.35
-1.34
-2.78
-3.74
-4.15
-4.08
-3.82
-3.73
-4.14
-5.28
-7.21
-9.81
-12.80
-15.75
-18.17
-19.58
-19.60
-18.13
-15.36
-11.79
-8.09
-4.95
-2.82
-1.87
-1.97
-2.74
-3.71
-4.40
-4.47
-3.71
-2.02
0.58
4.02
8.11
12.39
16.13
18.36
18.09
14.82
8.90
1.65
-4.94
-8.84
-8.75
-4.60
2.36
10.06
16.23
19.21
18.26
13.67
6.55
-1.56
-9.00
-14.28
-16.26
-14.30
-8.42
0.61
11.40
22.15
31.07
36.86
39.09
38.14
35.07
31.05
27.13
23.95
21.86
20.99
21.36
22.94
25.52
28.80
32.33
35.74
38.68
40.92
42.19
42.28
41.17
39.10
36.57
34.13
32.13
30.42
28.41
25.29
20.63
14.61
8.02
1.89
-3.01
-6.35
-8.34
-9.41
-10.09
-10.65
-11.30
-12.47
-15.00
-20.12
-28.85
-41.86
-59.38
-81.51
-107.64
-136.62
-166.82
-196.49
-223.99
-247.74
-266.69
-280.37
-289.24
-293.14
-291.32
-282.84
-267.36
-245.56
-218.46
-187.62
-155.18
-124.36
-97.23
-74.61
-55.89
-39.80
-24.49
-7.25
14.12
40.27
68.74
96.73
121.60
141.50
155.02
156.34
141.27
109.82
74.02
39.67
9.38
-17.93
-41.65
-60.77
-74.25
-80.46
-78.14
-67.11
-49.58
-27.75
-3.99
19.22
38.71
51.55
56.68
54.88
48.28
38.48
27.38
16.21
5.55
-4.72
-14.36
-21.79
-24.76
-21.55
-12.59
0.25
14.14
26.28
34.61
38.42
38.46
36.18
33.00
29.69
27.06
25.99
27.44
31.91
39.21
48.36
57.85
66.13
71.96
74.87
75.01
72.78
68.60
62.85
55.95
48.38
40.53
32.42
23.74
13.99
3.09
-8.35
-18.91
-26.82
-30.57
-29.49
-23.99
-15.34
-5.31
4.36
12.16
16.95
18.09
15.52
9.91
2.69
-4.16
-8.72
-9.60
-6.40
0.27
9.13
18.73
27.90
36.01
42.90
48.62
53.33
57.25
60.67
64.04
67.77
71.98
76.32
80.00
82.01
81.65
78.84
74.21
68.88
64.06
60.59
58.84
58.82
60.46
63.98
69.88
78.78
91.04
106.37
123.60
140.98
156.80
170.03
180.73
189.75
197.98
205.62
211.90
215.64
216.12
213.64
209.47
205.02
200.87
196.45
190.46
181.91
171.03
159.39
149.26
142.38
139.20
138.74
139.15
138.59
135.88
130.59
122.80
112.53
99.38
82.54
61.01
34.02
1.41
-36.37
-78.10
-121.87
-165.19
-205.22
-239.21
-265.13
-282.19
-290.93
-292.83
-289.58
-282.47
-272.18
-259.12
-244.02
-228.26
-213.89
-202.92
-196.58
-194.61
-195.14
-195.04
-190.70
-179.07
-158.47
-129.02
-92.43
-51.60
-10.02
28.76
61.55
85.86
100.29
104.74
100.35
89.10
73.26
54.85
35.48
16.36
-1.59
-17.71
-31.58
-43.22
-53.03
-61.50
-68.94
-75.21
-79.89
-82.56
-83.20
-82.22
-80.42
-78.61
-77.48
-77.51
-78.80
-81.05
-83.30
-84.22
-82.45
-77.28
-69.14
-59.58
-50.67
-44.14
-40.65
-39.49
-39.13
-37.93
-34.91
-30.03
-24.03
-17.80
-12.02
-6.91
-2.42
1.41
4.19
5.01
2.83
-3.09
-12.67
-24.74
-37.37
-48.48
-56.63
-61.43
-63.50
-63.94
-63.78
-63.67
-63.84
-64.35
-65.14
-66.06
-66.66
-66.12
-63.42
-57.61
-48.29
-35.72
-20.82
-4.75
11.35
26.62
40.47
52.46
62.17
69.29
73.65
75.46
75.41
74.66
74.46
75.69
78.36
81.26
82.25
79.25
71.21
58.88
44.80
32.41
24.94
24.32
30.67
42.34
56.39
69.41
78.31
81.09
77.35
68.36
56.60
44.92
35.69
30.04
27.81
27.97
29.27
30.74
31.85
32.42
32.51
32.38
32.47
33.29
35.30
38.78
43.59
49.17
54.65
59.23
62.40
64.23
65.20
65.98
67.12
68.80
70.84
72.86
74.41
75.20
75.16
74.51
73.75
73.52
74.44
76.82
80.49
84.79
88.76
91.44
92.32
91.47
89.63
87.88
87.45
89.47
94.79
103.87
116.55
131.97
148.55
164.42
177.94
188.07
194.67
198.12
198.92
197.31
193.16
186.35
177.10
166.11
154.18
141.70
128.20
112.50
93.26
69.66
41.80
10.59
-22.62
-56.50
-89.96
-122.07
-151.95
-178.76
-201.87
-221.14
-236.99
-250.29
-261.92
-272.18
-280.48
-285.24
-284.33
-275.81
-258.62
-233.15
-201.19
-165.59
-129.56
-96.18
-68.06
-47.37
-35.69
-33.64
-40.47
-53.75
-69.74
-84.53
-95.44
-102.24
-107.38
-115.09
-129.52
-152.79
-183.60
-217.12
-246.28
-263.89
-265.08
-248.72
-217.57
-177.04
-133.14
-90.72
-52.56
-19.65
8.00
30.49
47.83
60.29
68.93
75.60
82.43
90.72
100.37
109.82
116.97
120.37
120.09
117.67
115.30
114.54
115.36
116.10
114.16
107.23
94.36
76.44
55.88
35.87
19.44
8.68
4.40
6.10
12.33
21.20
30.86
39.87
47.33
52.80
56.09
57.11
55.69
51.70
45.11
36.14
25.26
13.09
0.28
-12.73
-25.83
-39.40
-54.18
-71.03
-90.46
-112.01
-133.82
-152.82
-165.53
-169.44
-164.02
-150.95
-133.20
-113.71
-94.36
-75.67
-57.28
-38.61
-19.39
0.23
19.63
37.74
53.02
63.72
68.39
66.60
59.45
49.35
39.14
30.94
25.56
22.56
20.98
19.92
18.60
16.25
11.88
4.42
-6.67
-21.03
-37.17
-52.78
-65.41
-73.08
-74.70
-70.24
-60.63
-47.43
-32.64
-18.28
-6.07
2.86
8.16
10.27
10.09
8.61
6.85
5.82
6.68
10.80
19.41
32.83
49.95
68.11
83.79
93.78
96.15
90.79
78.91
62.32
42.65
21.14
-1.03
-22.46
-41.47
-56.48
-66.45
-71.14
-71.03
-66.97
-60.01
-51.35
-42.39
-34.50
-28.71
-24.91
-21.68
-16.60
-7.33
7.17
25.81
45.72
63.61
77.16
85.80
90.24
91.14
88.03
79.17
62.68
38.24
8.03
-23.74
-52.60
-75.78
-92.98
-105.78
-115.87
-123.63
-127.74
-126.18
-117.73
-103.01
-84.49
-65.39
-48.21
-33.79
-21.19
-8.61
5.47
21.36
37.86
52.75
63.55
68.33
66.22
57.58
44.01
28.23
13.97
5.42
6.19
17.80
38.47
62.82
83.13
91.98
85.06
63.01
31.33
-1.84
-28.74
-44.64
-48.75
-43.49
-32.74
-20.18
-8.44
0.97
7.40
10.83
11.81
11.46
11.14
12.17
15.19
19.78
24.28
26.03
22.30
11.66
-4.67
-22.48
-35.50
-37.86
-26.77
-4.09
24.13
50.09
67.29
72.63
66.64
52.17
32.67
11.19
-9.70
-27.45
-39.50
-43.93
-40.39
-30.66
-18.09
-6.16
3.01
9.48
15.04
21.91
31.29
42.68
54.09
62.96
67.12
65.37
57.63
44.93
29.71
15.98
9.01
13.69
32.20
61.79
94.56
119.84
128.53
117.06
89.05
53.47
20.43
-3.05
-15.27
-18.95
-18.50
-17.20
-15.98
-14.11
-10.84
-6.52
-2.59
-0.64
-1.62
-5.60
-12.20
-21.02
-32.02
-45.29
-60.89
-78.51
-97.14
-114.75
-128.24
-133.84
-128.26
-110.20
-81.44
-46.83
-12.95
14.22
31.19
37.71
36.02
29.27
20.05
9.93
-0.15
-9.29
-16.29
-19.95
-19.57
-15.36
-8.35
0.04
8.46
15.92
21.76
25.47
26.69
25.18
20.97
14.47
6.48
-1.76
-8.64
-12.35
-11.15
-3.89
9.39
27.05
45.83
61.51
70.15
69.45
59.72
43.80
26.12
11.11
1.72
-1.29
0.95
6.35
12.88
19.15
24.22
27.15
26.76
21.85
11.81
-2.77
-19.96
-36.88
-50.36
-57.81
-57.81
-50.54
-37.54
-21.07
-3.12
15.37
34.49
54.53
74.64
92.22
103.40
104.62
94.53
74.74
49.22
22.56
-1.83
-22.47
-39.44
-53.38
-64.87
-74.26
-82.00
-88.68
-94.85
-100.60
-105.39
-108.31
-108.56
-105.92
-100.62
-93.21
-84.21
-74.30
-64.31
-55.32
-48.24
-43.29
-39.61
-35.55
-29.44
-20.58
-9.73
1.15
9.91
15.30
17.48
17.79
17.84
18.52
19.62
20.17
19.30
16.90
13.87
11.72
11.98
15.58
22.69
32.65
44.10
55.10
63.50
67.63
66.98
62.51
56.33
50.83
47.54
46.67
47.13
47.33
46.01
42.84
38.46
34.23
31.62
31.72
34.78
39.90
45.25
48.39
47.18
40.45
28.43
12.56
-5.13
-22.66
-38.46
-51.36
-60.43
-64.81
-63.95
-57.86
-47.50
-34.81
-22.41
-12.88
-7.96
-7.95
-11.55
-16.32
-19.57
-19.28
-14.89
-7.37
1.12
8.12
11.65
10.86
6.35
0.22
-4.05
-1.97
11.04
37.94
78.24
126.83
174.92
212.86
233.85
236.72
226.25
210.64
197.91
192.78
195.55
203.24
211.70
216.93
215.64
205.27
184.53
154.71
120.61
89.81
69.75
63.93
69.56
78.06
78.60
62.64
27.47
-23.15
-80.69
-134.92
-176.48
-198.32
-196.26
-169.50
-121.19
-58.59
8.03
67.93
113.12
140.55
152.51
154.90
154.16
154.81
158.32
163.67
168.74
171.58
171.05
166.67
158.23
145.66
129.23
109.73
88.32
66.09
43.39
19.93
-4.56
-29.25
-51.58
-67.86
-74.79
-71.26
-59.46
-44.48
-32.54
-28.80
-35.73
-52.60
-76.25
-102.12
-125.47
-142.13
-149.13
-145.12
-130.66
-108.14
-81.38
-54.88
-33.01
-19.39
-16.45
-24.97
-44.00
-70.74
-101.09
-130.54
-155.31
-173.30
-184.45
-190.11
-191.98
-191.08
-187.39
-180.29
-169.31
-155.06
-139.33
-124.55
-112.67
-104.37
-98.83
-94.37
-89.51
-83.59
-76.95
-70.42
-64.51
-58.74
-51.49
-40.56
-24.14
-2.05
23.68
48.81
67.98
76.48
71.96
55.34
30.37
2.20
-24.54
-46.60
-62.70
-73.29
-80.36
-86.90
-95.93
-108.69
-122.85
-132.25
-128.67
-105.77
-62.69
-5.41
55.25
108.16
146.44
169.59
182.17
190.26
197.88
205.49
210.90
211.25
204.87
191.77
173.10
150.20
124.20
95.95
66.48
37.35
10.58
-11.47
-26.83
-34.73
-36.40
-34.89
-34.34
-38.45
-48.84
-64.14
-80.10
-91.26
-93.23
-84.73
-68.13
-48.41
-30.89
-19.08
-13.58
-12.48
-12.94
-12.69
-10.94
-8.18
-5.50
-3.77
-3.16
-3.42
-3.97
-4.14
-3.06
0.29
6.63
15.69
25.81
34.35
38.74
37.90
32.82
26.29
21.52
20.63
24.00
30.40
38.12
45.88
53.33
60.65
67.97
74.87
80.29
82.94
81.63
75.56
64.15
47.14
24.55
-3.28
-35.56
-71.03
-107.90
-143.94
-176.64
-203.75
-223.91
-237.28
-245.71
-252.09
-259.14
-268.15
-278.32
-286.98
-290.78
-287.09
-274.96
-255.34
-230.36
-202.45
-173.56
-144.99
-117.63
-92.11
-69.09
-49.09
-32.66
-20.37
-12.82
-10.67
-14.24
-23.27
-36.82
-53.55
-72.11
-91.69
-112.06
-133.42
-156.18
-180.77
-207.77
-237.75
-270.81
-305.73
-339.42
-367.13
-383.69
-385.39
-371.33
-343.81
-307.29
-266.86
-226.39
-188.09
-152.59
-119.67
-89.07
-60.54
-33.74
-7.95
17.91
45.21
75.14
108.42
144.80
182.79
219.67
252.08
277.03
292.92
300.12
300.78
297.85
293.90
290.32
287.32
284.66
282.32
280.57
279.47
278.00
273.89
264.12
246.35
220.32
188.64
156.22
128.80
110.83
103.84
105.88
112.29
117.53
117.10
109.01
94.00
74.80
54.79
36.84
22.58
12.51
6.45
3.92
4.32
6.88
10.60
14.36
17.24
18.71
18.75
17.72
16.11
14.31
12.60
11.16
10.06
9.25
8.50
7.57
6.15
4.03
1.05
-2.76
-7.16
-11.72
-15.92
-19.63
-23.32
-28.17
-35.68
-46.95
-62.08
-79.83
-97.90
-113.56
-124.43
-128.94
-126.74
-119.03
-108.32
-97.98
-91.34
-90.79
-97.15
-109.77
-127.04
-146.73
-166.18
-182.02
-190.37
-187.47
-170.97
-141.21
-101.71
-58.23
-16.98
17.23
41.87
56.28
60.86
56.80
46.55
34.26
25.18
23.48
30.02
41.52
51.94
55.94
52.00
43.33
35.75
33.79
37.81
44.01
47.57
46.43
43.19
43.72
53.39
74.11
103.70
137.99
173.47
209.16
246.28
286.16
328.06
367.30
397.13
411.24
406.18
382.21
342.85
293.51
239.96
187.04
136.04
86.60
38.05
-9.65
-55.86
-99.56
-139.97
-177.24
-212.67
-250.58
-293.51
-339.39
-380.85
-408.37
-415.02
-400.08
-369.49
-333.17
-303.57
-287.92
-285.71
-290.59
-295.44
-296.71
-295.38
-294.43
-274.99
-224.55
-141.65
-38.41
67.47
162.33
240.02
299.93
344.85
378.44
401.18
412.84
414.01
407.56
395.75
379.86
360.53
338.65
315.19
289.35
259.39
224.80
186.76
147.26
107.84
68.52
33.59
5.43
-15.85
-33.35
-50.16
-68.04
-87.18
-106.76
-125.50
-141.72
-154.15
-162.57
-170.62
-182.44
-201.10
-227.78
-262.40
-304.66
-354.84
-413.99
-461.63
-481.65
-466.04
-417.81
-346.36
-262.24
-175.51
-95.94
-31.55
13.75
38.13
44.42
38.28
25.85
11.63
-1.79
-14.28
-23.75
-28.06
-28.23
-26.44
-24.97
-25.35
-28.25
-33.00
-38.27
-42.16
-42.94
-41.02
-37.39
-32.87
-27.19
-22.41
-18.84
-16.14
-13.40
-9.85
-5.87
-2.23
0.23
0.99
-0.13
-2.49
-5.28
-7.66
-9.07
-9.68
-10.02
-10.86
-12.97
-16.93
-22.69
-29.95
-38.16
-46.73
-55.06
-62.64
-69.06
-74.07
-77.57
-79.35
-79.34
-77.55
-74.10
-69.14
-62.83
-55.31
-46.79
-37.49
-27.57
-17.26
-6.79
3.65
13.88
23.78
33.27
42.18
50.34
57.56
63.57
68.16
71.20
72.72
72.88
71.93
70.16
67.79
65.03
62.00
58.88
55.96
53.62
52.26
52.18
53.43
55.68
58.35
60.72
62.31
63.14
63.75
65.16
68.50
74.53
83.43
94.74
107.63
121.34
135.66
151.04
168.39
188.57
211.80
237.35
263.76
289.16
311.90
331.01
346.26
358.03
367.39
376.11
386.54
400.77
419.25
439.28
454.62
456.80
438.05
394.65
329.02
249.70
168.89
98.74
48.12
20.79
15.62
28.11
52.31
82.21
112.48
138.72
157.58
167.23
167.46
159.69
146.34
129.60
109.99
85.80
53.86
11.83
-38.99
-92.11
-136.82
-161.78
-159.89
-131.71
-85.74
-35.26
6.90
32.87
41.48
36.95
25.53
12.23
-0.61
-12.75
-24.47
-35.48
-44.75
-51.52
-55.91
-59.09
-62.63
-67.47
-73.49
-79.60
-84.49
-87.39
-88.46
-88.76
-89.82
-93.17
-99.80
-109.88
-122.65
-136.54
-149.50
-159.56
-165.35
-166.49
-163.52
-157.57
-149.84
-141.18
-131.93
-122.07
-111.54
-100.51
-89.55
-79.48
-71.13
-64.96
-60.89
-58.33
-56.29
-53.88
-50.54
-46.24
-41.37
-36.49
-32.04
-28.19
-24.86
-21.87
-19.11
-16.58
-14.36
-12.51
-10.98
-9.62
-8.21
-6.57
-4.55
-2.16
0.48
3.09
5.36
6.99
7.83
7.91
7.36
6.45
5.48
4.83
5.01
6.44
9.36
13.49
18.01
21.84
24.10
24.44
23.30
21.55
20.13
19.59
19.95
20.82
21.68
22.11
21.92
21.07
19.63
17.67
15.33
12.68
9.88
7.11
4.58
2.47
0.86
-0.33
-1.33
-2.45
-3.96
-5.98
-8.40
-10.95
-13.33
-15.31
-16.81
-17.91
-18.75
-19.47
-20.14
-20.75
-21.20
-21.43
-21.39
-21.12
-20.70
-20.20
-19.60
-18.86
-17.93
-16.79
-15.48
-14.09
-12.75
-11.56
-10.57
-9.79
-9.23
-8.87
-8.71
-8.71
-8.83
-9.03
-9.20
-9.30
-9.29
-9.17
-8.90
-8.45
-7.80
-7.01
-6.23
-5.67
-5.46
-5.57
-5.75
-5.58
-4.73
-3.09
-0.89
1.38
3.18
4.22
4.61
4.83
5.46
6.96
9.36
12.32
15.25
17.66
19.32
20.41
21.36
22.58
24.32
26.60
29.35
32.47
35.97
39.91
44.28
49.01
53.90
58.82
63.75
68.81
74.04
79.20
83.65
86.44
86.68
83.89
78.33
70.88
62.71
54.75
47.38
40.38
33.27
25.65
17.49
9.01
0.32
-8.88
-19.35
-32.02
-47.31
-64.69
-82.60
-98.83
-111.29
-118.71
-120.95
-118.87
-113.81
-107.05
-99.47
-91.52
-83.39
-75.30
-67.60
-60.72
-55.02
-50.61
-47.31
-44.74
-42.49
-40.27
-37.95
-35.47
-32.79
-29.74
-26.16
-21.97
-17.32
-12.65
-8.57
-5.70
-4.45
-4.89
-6.73
-9.39
-12.07
-13.98
-14.53
-13.47
-10.97
-7.54
-3.82
-0.46
2.07
3.48
3.57
2.18
-0.75
-5.16
-10.73
-16.85
-22.80
-27.89
-31.70
-34.08
-35.22
-35.47
-35.26
-34.92
-34.77
-35.12
-36.25
-38.38
-41.53
-45.46
-49.60
-53.29
-55.86
-56.97
-56.58
-54.93
-52.40
-49.42
-46.31
-43.32
-40.55
-37.91
-35.20
-32.13
-28.51
-24.36
-20.02
-16.02
-12.88
-10.93
-10.18
-10.35
-11.04
-11.82
-12.43
-12.71
-12.53
-11.84
-10.59
-8.88
-6.96
-5.21
-3.97
-3.43
-3.49
-3.83
-4.10
-4.04
-3.69
-3.27
-3.04
-3.08
-3.33
-3.60
-3.69
-3.58
-3.35
-3.13
-2.97
-2.83
-2.56
-2.08
-1.42
-0.71
-0.18
-0.04
-0.36
-1.14
-2.27
-3.62
-5.02
-6.32
-7.31
-7.88
-7.90
-7.40
-6.45
-5.17
-3.72
-2.24
-0.87
0.25
0.99
1.26
1.06
0.47
-0.36
-1.21
-1.94
-2.43
-2.71
-2.87
-3.07
-3.41
-3.93
-4.57
-5.22
-5.79
-6.28
-6.80
-7.46
-8.30
-9.18
-9.87
-10.11
-9.74
-8.79
-7.43
-5.90
-4.42
-3.10
-2.00
-1.16
-0.58
-0.30
-0.32
-0.59
-1.00
-1.37
-1.62
-1.65
-1.51
-1.26
-1.05
-1.02
-1.27
-1.81
-2.60
-3.61
-4.77
-6.06
-7.41
-8.68
-9.68
-10.11
-9.77
-8.57
-6.70
-4.47
-2.28
-0.41
1.07
2.24
3.23
4.10
4.81
5.20
5.14
4.59
3.67
2.61
1.67
0.98
0.51
0.10
-0.45
-1.28
-2.36
-3.54
-4.64
-5.54
-6.25
-6.87
-7.49
-8.06
-8.34
-8.05
-6.95
-4.97
-2.27
0.80
3.82
6.42
8.32
9.47
9.91
9.82
9.36
8.69
7.97
7.34
6.94
6.86
7.10
7.54
7.89
7.82
7.00
5.28
2.66
-0.70
-4.53
-8.47
-12.09
-14.93
-16.56
-16.72
-15.36
-12.75
-9.41
-5.95
-2.87
-0.49
1.12
2.06
2.50
2.62
2.52
2.24
1.81
1.30
0.75
0.22
-0.26
-0.70
-1.14
-1.62
-2.17
-2.84
-3.71
-4.88
-6.45
-8.45
-10.75
-13.01
-14.80
-15.69
-15.43
-13.96
-11.49
-8.37
-5.00
-1.74
1.14
3.46
5.13
6.09
6.37
6.04
5.24
4.21
3.22
2.50
2.20
2.29
2.62
2.96
3.07
2.85
2.30
1.47
0.41
-0.86
-2.36
-4.06
-5.85
-7.52
-8.71
-9.05
-8.27
-6.27
-3.17
0.68
4.84
8.90
12.49
15.41
17.63
19.18
20.17
20.72
20.90
20.77
20.40
19.82
19.10
18.29
17.44
16.55
15.55
14.31
12.74
10.79
8.49
5.98
3.41
0.98
-1.04
-2.36
-2.68
-1.74
0.54
3.98
8.19
12.67
16.90
20.52
23.31
25.20
26.24
26.54
26.27
25.56
24.58
23.45
22.24
21.04
19.90
18.89
18.06
17.40
16.81
16.12
15.09
13.56
11.42
8.78
5.88
3.13
0.93
-0.37
-0.61
0.23
2.08
4.78
8.11
11.78
15.41
18.59
20.95
22.33
22.77
22.55
21.98
21.28
20.52
19.61
18.45
16.98
15.29
13.55
11.91
10.47
9.21
8.05
6.85
5.44
3.67
1.48
-1.07
-3.71
-5.93
-7.19
-7.00
-5.19
-1.93
2.32
6.90
11.28
15.04
18.02
20.13
21.40
21.85
21.58
20.76
19.60
18.34
17.16
16.12
15.15
14.18
13.11
11.95
10.77
9.63
8.58
7.56
6.44
5.08
3.39
1.43
-0.58
-2.29
-3.30
-3.29
-2.07
0.34
3.72
7.71
11.93
16.00
19.56
22.33
24.10
24.82
24.55
23.56
22.24
20.98
20.01
19.39
18.98
18.53
17.85
16.88
15.67
14.31
12.87
11.33
9.63
7.69
5.47
3.05
0.57
-1.79
-3.80
-5.21
-5.81
-5.45
-4.07
-1.81
1.07
4.24
7.39
10.28
12.71
14.57
15.75
16.20
15.92
15.05
13.83
12.53
11.36
10.38
9.52
8.66
7.69
6.58
5.34
4.04
2.72
1.42
0.16
-1.11
-2.48
-4.06
-5.93
-8.02
-10.10
-11.78
-12.60
-12.24
-10.59
-7.77
-4.12
-0.09
3.87
7.33
9.99
11.68
12.42
12.37
11.80
10.98
10.15
9.40
8.75
8.14
7.45
6.65
5.69
4.58
3.36
2.12
0.89
-0.32
-1.57
-2.97
-4.61
-6.49
-8.49
-10.43
-12.01
-12.94
-12.96
-11.90
-9.75
-6.67
-2.98
0.89
4.54
7.64
9.97
11.48
12.17
12.11
11.44
10.36
9.10
7.91
6.94
6.20
5.61
5.02
4.32
3.47
2.50
1.44
0.27
-1.08
-2.70
-4.62
-6.80
-9.14
-11.43
-13.47
-14.99
-15.74
-15.50
-14.12
-11.68
-8.36
-4.52
-0.59
3.04
6.05
8.28
9.71
10.44
10.65
10.57
10.32
10.00
9.63
9.22
8.80
8.40
8.07
7.83
7.68
7.66
7.77
8.01
8.34
8.62
8.65
8.28
7.44
6.24
5.06
4.37
4.70
6.43
9.77
14.63
20.80
27.93
35.74
43.92
52.24
60.48
68.45
75.99
83.02
89.55
95.62
101.36
106.90
112.34
117.74
123.06
128.17
132.89
137.04
140.51
143.31
145.52
147.20
148.37
148.85
148.35
146.38
142.34
135.64
125.83
112.95
97.69
81.34
65.40
50.99
38.45
27.26
16.41
5.14
-6.63
-18.12
-28.18
-35.89
-40.97
-43.94
-45.84
-47.87
-50.99
-55.72
-61.99
-69.18
-76.20
-81.79
-84.79
-84.50
-80.72
-73.87
-64.96
-55.42
-47.05
-41.64
-40.36
-43.33
-49.33
-56.08
-61.04
-62.30
-59.25
-52.61
-43.96
-34.96
-26.70
-19.39
-12.52
-5.20
3.35
13.50
25.12
37.69
50.53
63.11
75.16
86.65
97.61
107.93
117.39
125.81
133.31
140.32
147.12
153.27
157.11
155.92
146.70
127.30
97.42
58.90
15.19
-29.67
-72.28
-110.31
-142.75
-169.61
-191.55
-209.91
-226.81
-245.17
-268.04
-297.23
-331.77
-367.05
-395.52
-408.89
-401.14
-371.11
-323.05
-265.26
-207.10
-155.95
-115.45
-85.39
-63.21
-45.86
-31.26
-18.89
-9.45
-4.31
-4.86
-12.13
-26.43
-47.23
-73.24
-102.45
-132.46
-161.07
-186.96
-210.24
-232.51
-256.33
-284.05
-316.42
-351.71
-385.64
-412.42
-426.44
-424.08
-404.80
-371.18
-327.95
-280.50
-233.55
-190.36
-152.64
-120.88
-94.75
-73.44
-55.76
-40.32
-25.69
-10.69
5.31
22.37
40.12
58.21
76.55
95.50
115.57
137.01
159.40
181.49
201.49
217.62
228.65
234.24
234.89
231.57
225.34
216.99
206.94
195.38
182.38
168.14
153.10
138.03
123.91
111.79
102.45
96.17
92.56
90.68
89.41
87.77
85.23
81.64
77.10
71.67
65.27
57.77
49.12
39.61
29.86
20.72
12.96
7.07
3.05
0.47
-1.36
-3.19
-5.59
-8.79
-12.66
-16.76
-20.46
-23.11
-24.04
-22.75
-18.86
-12.30
-3.41
6.94
17.45
26.61
33.03
35.85
34.89
30.63
23.95
15.90
7.47
-0.52
-7.35
-12.50
-15.57
-16.34
-14.73
-10.83
-4.84
2.94
12.10
22.11
32.40
42.34
51.36
59.04
65.14
69.60
72.57
74.49
76.03
78.16
81.86
87.78
95.89
105.26
114.08
120.16
121.55
117.22
107.38
93.41
77.40
61.45
47.09
35.19
25.96
19.35
15.37
14.12
15.64
19.67
25.45
31.88
37.77
42.29
45.16
46.60
47.07
46.92
46.13
44.41
41.36
36.75
30.70
23.59
15.92
8.12
0.45
-7.02
-14.32
-21.53
-28.64
-35.63
-42.44
-49.05
-55.48
-61.78
-67.92
-73.70
-78.72
-82.38
-84.00
-83.17
-79.84
-74.52
-68.11
-61.68
-56.08
-51.69
-48.34
-45.43
-42.28
-38.39
-33.72
-28.62
-23.62
-19.10
-15.04
-11.01
-6.36
-0.57
6.53
14.67
23.29
31.74
39.39
45.74
50.41
53.21
54.27
54.13
53.69
54.04
56.12
60.39
66.71
74.49
82.82
90.74
97.31
101.69
103.18
101.42
96.50
89.10
80.34
71.40
63.25
56.26
50.28
44.83
39.39
33.53
27.05
19.89
12.26
4.78
-1.36
-4.62
-3.78
1.32
9.21
17.01
21.37
19.86
12.03
-0.48
-14.78
-28.09
-38.80
-46.77
-52.82
-57.83
-62.24
-65.95
-68.79
-71.08
-73.80
-78.45
-86.31
-97.86
-112.19
-127.05
-139.27
-145.74
-144.47
-135.34
-120.22
-102.25
-84.63
-69.47
-57.16
-46.60
-36.18
-24.78
-12.43
-0.21
10.51
18.75
24.45
28.18
30.70
32.32
32.77
31.54
28.36
23.66
18.54
14.43
12.52
13.30
16.55
21.53
27.37
33.33
38.90
43.75
47.66
50.52
52.24
52.81
52.22
50.43
47.42
43.30
38.45
33.52
29.37
26.83
26.63
29.27
35.14
44.33
56.54
70.71
84.78
95.82
100.57
96.29
81.48
56.42
23.27
-14.21
-51.09
-82.05
-102.40
-109.24
-102.41
-84.80
-61.63
-38.88
-21.50
-12.07
-10.56
-14.97
-22.56
-30.85
-38.08
-43.12
-45.28
-44.12
-39.63
-32.44
-23.92
-16.04
-10.86
-9.85
-13.39
-20.53
-29.22
-36.87
-41.12
-40.42
-34.30
-23.25
-8.35
9.23
28.54
48.90
69.91
91.17
112.21
132.45
151.34
168.43
183.38
195.91
205.66
212.09
214.60
212.93
207.40
198.88
188.50
177.09
164.96
151.97
137.90
122.64
106.29
88.88
70.27
50.34
29.49
8.93
-9.52
-24.24
-34.62
-41.38
-45.94
-49.39
-51.57
-51.14
-46.53
-37.24
-24.68
-11.89
-2.37
1.44
-0.91
-7.85
-16.69
-24.79
-30.42
-33.04
-32.96
-30.79
-27.11
-22.35
-16.90
-11.26
-6.20
-2.46
-0.71
-1.20
-3.80
-7.83
-12.16
-15.42
-16.48
-15.21
-12.91
-12.40
-17.16
-29.98
-51.62
-80.44
-112.82
-144.83
-173.66
-198.51
-220.59
-242.30
-266.27
-294.23
-326.01
-358.86
-387.43
-404.92
-404.95
-383.99
-342.82
-286.32
-221.47
-154.66
-89.77
-27.83
31.42
87.56
138.21
179.76
209.29
226.55
234.56
238.35
242.56
249.25
257.18
262.58
261.39
251.18
232.17
206.95
179.30
152.92
130.54
113.51
101.77
94.37
90.02
87.54
86.53
87.68
92.36
102.07
117.51
137.73
160.14
180.93
196.35
203.96
203.11
194.60
179.47
158.31
131.27
99.17
64.53
31.31
3.78
-15.23
-25.14
-26.94
-21.87
-10.38
7.36
30.07
54.32
75.26
88.55
92.59
88.87
80.25
68.46
52.52
29.35
-3.97
-47.37
-97.17
-147.35
-192.02
-228.10
-255.87
-277.76
-296.78
-315.65
-335.07
-353.48
-367.52
-373.41
-368.83
-354.12
-332.68
-310.06
-293.17
-286.01
-286.93
-288.27
-279.36
-251.28
-200.52
-130.48
-50.40
25.14
81.41
107.59
100.48
65.55
15.61
-32.75
-64.75
-73.32
-64.35
-52.51
-54.00
-78.17
-123.99
-182.71
-243.13
-296.87
-322.43
-305.74
-244.88
-152.39
-47.29
55.32
147.25
224.82
286.02
329.92
354.00
358.95
347.49
324.88
297.32
269.43
242.83
216.61
188.30
152.34
104.75
46.81
-16.07
-77.05
-130.88
-174.71
-206.08
-221.21
-217.10
-192.38
-149.25
-94.03
-36.20
13.37
45.24
54.16
40.73
10.71
-25.96
-58.27
-77.74
-81.03
-70.70
-53.17
-35.30
-21.08
-11.65
-4.50
2.37
9.52
16.27
21.79
26.23
30.91
37.77
47.71
60.19
73.34
85.07
94.22
100.98
106.46
112.21
119.78
129.68
141.04
152.35
162.70
172.62
184.37
201.07
222.22
246.73
271.05
288.98
293.99
281.92
252.50
209.38
158.35
104.95
53.21
4.50
-42.55
-89.96
-138.70
-188.00
-235.75
-279.44
-317.15
-347.48
-363.57
-360.07
-334.82
-290.46
-233.49
-171.56
-110.90
-55.85
-8.86
28.82
56.17
73.18
81.37
83.57
83.14
83.13
85.02
88.69
92.67
94.37
91.55
83.48
71.92
58.57
45.22
32.67
20.29
6.37
-11.40
-34.89
-64.75
-100.24
-139.18
-177.84
-211.38
-234.56
-243.31
-236.13
-215.03
-184.73
-150.65
-116.46
-82.60
-47.36
-9.41
28.75
61.39
81.23
82.98
66.40
37.11
4.92
-19.83
-29.67
-22.06
0.47
30.73
58.38
71.88
61.26
21.68
-44.02
-124.77
-204.21
-265.85
-298.93
-301.56
-280.05
-245.35
-208.09
-175.43
-149.98
-131.20
-117.24
-106.37
-97.33
-88.99
-80.18
-69.42
-55.71
-38.81
-19.57
0.65
20.28
38.64
56.52
75.76
97.56
119.98
136.88
139.18
119.07
74.82
13.31
-51.34
-103.26
-131.12
-132.35
-112.74
-82.24
-49.76
-19.75
7.63
34.16
60.72
86.32
109.00
127.50
142.48
156.10
171.13
189.56
212.10
238.08
266.08
294.27
320.62
342.92
358.85
366.09
362.28
345.21
313.12
265.48
203.93
132.84
58.95
-10.30
-68.92
-114.02
-145.88
-166.43
-177.05
-177.18
-164.68
-137.93
-97.92
-48.82
3.34
52.89
96.12
131.08
156.31
169.86
169.97
156.85
134.25
108.96
88.29
76.88
74.94
78.94
84.10
86.93
86.30
82.45
75.24
62.99
42.98
13.13
-26.26
-71.64
-116.75
-154.28
-177.96
-184.45
-174.16
-150.87
-120.16
-87.23
-55.28
-25.20
3.63
31.97
60.05
87.66
114.55
140.47
164.56
184.65
197.47
200.25
192.60
177.53
160.33
145.76
135.04
124.95
109.46
83.23
44.84
-2.68
-53.76
-103.49
-149.89
-193.89
-237.30
-280.19
-319.70
-350.63
-367.71
-367.81
-350.93
-319.60
-277.33
-227.33
-172.27
-114.64
-57.09
-2.23
48.05
92.72
130.93
161.11
180.59
186.76
179.10
160.81
138.38
119.03
107.32
103.01
102.06
99.61
93.49
85.45
79.63
79.26
83.83
88.87
87.80
75.04
48.50
10.38
-33.60
-76.03
-109.84
-129.96
-134.32
-123.92
-102.03
-73.08
-41.37
-10.26
18.24
43.48
65.85
86.42
106.05
124.53
139.98
149.14
148.75
137.45
117.24
93.33
72.31
59.36
56.20
60.63
68.10
73.79
74.22
67.35
51.66
25.35
-13.45
-65.06
-126.67
-191.67
-250.73
-294.46
-316.12
-313.21
-287.33
-242.96
-185.97
-122.64
-59.16
-1.03
47.66
84.95
111.19
128.22
137.86
140.68
135.92
122.84
102.73
79.74
59.92
48.58
47.68
54.89
65.07
73.18
76.73
76.30
73.87
70.46
64.52
52.21
29.49
-5.34
-49.95
-98.18
-141.59
-171.86
-182.94
-172.49
-142.25
-97.35
-45.05
7.03
52.43
86.95
109.09
119.78
121.68
118.18
112.27
105.59
98.14
88.96
77.50
64.65
52.82
44.83
42.14
43.98
47.73
50.63
51.40
50.60
49.18
46.31
38.10
18.52
-17.43
-70.14
-133.58
-196.50
-246.39
-273.85
-275.40
-253.44
-214.21
-164.87
-111.61
-59.03
-10.50
31.47
65.51
91.69
111.47
126.44
136.85
140.62
134.02
114.09
81.40
41.48
3.44
-23.58
-34.37
-29.74
-15.59
0.44
12.63
19.12
21.40
21.54
19.77
13.54
-1.11
-26.60
-61.58
-100.31
-134.53
-156.36
-161.16
-148.69
-122.50
-88.15
-51.11
-15.39
16.81
44.48
66.96
83.42
93.30
97.13
97.07
96.65
99.13
105.74
114.48
120.66
119.10
107.08
86.13
61.60
40.08
26.03
20.09
19.57
20.87
21.79
22.22
23.04
24.21
23.97
19.38
8.02
-10.49
-34.29
-60.42
-86.30
-110.55
-132.56
-151.37
-164.99
-170.77
-166.77
-153.10
-132.36
-108.81
-86.51
-67.74
-52.06
-37.04
-19.84
0.82
23.63
45.15
61.25
69.07
68.22
60.73
50.10
40.06
33.80
33.83
42.08
59.59
85.78
117.90
150.96
179.19
197.74
204.28
199.23
184.65
162.21
132.00
92.96
45.06
-8.35
-59.82
-99.54
-119.24
-115.73
-92.39
-57.50
-20.39
12.37
38.66
59.76
77.67
92.62
102.40
103.62
94.03
74.01
46.66
16.47
-12.30
-36.50
-54.21
-64.66
-67.90
-64.88
-57.64
-48.75
-40.66
-34.70
-30.60
-26.93
-21.97
-14.73
-5.50
4.36
13.01
18.87
21.02
19.24
13.80
5.30
-5.39
-17.17
-28.67
-38.39
-44.75
-46.60
-43.39
-35.76
-25.68
-16.18
-10.61
-11.44
-19.30
-32.50
-47.50
-59.93
-66.07
-64.01
-54.32
-40.01
-25.66
-16.25
-15.76
-26.09
-46.59
-74.26
-104.54
-132.37
-153.36
-164.44
-164.44
-154.01
-135.34
-111.56
-85.96
-61.37
-39.63
-21.61
-7.30
3.82
12.48
19.51
25.72
31.85
38.39
45.47
52.73
59.47
64.91
68.51
70.30
70.86
71.16
72.10
74.16
77.20
80.65
83.77
86.07
87.42
87.88
87.51
86.28
84.05
80.79
76.74
72.42
68.43
65.12
62.43
59.84
56.62
52.18
46.24
38.92
30.71
22.26
14.16
6.74
-0.01
-6.41
-12.94
-20.01
-27.85
-36.32
-45.07
-53.58
-61.35
-67.92
-72.98
-76.38
-78.12
-78.42
-77.68
-76.43
-75.13
-74.07
-73.32
-72.84
-72.72
-73.24
-74.77
-77.37
-80.50
-82.77
-82.24
-77.03
-66.02
-49.43
-28.82
-6.70
14.10
31.19
43.09
49.32
50.31
47.06
40.81
32.82
24.16
15.70
8.12
1.83
-2.97
-6.40
-8.72
-10.32
-11.68
-13.27
-15.57
-18.95
-23.43
-28.55
-33.27
-36.23
-36.30
-33.14
-27.51
-21.17
-16.21
-14.45
-16.75
-22.88
-31.69
-41.48
-50.44
-56.98
-60.02
-59.07
-54.30
-46.44
-36.63
-26.21
-16.39
-8.08
-1.76
2.54
5.18
6.77
8.02
9.50
11.46
13.80
16.15
18.03
19.13
19.42
19.12
18.56
17.97
17.32
16.41
14.98
12.90
10.24
7.23
4.28
1.91
0.77
1.49
4.42
9.37
15.51
21.57
26.33
29.06
29.76
28.93
27.21
24.96
22.18
18.78
14.80
10.61
6.63
3.10
-0.17
-3.59
-7.58
-12.25
-17.35
-22.44
-27.11
-31.14
-34.53
-37.34
-39.55
-41.14
-42.08
-42.50
-42.68
-42.98
-43.60
-44.52
-45.46
-46.06
-46.08
-45.50
-44.50
-43.30
-42.01
-40.60
-39.09
-37.69
-37.05
-38.14
-41.92
-48.91
-58.91
-71.02
-83.93
-96.36
-107.38
-116.44
-123.32
-127.95
-130.41
-130.91
-129.85
-127.70
-124.84
-121.42
-117.40
-112.71
-107.45
-102.00
-96.92
-92.68
-89.53
-87.51
-86.52
-86.44
-87.16
-88.36
-89.46
-89.69
-88.29
-84.75
-78.91
-70.88
-60.76
-48.48
-33.74
-16.21
4.31
27.63
53.14
79.68
105.62
129.03
148.00
161.10
167.82
168.74
165.29
159.21
151.83
143.59
134.24
123.53
111.92
100.66
91.23
84.34
79.29
74.19
66.81
55.80
40.90
22.48
0.62
-25.11
-54.80
-86.77
-116.73
-138.71
-147.47
-141.32
-123.38
-100.32
-79.39
-65.30
-58.69
-56.88
-56.04
-53.42
-48.26
-41.30
-33.38
-24.39
-13.14
2.06
22.61
48.94
80.25
114.45
148.39
178.32
200.74
213.36
215.95
210.52
200.58
189.83
180.79
174.04
168.47
162.33
154.30
144.11
132.50
120.42
108.47
96.56
84.28
71.43
58.48
46.47
36.45
28.62
21.89
14.18
3.31
-11.95
-31.19
-52.76
-74.65
-95.48
-114.84
-132.74
-148.78
-161.63
-169.67
-172.25
-170.88
-169.41
-172.56
-183.66
-202.79
-226.34
-248.35
-263.02
-266.70
-258.74
-240.71
-215.09
-184.05
-149.07
-111.38
-72.51
-34.43
0.88
32.08
58.81
81.44
100.25
114.70
123.42
124.85
118.19
104.10
84.79
63.47
43.64
28.36
19.84
19.13
25.98
38.76
54.76
70.69
83.53
91.35
93.74
91.60
86.68
