1513659866.00
64.000000
-0.00
-0.00
-0.00
-0.00
-0.00
-0.00
-0.00
-0.00
-0.00
-0.00
0.00
0.01
0.01
-0.00
-0.03
-0.05
-0.05
0.00
0.13
0.36
0.66
1.01
1.37
1.72
2.06
2.40
2.79
3.24
3.80
4.42
5.06
5.66
6.20
6.68
7.15
7.68
8.31
9.14
10.09
11.04
11.88
12.56
13.14
13.76
14.65
15.96
17.91
20.32
22.90
25.38
27.58
29.57
31.68
34.32
37.81
42.54
48.15
54.10
59.83
64.97
69.58
74.14
79.34
85.71
93.76
103.00
112.62
121.73
129.77
136.75
143.30
150.75
157.77
166.64
177.95
191.79
206.97
220.57
228.25
225.36
208.53
176.87
132.76
80.05
23.07
-34.94
-92.44
-149.16
-205.23
-260.37
-313.74
-363.87
-409.83
-450.91
-486.50
-515.74
-537.23
-549.22
-549.96
-538.37
-514.21
-478.67
-433.88
-382.45
-327.02
-269.84
-212.63
-156.66
-102.95
-52.37
-5.90
35.58
71.43
101.35
125.50
144.38
158.69
169.15
176.37
180.75
182.57
182.07
179.51
175.23
169.65
163.18
156.15
148.81
141.30
133.69
126.02
118.33
110.69
103.16
95.80
88.68
81.83
75.25
68.95
62.95
57.25
51.86
46.78
42.03
37.59
33.45
29.61
26.07
22.81
19.83
17.11
14.67
12.48
10.54
8.83
7.35
6.07
4.97
4.05
3.27
2.62
2.09
1.65
1.30
1.01
0.79
0.61
0.47
0.37
0.29
0.23
0.19
0.17
0.16
0.16
0.17
0.19
0.21
0.24
0.28
0.32
0.37
0.41
0.46
0.51
0.56
0.61
0.66
0.72
0.78
0.85
0.92
1.00
1.08
1.18
1.28
1.40
1.54
1.69
1.86
2.04
2.25
2.48
2.74
3.02
3.33
3.68
4.06
4.47
4.92
5.40
5.93
6.49
7.10
7.74
8.44
9.17
9.96
10.79
11.66
12.59
13.55
14.58
15.67
16.82
18.03
19.31
20.61
21.91
23.16
24.25
25.08
25.54
25.49
24.82
23.45
21.31
18.44
14.88
10.73
6.20
1.47
-3.21
-7.67
-11.70
-15.19
-18.04
-20.18
-21.61
-22.30
-22.33
-21.76
-20.74
-19.40
-17.88
-16.30
-14.72
-13.15
-11.53
-9.85
-8.13
-6.37
-4.63
-3.00
-1.53
-0.20
1.08
2.49
4.09
5.87
7.77
9.62
11.19
12.35
13.10
13.69
14.57
15.84
17.59
19.69
21.75
23.29
23.97
23.74
23.03
22.58
22.69
23.53
24.88
26.13
26.44
25.19
22.24
18.11
13.73
9.50
5.67
1.97
-2.41
-8.74
-18.70
-34.25
-57.66
-86.07
-117.36
-148.06
-173.61
-189.52
-192.90
-183.67
-164.66
-140.47
-115.64
-93.86
-76.42
-62.86
-52.07
-43.23
-36.08
-30.55
-26.32
-22.54
-18.75
-14.60
-10.32
-6.60
-4.39
-4.29
-6.25
-9.61
-13.29
-16.61
-19.15
-21.01
-22.75
-25.16
-28.93
-34.30
-41.00
-48.36
-55.74
-62.58
-68.51
-73.33
-76.79
-78.44
-77.59
-73.54
-65.79
-54.35
-39.69
-22.60
-4.00
15.28
34.61
53.49
71.45
87.90
102.21
113.75
122.09
127.07
128.85
127.82
124.46
119.36
113.20
106.69
100.50
95.08
90.46
86.19
81.63
76.20
69.72
62.45
55.05
48.17
42.18
37.05
32.39
27.80
23.04
18.14
13.30
8.69
4.37
0.20
-3.97
-8.33
-12.88
-17.48
-21.80
-25.47
-28.14
-29.56
-29.60
-28.19
-25.29
-20.95
-15.36
-8.95
-2.36
3.65
8.48
11.86
13.87
14.90
15.43
15.78
16.13
16.48
16.72
16.81
16.73
16.52
16.30
16.20
16.35
16.69
17.06
17.16
16.78
15.82
14.42
12.77
11.03
9.22
7.20
4.88
2.31
-0.30
-2.63
-4.53
-6.08
-7.58
-9.42
-11.87
-14.91
-18.26
-21.43
-23.87
-25.15
-24.99
-23.38
-20.55
-16.86
-12.73
-8.53
-4.52
-0.86
2.33
4.92
6.91
8.40
9.63
10.90
12.43
14.10
15.65
16.68
17.00
16.68
16.00
15.32
14.85
14.63
14.52
14.41
14.24
13.97
13.63
13.14
12.45
11.48
10.22
8.67
6.96
5.20
3.50
1.98
0.67
-0.49
-1.64
-2.99
-4.68
-6.74
-9.12
-11.71
-14.36
-16.93
-19.24
-21.04
-21.93
-21.57
-19.77
-16.57
-12.31
-7.45
-2.54
2.02
5.97
9.16
11.52
13.01
13.64
13.52
12.88
12.01
11.24
10.83
10.88
11.31
11.88
12.29
12.32
11.91
11.18
10.40
9.81
9.47
9.29
9.05
8.54
7.72
6.63
5.39
4.04
2.63
1.19
-0.19
-1.42
-2.50
-3.56
-4.95
-6.94
-9.62
-12.76
-15.83
-18.13
-19.07
-18.30
-15.83
-11.99
-7.31
-2.44
2.04
5.70
8.40
10.24
11.44
12.26
12.84
13.16
13.15
12.75
12.04
11.20
10.49
10.04
9.83
9.66
9.30
8.60
7.55
6.33
5.16
4.21
3.52
3.01
2.52
1.85
0.83
-0.58
-2.33
-4.23
-6.07
-7.70
-9.08
-10.38
-11.80
-13.52
-15.60
-17.92
-20.28
-22.46
-24.27
-25.49
-25.85
-24.99
-22.59
-18.50
-12.95
-6.59
-0.30
5.02
8.82
11.03
12.06
12.54
13.05
13.79
14.64
15.23
15.27
14.70
13.77
12.90
12.36
12.25
12.36
12.39
12.09
11.43
10.55
9.63
8.80
8.04
7.19
6.06
4.63
2.97
1.34
0.01
-0.82
-1.12
-1.09
-1.05
-1.32
-2.10
-3.36
-4.84
-6.28
-7.57
-8.77
-10.13
-11.86
-13.93
-15.98
-17.44
-17.78
-16.71
-14.36
-11.12
-7.54
-4.02
-0.77
2.17
4.81
7.10
8.99
10.35
11.15
11.50
11.55
11.50
11.42
11.37
11.32
11.24
11.15
11.06
10.95
10.78
10.53
10.22
9.91
9.62
9.33
8.92
8.27
7.34
6.25
5.20
4.37
3.79
3.31
2.68
1.69
0.36
-1.12
-2.51
-3.66
-4.60
-5.47
-6.43
-7.53
-8.77
-10.12
-11.59
-13.19
-14.90
-16.51
-17.69
-18.03
-17.22
-15.14
-12.03
-8.32
-4.54
-1.18
1.48
3.38
4.64
5.48
6.08
6.51
6.70
6.58
6.16
5.61
5.15
4.98
5.19
5.63
6.12
6.50
6.75
6.95
7.21
7.51
7.69
7.52
6.83
5.72
4.43
3.30
2.49
1.99
1.54
0.89
-0.10
-1.33
-2.58
-3.64
-4.47
-5.19
-6.06
-7.19
-8.57
-10.08
-11.57
-12.95
-14.23
-15.37
-16.22
-16.52
-15.94
-14.32
-11.68
-8.29
-4.61
-1.04
2.02
4.37
5.95
6.81
7.11
7.07
6.91
6.73
6.61
6.45
6.18
5.72
5.12
4.47
3.88
3.47
3.23
3.15
3.16
3.23
3.35
3.48
3.57
3.46
3.03
2.22
1.11
-0.13
-1.29
-2.28
-3.15
-4.04
-5.03
-6.12
-7.25
-8.33
-9.40
-10.58
-11.98
-13.60
-15.21
-16.43
-16.88
-16.32
-14.79
-12.48
-9.67
-6.61
-3.50
-0.51
2.18
4.41
6.08
7.16
7.75
8.00
8.06
8.02
7.94
7.80
7.56
7.19
6.70
6.12
5.54
5.06
4.77
4.67
4.72
4.80
4.82
4.69
4.34
3.66
2.59
1.11
-0.64
-2.38
-3.84
-4.88
-5.54
-6.07
-6.73
-7.74
-9.13
-10.90
-12.95
-15.15
-17.26
-18.95
-19.78
-19.32
-17.39
-14.13
-10.02
-5.70
-1.77
1.36
3.63
5.12
6.14
6.92
7.68
8.54
9.47
10.41
11.22
11.77
11.98
11.86
11.47
10.96
10.44
9.99
9.66
9.44
9.29
9.13
8.85
8.29
7.31
5.85
4.01
1.98
0.01
-1.68
-3.02
-4.04
-4.81
-5.44
-5.97
-6.47
-6.99
-7.58
-8.31
-9.25
-10.37
-11.58
-12.66
-13.35
-13.34
-12.40
-10.44
-7.55
-4.05
-0.41
2.84
5.22
6.46
6.49
5.45
3.60
1.23
-1.40
-4.11
-6.66
-8.82
-10.35
-11.01
-10.79
-9.80
-8.37
-6.85
-5.46
-4.26
-3.10
-1.80
-0.19
1.62
3.43
4.88
5.71
5.83
5.40
4.76
4.16
3.78
3.57
3.38
3.06
2.54
1.80
0.85
-0.32
-1.72
-3.32
-5.05
-6.79
-8.47
-10.10
-11.74
-13.49
-15.28
-16.98
-18.32
-19.02
-18.78
-17.48
-15.13
-11.97
-8.49
-5.26
-2.79
-1.24
-0.33
0.49
1.84
4.01
6.83
9.79
12.27
13.92
14.72
14.93
14.86
14.70
14.46
14.09
13.59
13.13
12.91
13.04
13.41
13.74
13.70
13.09
11.93
10.40
8.75
7.15
5.65
4.23
2.85
1.52
0.30
-0.77
-1.70
-2.52
-3.30
-4.07
-4.81
-5.49
-6.17
-6.93
-7.89
-9.11
-10.59
-12.23
-13.84
-15.21
-16.11
-16.38
-15.83
-14.37
-12.04
-9.00
-5.59
-2.22
0.76
3.13
4.91
6.26
7.34
8.28
9.08
9.67
10.02
10.13
10.08
9.94
9.79
9.65
9.49
9.37
9.38
9.59
9.98
10.43
10.75
10.65
10.01
8.79
7.20
5.55
4.20
3.36
3.00
2.86
2.56
1.78
0.40
-1.44
-3.43
-5.22
-6.63
-7.70
-8.63
-9.70
-11.05
-12.71
-14.53
-16.28
-17.67
-18.42
-18.29
-17.14
-14.96
-11.93
-8.37
-4.70
-1.28
1.66
4.00
5.71
6.82
7.36
7.46
7.31
7.12
7.06
7.19
7.46
7.78
8.08
8.43
8.92
9.59
10.35
11.05
11.49
11.57
11.27
10.64
9.72
8.55
7.16
5.63
4.09
2.64
1.33
0.14
-0.97
-2.01
-2.96
-3.83
-4.67
-5.61
-6.81
-8.34
-10.19
-12.23
-14.34
-16.41
-18.32
-19.89
-20.83
-20.75
-19.43
-16.84
-13.34
-9.45
-5.72
-2.54
-0.01
1.96
3.53
4.85
5.99
6.93
7.59
7.87
7.70
7.13
6.27
5.36
4.61
4.15
3.94
3.82
3.61
3.17
2.47
1.55
0.45
-0.83
-2.30
-3.98
-5.86
-7.84
-9.88
-11.81
-13.52
-14.91
-15.99
-16.88
-17.86
-19.16
-20.83
-22.70
-24.37
-25.50
-25.92
-25.77
-25.35
-24.82
-24.09
-22.73
-20.20
-16.16
-10.68
-4.28
2.25
8.06
12.51
15.32
16.57
16.69
16.17
15.42
14.53
13.17
10.75
6.69
0.71
-6.92
-15.30
-23.31
-29.89
-34.61
-37.81
-40.58
-44.19
-49.44
-56.21
-63.40
-69.50
-73.30
-74.45
-73.17
-69.80
-64.62
-58.29
-52.47
-49.72
-52.41
-60.68
-71.25
-77.86
-73.99
-56.16
-26.23
9.06
40.80
61.65
68.45
62.41
47.45
27.91
7.11
-12.81
-30.51
-45.19
-57.01
-67.45
-79.30
-95.41
-116.91
-141.70
-164.15
-176.46
-171.28
-144.57
-97.84
-38.43
22.25
71.59
99.35
99.96
73.51
25.12
-36.81
-102.87
-164.73
-216.39
-254.41
-277.24
-284.34
-275.58
-251.30
-212.80
-162.76
-105.04
-43.82
17.61
77.94
138.07
200.12
265.46
332.72
396.89
450.37
485.55
497.99
488.62
463.65
432.22
402.96
380.83
366.10
355.54
344.96
331.48
314.53
295.17
274.72
253.73
231.79
208.29
183.24
157.70
133.73
113.90
100.29
93.69
93.20
96.36
100.08
101.42
98.36
89.79
74.98
53.03
22.80
-16.71
-65.37
-121.22
-180.26
-236.88
-284.90
-318.67
-334.14
-329.58
-306.01
-267.12
-218.59
-167.05
-118.64
-77.87
-47.06
-26.44
-14.58
-9.22
-7.98
-8.84
-10.47
-12.18
-13.82
-15.45
-17.09
-18.52
-19.33
-19.03
-17.29
-14.05
-9.55
-4.25
1.25
6.37
10.62
13.62
15.15
15.20
14.03
12.13
10.13
8.55
7.61
7.09
6.43
5.03
2.57
-0.83
-4.58
-7.82
-9.82
-10.18
-8.98
-6.76
-4.25
-2.17
-1.02
-1.02
-2.09
-3.90
-6.04
-8.00
-9.33
-9.61
-8.61
-6.32
-3.09
0.44
3.52
5.46
5.99
5.25
3.74
2.06
0.64
-0.42
-1.37
-2.62
-4.46
-6.91
-9.69
-12.33
-14.40
-15.69
-16.29
-16.46
-16.53
-16.78
-17.28
-18.01
-18.77
-19.34
-19.49
-19.11
-18.20
-16.91
-15.45
-14.01
-12.73
-11.69
-10.90
-10.36
-10.03
-9.76
-9.34
-8.46
-6.94
-4.77
-2.19
0.37
2.52
4.03
4.93
5.38
5.58
5.67
5.65
5.52
5.34
5.25
5.36
5.70
6.05
6.06
5.32
3.58
0.84
-2.63
-6.44
-10.25
-13.81
-17.11
-20.12
-22.83
-25.15
-26.97
-28.23
-29.00
-29.52
-29.99
-30.52
-30.92
-30.82
-29.81
-27.66
-24.48
-20.78
-17.22
-14.37
-12.57
-11.76
-11.66
-11.97
-12.49
-13.29
-14.51
-16.21
-18.17
-19.88
-20.77
-20.35
-18.55
-15.58
-11.91
-8.04
-4.56
-2.21
-1.94
-4.67
-10.78
-19.58
-29.05
-36.31
-38.46
-33.72
-22.05
-5.11
14.46
33.91
51.02
64.35
73.04
76.71
75.29
69.22
59.64
48.23
36.91
27.31
20.28
15.85
13.39
12.04
11.10
10.18
9.15
7.96
6.43
4.30
1.39
-2.31
-6.52
-10.81
-14.84
-18.39
-21.55
-24.41
-27.09
-29.51
-31.48
-32.82
-33.47
-33.49
-33.03
-32.19
-30.95
-29.29
-27.26
-25.09
-23.22
-22.07
-21.95
-22.88
-24.60
-26.69
-28.68
-30.17
-30.87
-30.61
-29.28
-26.96
-23.84
-20.28
-16.71
-13.47
-10.80
-8.68
-6.97
-5.38
-3.68
-1.71
0.48
2.69
4.64
6.06
6.83
7.01
6.82
6.50
6.18
5.90
5.60
5.24
4.83
4.47
4.22
3.95
3.37
2.09
-0.18
-3.49
-7.67
-12.42
-17.46
-22.59
-27.68
-32.52
-36.77
-39.92
-41.53
-41.31
-39.35
-36.05
-32.11
-28.28
-25.25
-23.47
-23.04
-23.75
-25.10
-26.46
-27.24
-27.02
-25.62
-23.09
-19.64
-15.51
-10.97
-6.20
-1.36
3.50
8.35
13.18
17.98
22.72
27.36
31.79
35.80
39.11
41.44
42.64
42.79
42.30
41.74
41.64
42.22
43.29
44.29
44.52
43.42
40.70
36.39
30.73
24.12
17.06
10.08
3.65
-1.89
-6.49
-10.38
-13.90
-17.36
-20.81
-23.97
-26.40
-27.63
-27.40
-25.74
-22.97
-19.53
-15.96
-12.75
-10.30
-8.84
-8.39
-8.84
-9.99
-11.59
-13.34
-15.00
-16.22
-16.67
-16.08
-14.36
-11.62
-8.26
-4.80
-1.72
0.61
2.08
2.80
3.02
3.11
3.32
3.77
4.35
4.86
5.17
5.37
5.81
7.02
9.48
13.41
18.64
24.51
30.06
34.09
35.44
33.23
27.26
18.25
7.94
-1.21
-6.64
-6.64
-0.97
8.86
20.08
29.55
34.90
35.17
30.91
23.74
15.58
8.05
2.20
-1.43
-2.67
-1.58
1.47
5.64
9.68
12.19
12.02
8.72
2.65
-5.09
-13.13
-20.13
-25.26
-28.29
-29.56
-29.80
-29.77
-30.05
-30.83
-31.90
-32.85
-33.24
-32.84
-31.67
-29.90
-27.70
-25.17
-22.27
-18.99
-15.43
-11.87
-8.66
-6.08
-4.23
-2.96
-2.10
-1.53
-1.31
-1.50
-2.09
-2.81
-3.19
-2.85
-1.66
0.19
2.30
4.39
6.37
8.40
10.55
12.63
14.20
14.77
14.15
12.57
10.67
9.13
8.27
7.96
7.68
6.83
5.05
2.38
-0.86
-4.26
-7.53
-10.57
-13.39
-15.92
-17.99
-19.34
-19.72
-19.01
-17.29
-14.81
-11.91
-8.93
-6.21
-4.02
-2.62
-2.10
-2.33
-2.87
-3.17
-2.67
-1.14
1.32
4.36
7.71
11.36
15.63
21.00
27.80
36.16
45.95
56.77
67.82
77.64
83.89
83.79
75.02
57.11
32.15
4.41
-21.03
-40.18
-51.32
-55.18
-54.12
-50.87
-47.47
-45.02
-43.80
-43.92
-45.18
-46.89
-47.96
-47.26
-44.24
-39.25
-33.56
-28.85
-27.01
-28.81
-33.41
-38.75
-42.66
-43.80
-41.94
-37.85
-32.54
-27.79
-24.51
-22.27
-19.72
-15.81
-10.24
-3.13
5.10
14.30
22.89
29.79
35.30
40.99
48.27
57.43
67.45
75.60
78.24
69.53
45.45
6.47
-41.94
-91.74
-134.89
-165.29
-180.57
-168.88
-127.43
-65.92
-1.09
54.56
96.65
124.90
143.22
153.63
157.95
156.42
150.20
141.02
131.12
121.25
110.43
97.13
79.57
56.63
26.28
-11.92
-55.21
-97.60
-132.18
-153.49
-159.01
-149.96
-129.89
-104.60
-79.54
-58.69
-44.54
-39.08
-43.78
-58.72
-82.13
-110.10
-138.04
-161.54
-177.20
-183.16
-179.24
-166.62
-147.14
-123.10
-97.09
-72.18
-51.42
-36.92
-29.20
-26.95
-27.63
-28.52
-27.93
-25.64
-22.64
-20.10
-18.35
-16.41
-12.28
-3.73
10.72
31.38
57.28
86.45
116.14
143.11
163.86
175.40
176.18
167.11
151.67
135.08
122.57
117.68
121.49
133.18
151.39
175.21
204.11
236.81
269.90
297.54
312.77
309.80
286.03
242.76
184.31
116.62
46.05
-20.99
-78.34
-120.59
-144.37
-149.42
-138.85
-118.18
-93.40
-69.23
-48.30
-31.61
-19.44
-11.96
-9.03
-9.52
-10.98
-10.11
-4.06
8.41
26.45
47.67
69.32
89.17
105.70
117.46
122.57
118.64
103.87
78.20
43.68
3.58
-38.95
-81.80
-123.39
-161.50
-192.34
-211.42
-215.73
-206.25
-188.81
-172.23
-164.63
-169.65
-184.72
-201.99
-211.65
-205.66
-180.54
-138.38
-86.07
-33.23
10.66
39.15
50.90
49.88
43.60
39.91
43.85
55.79
71.71
85.42
91.38
86.78
72.22
50.79
26.65
4.00
-13.16
-20.83
-15.30
5.67
40.85
84.36
126.21
155.28
163.79
151.13
124.83
98.05
84.15
91.02
117.79
155.29
189.61
207.19
199.03
162.85
103.06
29.13
-46.97
-113.39
-160.74
-183.60
-181.19
-157.10
-118.27
-73.55
-32.11
-1.78
12.78
11.41
-1.09
-16.22
-24.67
-19.90
-0.75
28.28
59.18
84.05
98.00
100.36
93.68
81.46
66.20
48.44
27.18
1.24
-29.29
-62.21
-93.36
-117.67
-130.73
-130.25
-117.00
-94.61
-68.66
-45.09
-28.77
-22.49
-26.74
-40.05
-59.52
-81.37
-101.37
-115.42
-120.35
-115.16
-101.93
-85.82
-73.86
-72.21
-83.11
-103.01
-123.22
-133.00
-123.97
-93.66
-46.86
5.86
51.64
79.52
84.03
67.04
37.69
9.82
-2.43
10.21
48.13
101.78
154.38
187.85
189.68
157.95
102.11
39.35
-11.81
-38.02
-34.96
-7.49
33.18
74.03
104.29
117.89
113.95
96.14
71.26
47.62
33.08
32.99
48.16
73.94
100.89
117.46
113.86
85.56
35.35
-27.11
-87.98
-133.53
-154.59
-149.41
-123.89
-88.96
-56.35
-34.52
-26.61
-30.58
-41.46
-54.13
-65.12
-72.82
-76.49
-75.49
-69.48
-59.72
-49.28
-42.61
-44.22
-56.94
-80.35
-110.05
-138.67
-158.26
-163.67
-152.84
-126.49
-87.33
-39.09
13.81
67.33
117.85
162.03
195.85
217.24
227.05
228.25
224.03
215.19
200.66
178.12
145.18
99.25
41.32
-23.08
-85.56
-137.66
-174.40
-193.77
-196.42
-175.15
-131.50
-77.09
-27.05
6.39
24.17
27.45
16.48
-7.89
-43.09
-85.75
-129.77
-166.68
-188.21
-189.17
-170.18
-135.82
-92.55
-46.74
-4.04
33.10
65.63
95.83
125.22
152.64
176.02
193.73
205.18
210.15
209.43
204.48
196.65
186.71
174.43
159.96
144.31
129.16
115.82
105.08
97.09
91.29
86.72
82.20
77.06
71.28
65.08
58.37
50.78
41.83
31.15
18.61
4.39
-11.17
-27.53
-44.19
-60.58
-76.01
-89.45
-99.67
-105.56
-106.69
-103.74
-98.44
-93.14
-89.97
-90.16
-93.75
-99.86
-107.11
-114.16
-119.75
-122.70
-121.88
-116.40
-106.19
-92.34
-77.11
-63.27
-53.13
-47.72
-46.46
-47.67
-49.45
-50.55
-50.85
-51.19
-52.75
-56.26
-61.56
-67.71
-73.46
-77.85
-80.42
-81.10
-79.90
-76.67
-71.15
-63.21
-53.19
-41.72
-29.46
-16.63
-2.87
12.50
29.86
48.62
67.05
82.49
92.12
93.83
86.94
72.62
53.69
34.04
17.55
7.04
3.57
6.46
13.77
23.24
32.91
41.48
48.22
52.73
54.80
54.41
51.83
47.46
41.80
35.27
28.25
21.26
14.87
9.53
5.27
1.49
-2.73
-8.10
-14.58
-21.11
-26.00
-27.64
-25.21
-18.96
-10.19
-0.86
6.98
11.62
12.22
9.05
3.52
-2.18
-5.77
-5.61
-1.20
6.64
15.98
24.20
28.47
26.45
16.87
0.20
-21.28
-43.85
-63.33
-76.22
-80.65
-76.89
-67.10
-54.57
-42.66
-33.77
-28.54
-25.81
-23.08
-17.47
-6.90
9.15
29.29
50.62
69.48
82.52
87.58
84.17
73.54
58.20
41.34
25.97
14.48
8.32
7.94
12.81
21.41
31.48
40.48
46.32
48.03
46.06
41.87
37.04
32.54
28.48
24.49
20.37
16.17
11.96
7.38
1.50
-6.69
-17.33
-29.16
-39.75
-46.62
-48.48
-46.00
-41.33
-36.89
-34.08
-32.61
-31.05
-27.86
-22.29
-14.82
-6.66
0.84
6.79
10.91
13.34
14.23
13.43
10.52
5.08
-2.83
-12.37
-21.91
-29.47
-33.51
-33.48
-30.07
-24.73
-19.06
-14.07
-9.96
-6.27
-2.34
2.23
7.45
13.17
19.26
25.79
32.75
39.78
45.93
49.82
50.15
46.24
38.38
27.80
16.28
5.67
-2.50
-7.21
-7.91
-4.56
2.37
11.74
21.90
30.99
37.54
40.95
41.56
40.22
37.70
34.30
29.96
24.75
19.18
14.00
9.61
5.59
0.92
-5.29
-12.89
-20.49
-26.08
-28.19
-26.79
-23.31
-19.83
-17.92
-18.03
-19.63
-21.90
-24.41
-27.06
-29.75
-31.86
-32.29
-29.88
-24.18
-15.76
-6.16
2.69
9.16
12.43
12.73
11.08
8.80
7.05
6.42
6.90
7.97
8.95
9.27
8.71
7.41
5.76
4.32
3.55
3.70
4.70
6.17
7.51
8.05
7.30
5.19
2.09
-1.32
-4.26
-6.28
-7.36
-7.92
-8.63
-10.03
-12.30
-15.18
-18.04
-20.12
-20.75
-19.65
-16.93
-13.09
-8.87
-5.02
-2.09
-0.38
0.11
-0.41
-1.53
-2.78
-3.67
-3.94
-3.73
-3.65
-4.44
-6.57
-9.98
-14.16
-18.50
-22.70
-26.84
-31.19
-35.75
-40.05
-43.32
-44.94
-44.82
-43.44
-41.55
-39.78
-38.46
-37.73
-37.80
-39.01
-41.58
-45.23
-48.91
-50.99
-49.76
-44.02
-33.51
-18.98
-1.87
16.13
33.42
48.66
60.87
69.44
74.23
75.66
74.59
72.22
69.75
68.12
68.00
69.85
74.00
80.54
89.02
98.37
107.04
113.51
116.93
117.49
116.25
114.49
112.99
111.51
108.85
103.32
93.30
77.84
56.97
31.86
4.82
-20.98
-42.14
-56.04
-61.67
-60.10
-54.00
-46.68
-40.80
-37.61
-36.80
-37.12
-37.13
-35.85
-32.96
-28.68
-23.46
-17.76
-11.98
-6.44
-1.50
2.52
5.28
6.46
5.84
3.44
-0.30
-4.70
-9.22
-13.79
-18.86
-24.93
-31.87
-38.65
-43.64
-45.55
-44.33
-41.45
-39.30
-39.82
-43.47
-48.94
-53.93
-56.46
-55.96
-53.26
-49.90
-47.01
-44.66
-42.03
-38.14
-32.71
-26.42
-20.60
-16.49
-14.44
-13.82
-13.46
-12.46
-10.59
-8.45
-6.89
-6.47
-7.07
-7.92
-8.19
-7.36
-5.55
-3.44
-1.85
-1.32
-1.84
-2.92
-3.82
-3.95
-3.11
-1.52
0.28
1.79
2.75
3.28
3.77
4.73
6.54
9.34
13.03
17.30
21.76
25.98
29.60
32.35
34.09
34.77
34.43
33.21
31.32
29.06
26.72
24.54
22.64
21.01
19.59
18.25
16.88
15.39
13.69
11.72
9.46
6.97
4.35
1.76
-0.67
-2.84
-4.73
-6.39
-7.88
-9.24
-10.48
-11.54
-12.19
-12.16
-11.19
-9.14
-6.17
-2.63
0.91
3.95
6.12
7.36
7.78
7.69
7.39
7.13
7.01
6.94
6.69
5.91
4.33
1.96
-0.93
-3.78
-5.97
-7.14
-7.33
-7.09
-7.35
-9.05
-12.93
-19.01
-26.46
-33.67
-38.53
-39.09
-34.23
-24.20
-10.63
3.90
16.67
25.60
29.86
29.81
26.75
22.26
17.51
13.00
8.54
3.51
-2.53
-9.35
-16.03
-21.22
-23.72
-23.01
-19.42
-14.08
-8.53
-4.34
-2.82
-4.69
-9.85
-17.29
-25.31
-31.96
-35.75
-36.07
-33.20
-28.11
-21.94
-15.70
-10.07
-5.39
-1.72
0.97
2.80
3.86
4.06
3.34
1.81
-0.07
-1.59
-2.03
-1.04
1.16
3.87
6.29
7.93
8.79
9.18
9.36
9.33
8.76
7.16
4.19
-0.14
-5.41
-10.99
-16.37
-21.49
-26.73
-32.77
-40.14
-48.88
-58.61
-68.76
-79.04
-89.59
-100.63
-111.68
-121.11
-126.37
-125.29
-117.38
-104.36
-89.40
-75.37
-63.19
-51.73
-38.89
-23.34
-5.39
13.76
33.46
54.65
79.10
107.22
136.18
159.95
171.95
168.68
152.13
129.12
107.91
94.45
90.18
92.56
97.30
100.92
101.81
99.83
95.19
87.83
77.53
64.61
50.34
36.69
25.63
18.44
15.54
16.62
20.72
26.39
31.69
34.59
33.57
28.39
20.34
11.71
4.74
0.54
-1.46
-3.00
-6.02
-11.53
-19.15
-27.25
-33.64
-36.17
-33.25
-24.20
-9.72
7.87
24.83
36.87
40.63
34.99
21.63
4.35
-12.45
-25.43
-33.21
-36.21
-35.81
-33.49
-30.53
-28.24
-28.27
-32.32
-41.20
-53.58
-65.50
-71.36
-66.30
-48.79
-22.00
7.09
30.52
42.78
42.84
33.92
21.18
9.03
-0.51
-7.52
-12.77
-16.25
-16.88
-13.37
-5.45
5.42
16.49
24.85
28.61
27.47
22.64
16.07
9.65
4.67
1.63
0.45
0.70
1.89
3.55
5.25
6.59
7.26
7.12
6.26
5.03
3.92
3.30
3.31
3.69
3.93
3.41
1.68
-1.30
-5.20
-9.40
-13.21
-16.08
-17.64
-17.81
-16.66
-14.44
-11.48
-8.21
-5.08
-2.47
-0.60
0.54
1.15
1.61
2.29
3.51
5.42
7.99
10.97
13.89
16.20
17.36
17.09
15.36
12.44
8.76
4.73
0.67
-3.20
-6.67
-9.52
-11.54
-12.63
-12.97
-12.92
-12.90
-13.14
-13.56
-13.81
-13.48
-12.30
-10.26
-7.59
-4.60
-1.60
1.12
3.25
4.53
4.73
3.85
2.06
-0.36
-3.11
-5.96
-8.64
-10.79
-11.91
-11.52
-9.36
-5.65
-1.11
3.31
6.81
8.98
9.84
9.66
8.67
6.93
4.39
1.04
-2.90
-6.96
-10.59
-13.38
-15.21
-16.25
-16.80
-16.98
-16.73
-15.83
-14.09
-11.54
-8.40
-4.99
-1.56
1.76
4.87
7.58
9.59
10.49
9.94
7.85
4.43
0.18
-4.27
-8.23
-10.98
-11.95
-10.66
-7.03
-1.44
5.24
11.83
17.11
20.13
20.52
18.48
14.78
10.46
6.56
3.85
2.68
2.88
3.94
5.14
5.86
5.80
5.06
4.12
3.64
4.23
6.20
9.36
13.11
16.59
18.94
19.62
18.60
16.41
13.95
12.16
11.62
12.38
13.88
15.22
15.51
14.19
11.18
6.91
2.21
-1.96
-4.74
-5.68
-4.86
-2.98
-1.15
-0.49
-1.75
-4.98
-9.51
-14.16
-17.69
-19.14
-18.22
-15.29
-11.31
-7.49
-4.81
-3.85
-4.57
-6.49
-8.95
-11.47
-13.81
-15.94
-17.87
-19.45
-20.44
-20.59
-19.86
-18.43
-16.71
-15.02
-13.53
-12.17
-10.71
-8.89
-6.60
-3.97
-1.33
0.93
2.45
3.08
2.87
2.05
0.84
-0.56
-2.08
-3.73
-5.48
-7.32
-9.24
-11.17
-13.05
-14.64
-15.55
-15.33
-13.69
-10.78
-7.21
-3.87
-1.48
-0.29
0.06
0.33
1.27
3.34
6.40
9.87
12.79
14.09
12.85
8.64
1.80
-6.57
-14.72
-20.85
-23.50
-22.17
-17.23
-9.79
-1.32
6.80
13.37
17.67
19.45
19.02
17.27
15.35
14.40
15.13
17.58
21.18
24.98
28.05
29.90
30.54
30.50
30.46
30.92
31.90
32.72
32.21
29.01
22.14
11.49
-1.93
-16.09
-28.58
-37.16
-40.53
-38.60
-32.47
-24.10
-15.71
-9.13
-5.39
-4.54
-5.83
-8.21
-10.79
-13.18
-15.42
-17.68
-19.89
-21.48
-21.61
-19.61
-15.35
-9.48
-3.23
2.07
5.48
6.69
6.08
4.41
2.50
0.98
0.16
0.10
0.79
2.26
4.59
7.83
11.75
15.70
18.74
19.89
18.58
14.86
9.26
2.39
-5.40
-13.83
-22.25
-29.13
-32.25
-29.61
-20.70
-7.23
7.22
18.58
24.04
23.10
17.36
9.34
1.13
-6.34
-12.99
-18.88
-23.57
-26.07
-25.44
-21.43
-14.89
-7.49
-1.20
2.52
3.15
1.25
-1.89
-4.83
-6.65
-7.23
-7.19
-7.42
-8.54
-10.54
-12.88
-14.88
-16.19
-17.18
-18.91
-22.84
-30.26
-41.74
-56.75
-73.82
-90.86
-105.89
-117.58
-125.32
-128.97
-128.36
-122.93
-111.82
-94.47
-71.27
-43.84
-14.92
12.48
35.67
52.74
62.64
64.97
59.86
48.09
31.30
11.87
-7.42
-24.13
-36.79
-45.02
-49.19
-49.79
-47.02
-40.77
-31.18
-19.12
-6.19
5.78
15.61
23.34
30.05
37.13
45.44
54.83
64.40
73.01
79.94
85.13
88.87
91.57
93.36
94.13
93.68
91.92
88.97
85.12
80.81
76.48
72.52
69.12
66.19
63.41
60.42
57.08
53.46
49.84
46.48
43.55
41.05
39.14
38.13
38.53
40.65
44.28
48.53
52.03
53.39
51.82
47.52
41.68
36.08
32.54
32.18
35.08
40.24
46.10
51.30
55.35
58.76
62.53
67.32
72.61
76.77
77.70
73.73
64.21
49.21
29.23
4.97
-22.29
-50.05
-74.60
-91.87
-99.08
-96.14
-86.03
-73.54
-63.18
-57.28
-55.21
-54.18
-50.85
-42.97
-30.31
-14.47
2.01
16.67
28.06
36.02
41.45
45.53
49.01
51.93
53.69
53.70
51.84
48.45
43.93
38.12
30.08
18.55
2.71
-17.07
-38.95
-60.03
-77.11
-87.56
-90.17
-85.34
-74.89
-61.52
-47.75
-35.23
-24.45
-15.08
-6.71
0.46
5.41
6.95
4.58
-0.68
-6.35
-9.58
-8.43
-2.90
5.10
12.73
17.56
18.59
16.53
13.03
9.77
7.60
6.32
5.17
3.46
1.15
-1.26
-2.97
-3.45
-2.58
-0.58
2.24
5.57
9.04
12.13
14.17
14.57
13.01
9.60
4.86
-0.62
-6.37
-12.17
-17.91
-23.57
-29.16
-34.71
-40.33
-46.09
-51.91
-57.34
-61.61
-63.74
-62.83
-58.43
-50.78
-41.08
-31.25
-23.53
-19.64
-20.12
-24.14
-29.98
-35.73
-40.17
-42.91
-44.02
-43.51
-40.96
-35.63
-27.08
-15.53
-1.95
12.29
25.93
38.38
49.78
60.77
72.10
84.12
96.41
107.64
115.86
119.03
115.85
106.31
91.71
74.39
57.02
41.95
30.68
23.71
20.56
19.94
20.04
19.05
15.67
9.43
0.73
-9.48
-20.08
-30.00
-38.39
-44.56
-48.18
-49.48
-49.43
-49.47
-50.99
-54.62
-59.96
-65.81
-71.05
-75.21
-78.58
-81.52
-83.51
-82.79
-77.11
-65.21
-48.02
-28.89
-12.53
-3.03
-2.44
-10.22
-23.85
-40.11
-56.19
-70.14
-80.88
-87.91
-91.20
-91.19
-88.85
-85.35
-81.71
-78.37
-75.10
-71.19
-65.71
-57.87
-47.29
-34.09
-18.87
-2.55
13.83
29.36
43.44
55.89
66.90
76.87
86.20
94.98
102.91
109.39
113.82
115.87
115.81
114.33
112.27
110.24
108.34
106.32
103.81
100.78
97.65
95.07
93.44
92.46
91.10
87.71
80.63
68.71
51.66
30.29
6.47
-17.21
-38.05
-54.04
-64.42
-69.87
-72.10
-73.04
-73.98
-75.30
-76.61
-77.27
-76.85
-75.38
-73.01
-69.85
-65.81
-60.69
-54.43
-47.23
-39.61
-32.24
-25.77
-20.71
-17.39
-15.89
-15.97
-17.15
-18.83
-20.55
-22.02
-23.17
-24.01
-24.43
-24.26
-23.33
-21.75
-19.91
-18.40
-17.62
-17.71
-18.43
-19.37
-20.26
-21.05
-21.94
-23.19
-24.90
-27.05
-29.42
-31.88
-34.42
-37.16
-40.28
-43.90
-47.99
-52.24
-56.16
-59.17
-60.84
-61.18
-60.76
-60.58
-61.63
-64.39
-68.50
-72.95
-76.56
-78.54
-78.79
-77.73
-75.75
-72.86
-68.68
-62.61
-54.14
-42.52
-26.43
-3.99
26.59
65.66
110.92
157.42
198.86
229.95
248.38
255.40
254.68
250.30
244.97
239.50
233.43
226.29
218.30
210.29
202.97
196.12
188.48
178.12
163.41
143.81
120.12
94.22
68.21
43.73
21.45
1.26
-17.35
-34.70
-50.61
-64.44
-75.44
-83.04
-87.17
-88.26
-87.10
-84.63
-81.70
-78.89
-76.36
-73.87
-70.95
-67.10
-62.07
-55.96
-49.11
-41.97
-34.98
-28.44
-22.60
-17.68
-13.77
-10.72
-8.11
-5.32
-1.77
2.75
7.95
13.13
17.56
20.77
22.80
24.10
25.28
26.72
28.50
30.36
31.84
32.55
32.20
30.72
28.18
24.76
20.73
16.43
12.20
8.32
4.98
2.30
0.27
-1.16
-2.13
-2.83
-3.49
-4.38
-5.75
-7.73
-10.33
-13.39
-16.65
-19.87
-22.94
-25.91
-28.97
-32.27
-35.73
-38.98
-41.48
-42.72
-42.58
-41.38
-39.81
-38.55
-38.05
-38.31
-38.99
-39.75
-40.43
-41.21
-42.45
-44.41
-47.04
-49.98
-52.74
-54.89
-56.22
-56.71
-56.33
-55.11
-53.10
-50.58
-48.09
-46.21
-45.15
-44.36
-42.50
-37.89
-29.29
-16.79
-1.99
12.40
23.60
29.93
31.34
29.33
26.04
23.20
21.50
20.63
19.98
19.45
19.81
22.39
28.22
37.13
47.36
56.03
60.16
57.91
49.44
36.84
23.36
12.23
5.59
4.09
7.20
13.73
22.09
30.00
34.24
31.11
18.37
-2.66
-26.16
-43.28
-46.22
-32.19
-4.96
27.53
57.92
83.42
106.20
130.10
155.99
179.21
191.30
184.61
156.96
113.15
62.47
14.29
-25.69
-56.19
-78.86
-95.74
-107.74
-114.92
-117.45
-116.54
-114.28
-112.77
-113.05
-114.73
-116.06
-115.03
-110.30
-102.01
-91.83
-82.37
-76.11
-74.38
-76.95
-82.21
-88.08
-92.84
-95.67
-96.48
-95.58
-93.00
-88.47
-81.63
-72.46
-61.64
-50.45
-40.40
-32.80
-28.35
-27.13
-28.72
-32.43
-37.41
-42.71
-47.20
-49.72
-49.19
-45.05
-37.55
-27.99
-18.56
-11.63
-8.90
-10.62
-15.40
-20.61
-23.45
-21.95
-15.73
-6.01
4.96
14.65
21.13
23.53
21.98
17.36
10.85
3.62
-3.37
-9.34
-13.71
-16.15
-16.73
-16.03
-15.15
-15.37
-17.60
-21.93
-27.41
-32.36
-34.97
-34.01
-29.30
-21.68
-12.70
-3.95
3.38
8.75
12.20
14.17
15.14
15.49
15.44
15.13
14.73
14.51
14.80
15.81
17.53
19.66
21.63
22.86
23.00
22.05
20.39
18.56
17.07
16.11
15.56
15.01
14.04
12.40
10.07
7.24
4.19
1.17
-1.71
-4.40
-6.97
-9.53
-12.28
-15.44
-19.20
-23.61
-28.42
-33.08
-36.76
-38.62
-38.04
-34.83
-29.33
-22.18
-14.21
-6.16
1.47
8.41
14.56
19.82
24.06
27.20
29.28
30.48
31.16
31.67
32.25
33.00
33.82
34.59
35.18
35.57
35.75
35.80
35.75
35.60
35.35
34.94
34.27
33.26
31.85
30.05
27.97
25.76
23.58
21.50
19.45
17.28
14.82
11.89
8.42
4.48
0.22
-4.16
-8.48
-12.68
-16.82
-21.08
-25.63
-30.48
-35.35
-39.62
-42.47
-43.07
-40.93
-36.06
-28.97
-20.55
-11.73
-3.31
4.20
10.56
15.73
19.75
22.70
24.68
25.84
26.34
26.37
26.12
25.80
25.56
25.49
25.56
25.70
25.78
25.79
25.84
26.17
26.93
28.09
29.36
30.28
30.45
29.75
28.35
26.63
24.96
23.51
22.17
20.71
18.91
16.71
14.19
11.51
8.85
6.27
3.78
1.33
-1.21
-4.09
-7.63
-12.11
-17.58
-23.65
-29.57
-34.30
-36.87
-36.73
-33.81
-28.56
-21.73
-14.12
-6.43
0.85
7.35
12.84
17.17
20.34
22.49
23.91
24.91
25.75
26.58
27.43
28.21
28.82
29.23
29.46
29.56
29.65
29.78
29.97
30.14
30.16
29.88
29.19
28.02
26.43
24.58
22.66
20.86
19.27
17.86
16.55
15.22
13.81
12.36
10.95
9.70
8.68
7.79
6.82
5.40
3.21
0.05
-4.02
-8.66
-13.29
-17.25
-19.92
-20.87
-19.94
-17.22
-12.98
-7.65
-1.69
4.44
10.29
15.43
19.48
22.18
23.46
23.50
22.67
21.46
20.32
19.51
19.05
18.82
18.60
18.29
17.91
17.59
17.52
17.81
18.43
19.22
19.94
20.41
20.54
20.34
19.86
19.10
17.97
16.39
14.34
11.96
9.49
7.21
5.24
3.58
2.02
0.32
-1.74
-4.21
-7.05
-10.17
-13.45
-16.79
-19.93
-22.52
-24.09
-24.17
-22.49
-19.13
-14.55
-9.45
-4.61
-0.56
2.46
4.57
6.09
7.36
8.56
9.73
10.79
11.58
12.05
12.19
12.08
11.82
11.46
11.04
10.54
10.04
9.64
9.46
9.56
9.85
10.15
10.19
9.78
8.83
7.45
5.82
4.16
2.63
1.28
-0.00
-1.33
-2.85
-4.60
-6.56
-8.66
-10.79
-12.82
-14.54
-15.71
-16.03
-15.25
-13.27
-10.32
-6.82
-3.27
-0.05
2.70
5.03
7.06
8.83
10.24
11.20
11.72
11.97
12.31
12.97
14.03
15.32
16.48
17.19
17.31
16.83
15.94
14.84
13.69
12.58
11.56
10.61
9.65
8.60
7.34
5.85
4.21
2.56
1.03
-0.33
-1.63
-3.02
-4.67
-6.65
-8.95
-11.38
-13.64
-15.41
-16.32
-16.14
-14.77
-12.32
-9.03
-5.30
-1.52
1.94
4.81
6.95
8.34
9.09
9.39
9.35
9.04
8.38
7.25
5.58
3.47
1.16
-1.01
-2.77
-3.98
-4.65
-4.85
-4.67
-4.17
-3.35
-2.27
-1.06
0.04
0.77
0.99
0.68
-0.04
-0.99
-2.03
-3.09
-4.13
-5.12
-5.99
-6.69
-7.24
-7.82
-8.63
-9.91
-11.69
-13.79
-15.82
-17.29
-17.77
-17.01
-15.00
-11.97
-8.31
-4.53
-1.02
1.94
4.24
5.93
7.18
8.18
9.10
10.09
11.17
12.30
13.35
14.16
14.64
14.81
14.80
14.78
14.82
14.81
14.54
13.72
12.14
9.75
6.64
3.00
-0.89
-4.77
-8.36
-11.44
-13.90
-15.75
-17.10
-18.09
-18.81
-19.22
-19.21
-18.65
-17.51
-15.90
-14.03
-12.18
-10.59
-9.50
-9.04
-9.21
-9.88
-10.74
-11.38
-11.35
-10.33
-8.17
-4.97
-1.06
3.10
7.00
10.21
12.42
13.52
13.62
12.92
11.69
10.18
8.58
7.03
5.65
4.55
3.78
3.32
3.08
2.98
3.00
3.12
3.36
3.68
3.96
4.08
3.96
3.64
3.26
2.95
2.80
2.77
2.74
2.66
2.53
2.41
2.36
2.38
2.41
2.36
2.21
1.95
1.58
1.06
0.24
-1.02
-2.85
-5.19
-7.83
-10.43
-12.58
-13.92
-14.21
-13.37
-11.54
-9.01
-6.16
-3.40
-0.99
0.92
2.30
3.17
3.54
3.37
2.60
1.25
-0.55
-2.54
-4.39
-5.93
-7.08
-8.01
-8.98
-10.29
-12.09
-14.37
-16.95
-19.54
-21.88
-23.69
-24.74
-24.79
-23.68
-21.35
-17.94
-13.77
-9.20
-4.63
-0.27
3.80
7.58
11.08
14.22
16.86
18.81
19.96
20.21
19.54
17.99
15.65
12.81
9.95
7.71
6.65
7.15
9.09
11.94
14.89
17.14
18.17
17.86
16.48
14.43
12.16
9.98
8.10
6.62
5.54
4.79
4.19
3.58
2.81
1.87
0.81
-0.28
-1.36
-2.40
-3.33
-4.09
-4.55
-4.68
-4.56
-4.38
-4.40
-4.74
-5.33
-5.93
-6.23
-6.02
-5.30
-4.26
-3.22
-2.52
-2.38
-2.86
-3.84
-5.06
-6.21
-7.12
-7.78
-8.34
-9.06
-10.11
-11.43
-12.73
-13.59
-13.63
-12.68
-10.84
-8.41
-5.74
-3.13
-0.78
1.20
2.74
3.80
4.39
4.56
4.47
4.26
4.07
3.97
3.97
4.02
4.07
4.12
4.16
4.18
4.20
4.17
4.09
3.89
3.56
3.07
2.44
1.69
0.89
0.10
-0.59
-1.01
-1.08
-0.81
-0.40
-0.15
-0.37
-1.22
-2.57
-4.14
-5.59
-6.80
-7.88
-9.12
-10.79
-12.83
-14.88
-16.32
-16.59
-15.44
-13.04
-9.89
-6.61
-3.76
-1.61
-0.22
0.56
0.98
1.30
1.70
2.26
3.01
3.87
4.76
5.52
6.04
6.26
6.16
5.80
5.26
4.67
4.10
3.62
3.30
3.14
3.16
3.26
3.33
3.17
2.59
1.48
-0.11
-1.96
-3.77
-5.21
-6.10
-6.35
-6.07
-5.50
-4.93
-4.69
-5.00
-5.96
-7.50
-9.41
-11.33
-12.93
-13.92
-14.13
-13.57
-12.33
-10.65
-8.70
-6.65
-4.59
-2.59
-0.75
0.83
2.04
2.83
3.25
3.43
3.55
3.71
3.91
4.04
4.06
3.94
3.81
3.85
4.19
4.80
5.52
6.09
6.24
5.86
4.96
3.75
2.46
1.29
0.35
-0.42
-1.12
-1.84
-2.54
-3.11
-3.44
-3.52
-3.46
-3.51
-3.93
-4.84
-6.19
-7.74
-9.21
-10.26
-10.67
-10.30
-9.10
-7.22
-4.88
-2.40
-0.08
1.86
3.33
4.32
4.84
4.91
4.52
3.71
2.61
1.42
0.36
-0.37
-0.61
-0.31
0.54
1.80
3.25
4.63
5.76
6.59
7.15
7.54
7.75
7.67
7.13
6.05
4.57
2.89
1.32
0.02
-1.00
-1.84
-2.63
-3.47
-4.46
-5.57
-6.81
-8.15
-9.53
-10.80
-11.78
-12.22
-11.96
-10.90
-9.11
-6.82
-4.33
-2.00
-0.11
1.21
2.02
2.55
3.10
3.91
5.05
6.43
7.81
8.90
9.54
9.72
9.59
9.40
9.32
9.34
9.32
9.05
8.42
7.47
6.42
5.54
5.04
4.93
5.10
5.35
5.48
5.43
5.25
5.06
4.95
4.95
5.00
4.98
4.76
4.23
3.42
2.39
1.33
0.44
-0.10
-0.17
0.27
1.26
2.79
4.85
7.31
9.95
12.48
14.64
16.24
17.20
17.55
17.31
16.54
15.33
13.83
12.24
10.74
9.34
7.81
5.75
2.79
-1.16
-5.76
-10.19
-13.47
-14.68
-13.35
-9.70
-4.59
0.58
4.29
5.35
3.32
-1.37
-7.51
-13.62
-18.39
-21.10
-21.77
-20.93
-19.38
-17.78
-16.56
-15.99
-16.20
-17.23
-19.01
-21.22
-23.30
-24.53
-24.33
-22.46
-19.24
-15.51
-12.31
-10.54
-10.62
-12.44
-15.51
-19.26
-23.38
-27.87
-32.94
-38.66
-44.76
-50.56
-55.15
-57.82
-58.48
-57.82
-57.09
-57.58
-60.07
-64.46
-69.81
-74.81
-78.08
-78.48
-75.15
-67.63
-56.13
-41.66
-26.04
-11.19
1.73
13.06
24.57
38.55
56.46
77.86
100.38
120.68
136.01
145.28
149.30
150.13
150.04
150.58
152.25
154.82
157.81
160.97
164.35
168.12
172.24
176.21
179.15
180.02
178.20
173.84
167.79
161.19
154.88
148.97
142.78
135.24
125.37
112.68
97.27
79.70
60.79
41.56
23.19
6.86
-6.45
-16.32
-23.21
-28.31
-32.98
-37.99
-43.14
-47.31
-49.19
-48.09
-44.46
-39.90
-36.48
-36.01
-39.34
-46.32
-56.09
-67.57
-79.76
-91.96
-103.55
-113.78
-121.74
-126.41
-127.01
-123.39
-116.27
-107.16
-97.96
-90.40
-85.42
-83.03
-82.38
-82.16
-81.17
-78.53
-73.88
-67.12
-58.29
-47.38
-34.52
-20.24
-5.58
8.04
19.28
27.16
31.39
32.15
30.01
25.86
20.95
17.13
16.70
21.97
34.32
53.46
77.17
101.78
123.38
138.96
147.23
148.51
144.21
136.04
125.47
113.53
100.80
87.54
73.73
59.29
44.25
29.09
14.71
2.08
-8.24
-16.38
-22.92
-28.31
-32.22
-33.53
-30.88
-23.69
-12.94
-1.06
8.91
14.58
14.98
10.58
2.67
-7.31
-18.22
-29.17
-39.46
-48.55
-56.36
-63.29
-70.14
-77.73
-86.48
-96.03
-105.39
-113.19
-118.18
-119.60
-117.34
-112.03
-104.76
-96.74
-89.00
-82.08
-75.93
-70.09
-63.97
-57.22
-49.83
-42.17
-34.85
-28.48
-23.50
-20.06
-18.05
-17.17
-17.02
-17.21
-17.41
-17.34
-16.90
-16.22
-15.75
-16.17
-18.10
-21.66
-26.32
-31.10
-35.06
-37.87
-39.97
-42.20
-45.30
-49.45
-54.21
-58.97
-63.31
-67.21
-70.88
-74.36
-77.39
-79.46
-80.15
-79.33
-76.97
-72.87
-66.41
-56.85
-43.85
-28.12
-11.51
3.39
14.30
20.19
21.57
20.15
17.78
15.69
14.03
12.34
10.17
7.78
6.16
6.50
9.45
14.41
19.66
22.90
22.35
17.71
10.36
3.02
-1.46
-1.15
4.11
12.58
21.28
27.11
27.94
23.26
14.16
2.68
-9.03
-19.40
-27.65
-33.54
-36.85
-37.19
-34.21
-28.10
-20.08
-12.26
-7.00
-5.82
-8.62
-13.61
-18.08
-19.65
-17.26
-11.66
-4.82
0.93
3.98
4.00
1.94
-0.50
-1.49
0.20
4.86
11.64
18.64
23.37
23.46
17.53
5.85
-9.25
-23.73
-32.84
-32.80
-22.43
-4.17
16.37
32.30
38.03
31.66
15.58
-4.71
-23.03
-35.03
-39.39
-37.48
-31.78
-24.49
-16.74
-8.99
-1.79
3.92
6.91
6.58
3.52
-0.30
-2.11
0.50
8.47
20.55
33.51
43.08
45.66
39.64
26.19
8.87
-7.80
-19.88
-25.38
-24.46
-18.94
-11.18
-3.23
3.66
8.99
12.59
14.33
14.03
11.63
7.37
1.86
-3.88
-8.83
-12.11
-13.30
-12.56
-10.54
-8.17
-6.32
-5.48
-5.56
-6.04
-6.16
-5.34
-3.36
-0.48
2.78
5.91
8.53
10.56
12.10
13.34
14.39
15.31
16.04
16.45
16.39
15.73
14.46
12.77
11.01
9.64
8.93
8.92
9.35
9.77
9.75
9.09
7.84
6.25
4.56
2.95
1.48
0.14
-1.07
-2.13
-3.10
-4.05
-5.20
-6.71
-8.71
-11.12
-13.67
-15.93
-17.41
-17.74
-16.69
-14.30
-10.82
-6.68
-2.43
1.29
3.93
5.08
4.57
2.69
0.06
-2.34
-3.47
-2.49
0.88
6.22
12.52
18.37
22.42
23.73
22.05
17.92
12.47
7.08
2.97
0.85
0.87
2.64
5.51
8.83
12.04
14.72
16.53
17.18
16.45
14.29
10.93
6.86
2.75
-0.79
-3.39
-4.98
-5.89
-6.59
-7.54
-8.96
-10.59
-11.84
-11.97
-10.41
-7.09
-2.46
2.64
7.37
11.17
13.86
15.51
16.26
16.13
15.07
13.13
10.56
7.89
5.63
4.15
3.43
3.18
3.03
2.69
2.18
1.69
1.48
1.74
2.51
3.72
5.25
6.96
8.71
10.27
11.36
11.68
11.01
9.38
7.01
4.24
1.42
-1.23
-3.65
-5.91
-8.09
-10.16
-11.94
-13.17
-13.63
-13.20
-11.90
-9.81
-7.03
-3.72
-0.12
3.41
6.46
8.69
9.96
10.40
10.39
10.35
10.60
11.23
12.11
13.03
13.81
14.41
14.82
15.02
14.97
14.58
13.83
12.76
11.57
10.46
9.55
8.81
8.06
7.10
5.77
4.12
2.32
0.56
-1.03
-2.44
-3.82
-5.26
-6.80
-8.36
-9.70
-10.54
-10.64
-9.89
-8.32
-6.17
-3.75
-1.37
0.75
2.52
3.93
5.02
5.85
6.43
6.80
7.04
7.22
7.41
7.59
7.67
7.48
6.94
6.01
4.81
3.54
2.39
1.48
0.83
0.39
0.08
-0.19
-0.49
-0.83
-1.25
-1.79
-2.46
-3.31
-4.42
-5.92
-7.92
-10.47
-13.41
-16.31
-18.58
-19.62
-19.07
-16.98
-13.68
-9.68
-5.53
-1.61
1.76
4.32
5.89
6.39
5.93
4.82
3.45
2.21
1.32
0.82
0.67
0.77
1.07
1.54
2.14
2.83
3.51
4.09
4.46
4.59
4.45
4.08
3.52
2.79
1.95
0.96
-0.14
-1.34
-2.62
-3.92
-5.20
-6.49
-7.88
-9.45
-11.27
-13.30
-15.36
-17.20
-18.48
-18.86
-18.14
-16.22
-13.22
-9.40
-5.15
-0.86
3.13
6.54
9.22
11.08
12.11
12.35
11.99
11.30
10.63
10.23
10.14
10.16
9.92
9.16
7.83
6.20
4.66
3.54
2.90
2.57
2.26
1.78
1.15
0.52
0.03
-0.31
-0.61
-1.06
-1.77
-2.75
-3.90
-5.13
-6.48
-8.05
-9.97
-12.25
-14.62
-16.57
-17.54
-17.08
-15.06
-11.73
-7.59
-3.20
0.99
4.72
7.91
10.52
12.52
13.87
14.53
14.48
13.75
12.42
10.64
8.75
7.20
6.47
6.86
8.32
10.39
12.40
13.74
14.08
13.51
12.32
10.90
9.42
7.87
6.22
4.44
2.65
0.95
-0.59
-2.07
-3.71
-5.74
-8.26
-11.12
-13.98
-16.35
-17.73
-17.79
-16.42
-13.73
-9.99
-5.58
-0.88
3.75
8.01
11.59
14.28
15.95
16.57
16.31
15.40
14.22
13.09
12.30
11.94
11.96
12.14
12.22
12.02
11.51
10.79
10.05
9.41
8.89
8.40
7.83
7.10
6.19
5.12
3.93
2.65
1.31
-0.10
-1.59
-3.17
-4.91
-6.87
-9.10
-11.53
-14.00
-16.27
-18.01
-18.88
-18.66
-17.24
-14.75
-11.49
-7.91
-4.39
-1.23
1.52
3.99
6.31
8.57
10.66
12.37
13.47
13.86
13.62
13.02
12.39
11.96
11.84
11.97
12.22
12.39
12.42
12.29
12.11
11.95
11.81
11.60
11.12
10.18
8.65
6.59
4.18
1.74
-0.49
-2.37
-3.99
-5.54
-7.21
-9.05
-10.84
-12.12
-12.43
-11.46
-9.23
-6.10
-2.61
0.73
3.58
5.87
7.72
9.22
10.43
11.24
11.56
11.39
10.85
10.24
9.84
9.85
10.26
10.95
11.71
12.36
12.81
13.04
13.02
12.71
12.05
10.99
9.60
8.00
6.32
4.71
3.26
1.93
0.63
-0.81
-2.62
-4.89
-7.54
-10.20
-12.27
-13.15
-12.52
-10.44
-7.40
-4.03
-0.89
1.78
4.02
6.01
7.83
9.40
10.60
11.35
11.74
11.96
12.15
12.29
12.23
11.82
11.07
10.18
9.45
9.11
9.14
9.26
9.08
8.34
7.02
5.33
3.67
2.36
1.52
1.06
0.71
0.17
-0.83
-2.40
-4.55
-7.07
-9.64
-11.78
-12.98
-12.77
-10.91
-7.52
-3.15
1.38
5.22
7.84
9.18
9.63
9.79
10.12
10.74
11.48
12.00
12.08
11.67
10.92
10.04
9.18
8.42
7.81
7.43
7.33
7.52
7.90
8.25
8.31
7.94
7.14
6.06
4.97
4.05
3.33
2.70
2.00
1.12
-0.01
-1.34
-2.81
-4.34
-5.83
-7.11
-7.95
-8.13
-7.47
-5.93
-3.62
-0.81
2.15
4.86
7.00
8.38
8.93
8.73
7.96
6.85
5.60
4.43
3.56
3.19
3.47
4.30
5.43
6.40
6.91
6.88
6.51
6.16
6.05
6.12
6.10
5.68
4.69
3.23
1.50
-0.33
-2.26
-4.44
-6.94
-9.65
-12.20
-14.11
-15.05
-15.01
-14.29
-13.34
-12.55
-12.05
-11.72
-11.27
-10.43
-9.06
-7.15
-4.89
-2.47
-0.09
2.15
4.25
6.17
7.91
9.35
10.36
10.77
10.52
9.68
8.44
7.09
5.95
5.25
5.13
5.52
6.29
7.25
8.19
8.92
9.33
9.31
8.81
7.80
6.34
4.57
2.74
1.12
-0.05
-0.60
-0.50
0.18
1.31
2.73
4.19
5.45
6.17
6.03
4.83
2.54
-0.59
-4.08
-7.28
-9.62
-10.68
-10.34
-8.76
-6.28
-3.35
-0.42
2.21
4.32
5.87
6.93
7.61
8.07
8.40
8.70
8.99
9.28
9.54
9.68
9.59
9.19
8.41
7.32
6.04
4.74
3.59
2.70
2.09
1.76
1.64
1.62
1.56
1.29
0.67
-0.35
-1.78
-3.57
-5.64
-7.93
-10.31
-12.59
-14.50
-15.84
-16.51
-16.66
-16.57
-16.58
-16.86
-17.36
-17.84
-18.01
-17.66
-16.76
-15.37
-13.57
-11.39
-8.85
-6.01
-3.06
-0.27
2.06
3.79
4.98
5.83
6.59
7.38
8.19
8.91
9.39
9.59
9.57
9.46
9.34
9.21
9.00
8.65
8.13
7.54
6.98
6.51
6.09
5.63
5.08
4.44
3.77
3.14
2.50
1.74
0.72
-0.59
-2.07
-3.46
-4.48
-4.94
-4.89
-4.53
-4.17
-4.03
-4.20
-4.61
-5.10
-5.52
-5.77
-5.84
-5.79
-5.66
-5.44
-5.00
-4.17
-2.86
-1.08
1.03
3.20
5.13
6.58
7.40
7.57
7.20
6.46
5.54
4.63
3.84
3.22
2.76
2.46
2.30
2.31
2.50
2.87
3.36
3.84
4.14
4.18
3.97
3.61
3.26
2.98
2.67
2.14
1.24
-0.02
-1.47
-2.84
-3.96
-4.85
-5.72
-6.78
-8.11
-9.55
-10.79
-11.53
-11.72
-11.55
-11.42
-11.63
-12.26
-13.09
-13.66
-13.53
-12.44
-10.47
-7.91
-5.23
-2.78
-0.76
0.79
1.93
2.69
3.06
3.07
2.81
2.42
2.06
1.78
1.56
1.31
1.01
0.72
0.58
0.74
1.20
1.87
2.54
3.02
3.21
3.19
3.11
3.11
3.23
3.37
3.39
3.20
2.84
2.46
2.20
2.08
1.98
1.66
0.89
-0.46
-2.37
-4.69
-7.12
-9.30
-10.87
-11.57
-11.27
-10.16
-8.55
-6.89
-5.46
-4.35
-3.48
-2.69
-1.86
-1.04
-0.34
0.12
0.30
0.28
0.18
0.16
0.31
0.70
1.33
2.16
3.16
4.20
5.12
5.75
5.95
5.75
5.28
4.76
4.36
4.12
3.97
3.70
3.21
2.43
1.45
0.39
-0.67
-1.70
-2.74
-3.89
-5.23
-6.83
-8.73
-10.80
-12.84
-14.55
-15.61
-15.82
-15.11
-13.55
-11.22
-8.31
-4.99
-1.57
1.61
4.13
5.71
6.19
5.64
4.30
2.50
0.59
-1.10
-2.33
-2.99
-3.09
-2.75
-2.12
-1.31
-0.37
0.71
1.89
3.06
4.02
4.55
4.55
4.00
3.03
1.84
0.65
-0.35
-1.06
-1.49
-1.72
-1.91
-2.24
-2.87
-3.86
-5.21
-6.84
-8.58
-10.28
-11.79
-12.99
-13.80
-14.16
-14.05
-13.46
-12.40
-10.99
-9.37
-7.76
-6.32
-5.19
-4.38
-3.91
-3.80
-4.02
-4.50
-5.01
-5.23
-4.88
-3.83
-2.20
-0.25
1.70
3.42
4.85
5.96
6.75
7.14
7.04
6.41
5.32
3.91
2.44
1.07
-0.06
-0.96
-1.68
-2.29
-2.82
-3.29
-3.70
-4.10
-4.68
-5.61
-6.98
-8.66
-10.28
-11.30
-11.27
-10.04
-7.87
-5.32
-2.99
-1.27
-0.21
0.46
1.04
1.70
2.43
3.07
3.52
3.81
4.08
4.43
4.84
5.18
5.25
5.00
4.54
4.11
3.88
3.87
3.94
3.91
3.67
3.22
2.70
2.21
1.78
1.37
0.89
0.32
-0.34
-1.01
-1.60
-2.07
-2.44
-2.82
-3.42
-4.47
-6.07
-8.05
-10.01
-11.39
-11.70
-10.71
-8.56
-5.69
-2.66
0.07
2.27
3.90
5.04
5.72
5.99
5.83
5.31
4.56
3.79
3.17
2.83
2.82
3.12
3.67
4.40
5.23
6.13
7.03
7.87
8.53
8.86
8.69
7.94
6.65
4.99
3.14
1.22
-0.78
-2.98
-5.49
-8.28
-11.16
-13.79
-15.82
-16.95
-17.11
-16.40
-15.10
-13.53
-11.99
-10.63
-9.50
-8.53
-7.69
-7.00
-6.51
-6.28
-6.26
-6.36
-6.52
-6.82
-7.52
-8.94
-11.29
-14.48
-18.14
-21.73
-24.81
-27.21
-29.08
-30.69
-32.35
-34.30
-36.75
-39.93
-44.07
-49.26
-55.28
-61.46
-66.74
-69.95
-70.06
-66.55
-59.42
-49.22
-36.85
-23.42
-10.03
2.28
12.77
21.09
27.36
32.13
36.22
40.34
44.91
49.91
54.92
59.28
62.40
63.88
63.72
62.22
59.90
57.31
54.97
53.23
52.22
51.88
51.91
51.90
51.34
49.80
47.10
43.31
38.84
34.19
29.84
26.04
22.81
20.02
17.49
15.09
12.76
10.45
8.06
5.43
2.45
-0.91
-4.51
-8.03
-11.05
-13.19
-14.17
-14.00
-12.85
-11.05
-8.96
-6.86
-4.90
-3.10
-1.40
0.31
2.11
4.02
5.93
7.67
9.00
9.77
9.92
9.56
8.93
8.25
7.73
7.38
7.17
7.00
6.82
6.59
6.37
6.19
6.04
5.83
5.42
4.66
3.50
2.04
0.47
-0.99
-2.27
-3.42
-4.57
-5.83
-7.17
-8.38
-9.23
-9.57
-9.42
-8.91
-8.19
-7.26
-5.99
-4.25
-2.03
0.46
2.90
5.00
6.59
7.64
8.18
8.25
7.88
7.11
6.11
5.05
4.13
3.42
2.86
2.35
1.83
1.39
1.17
1.32
1.84
2.56
3.17
3.33
2.81
1.56
-0.26
-2.36
-4.34
-5.92
-6.95
-7.46
-7.67
-7.85
-8.21
-8.84
-9.69
-10.60
-11.39
-11.90
-12.03
-11.68
-10.79
-9.31
-7.23
-4.63
-1.62
1.64
5.00
8.28
11.13
13.11
13.70
12.60
9.90
6.20
2.43
-0.47
-1.96
-2.05
-1.28
-0.46
-0.31
-1.17
-2.87
-4.82
-6.28
-6.63
-5.69
-3.71
-1.29
0.86
2.21
2.52
1.83
0.44
-1.23
-2.75
-3.71
-3.88
-3.25
-2.04
-0.65
0.52
1.20
1.37
1.21
1.06
1.23
1.87
2.93
4.10
4.96
5.13
4.50
3.24
1.74
0.42
-0.49
-0.97
-1.20
-1.38
-1.51
-1.44
-0.91
0.29
2.17
4.53
7.03
9.28
11.00
12.05
12.36
11.98
10.93
9.30
7.26
5.07
3.09
1.64
0.94
0.97
1.55
2.34
2.97
3.09
2.48
1.04
-1.09
-3.62
-6.09
-8.05
-9.13
-9.20
-8.39
-7.04
-5.56
-4.32
-3.49
-3.00
-2.64
-2.10
-1.17
0.16
1.72
3.21
4.30
4.81
4.75
4.23
3.47
2.64
1.85
1.17
0.62
0.27
0.09
0.08
0.12
0.08
-0.12
-0.44
-0.74
-0.82
-0.55
0.02
0.68
1.12
1.13
0.64
-0.25
-1.36
-2.50
-3.52
-4.28
-4.71
-4.79
-4.66
-4.50
-4.56
-4.96
-5.70
-6.61
-7.50
-8.21
-8.63
-8.66
-8.17
-7.08
-5.38
-3.30
-1.23
0.44
1.49
1.99
2.24
2.57
3.13
3.81
4.34
4.47
4.19
3.71
3.36
3.39
3.82
4.42
4.86
4.88
4.44
3.69
2.87
2.14
1.54
1.00
0.48
0.02
-0.27
-0.36
-0.44
-0.92
-2.19
-4.38
-7.19
-9.90
-11.69
-11.97
-10.69
-8.30
-5.52
-3.01
-1.06
0.42
1.75
3.25
5.05
7.07
9.06
10.85
12.34
13.51
14.35
14.78
14.64
13.82
12.38
10.54
8.63
6.90
5.38
3.91
2.21
0.03
-2.70
-5.86
-9.16
-12.27
-14.83
-16.63
-17.61
-17.96
-18.02
-18.16
-18.57
-19.16
-19.60
-19.52
-18.74
-17.35
-15.64
-13.93
-12.32
-10.74
-8.95
-6.85
-4.49
-2.14
-0.11
1.38
2.32
2.86
3.17
3.36
3.38
3.12
2.51
1.62
0.63
-0.22
-0.70
-0.74
-0.39
0.23
0.98
1.73
2.42
2.88
3.01
2.72
2.09
1.36
0.84
0.80
1.32
2.19
3.07
3.52
3.26
2.29
0.90
-0.48
-1.47
-1.86
-1.72
-1.33
-1.01
-1.02
-1.49
-2.35
-3.44
-4.59
-5.58
-6.32
-6.73
-6.80
-6.56
-6.04
-5.25
-4.24
-3.09
-1.90
-0.81
0.05
0.60
0.86
0.86
0.71
0.49
0.32
0.31
0.65
1.48
2.86
4.64
6.54
8.20
9.32
9.81
9.76
9.40
8.89
8.28
7.49
6.45
5.18
3.88
2.77
2.00
1.60
1.46
1.50
1.72
2.15
2.80
3.53
4.13
4.48
4.61
4.74
5.14
5.89
6.75
7.29
7.09
5.98
4.19
2.12
0.22
-1.31
-2.51
-3.64
-4.93
-6.46
-8.15
-9.68
-10.74
-11.03
-10.41
-8.91
-6.75
-4.19
-1.46
1.27
3.93
6.42
8.62
10.39
11.57
12.13
12.14
11.80
11.32
10.82
10.30
9.67
8.77
7.43
5.54
3.06
0.13
-2.92
-5.55
-7.28
-7.97
-8.03
-8.33
-9.87
-13.25
-18.21
-23.68
-28.29
-30.97
-31.55
-30.81
-30.01
-30.34
-32.44
-36.30
-41.46
-47.08
-52.00
-54.67
-53.49
-47.41
-36.66
-23.12
-9.95
-0.50
3.03
0.51
-6.10
-13.65
-19.17
-20.92
-18.79
-13.94
-8.04
-2.52
1.86
5.08
7.58
9.94
12.54
15.47
18.54
21.51
24.25
26.85
29.45
32.07
34.43
35.92
35.85
33.75
29.67
24.23
18.39
13.20
9.31
6.86
5.48
4.55
3.58
2.40
1.17
0.27
0.04
0.73
2.45
5.22
8.93
13.29
17.71
21.37
23.47
23.57
21.86
19.12
16.39
14.50
13.73
13.70
13.76
13.29
12.19
10.77
9.62
9.12
9.20
9.30
8.61
6.57
3.06
-1.48
-6.39
-10.98
-14.87
-18.02
-20.60
-22.86
-24.90
-26.84
-28.81
-31.21
-34.48
-38.90
-44.19
-49.29
-52.64
-52.64
-48.55
-40.88
-31.36
-22.29
-15.49
-11.63
-10.11
-9.71
-9.35
-8.66
-7.86
-7.22
-6.59
-5.23
-2.32
2.50
8.60
14.55
18.72
20.01
18.36
14.72
10.61
7.47
6.26
7.20
9.88
13.48
17.02
19.69
20.92
20.59
18.97
16.55
13.88
11.28
8.89
6.68
4.56
2.47
0.37
-1.80
-4.16
-6.80
-9.79
-13.10
-16.65
-20.39
-24.39
-28.75
-33.50
-38.59
-43.75
-48.51
-52.30
-54.48
-54.47
-51.98
-47.28
-41.29
-35.39
-30.76
-27.73
-25.35
-21.67
-14.56
-2.70
13.77
33.28
53.49
72.10
87.49
98.91
106.28
109.87
110.21
108.05
104.42
100.46
97.24
95.31
94.62
94.51
93.91
91.76
87.40
80.77
72.38
63.02
53.37
43.83
34.56
25.70
17.54
10.57
5.39
2.47
2.14
4.54
9.68
17.33
27.00
37.78
48.46
57.86
65.08
69.83
72.29
72.94
72.22
70.31
67.13
62.43
56.10
48.29
39.52
30.57
22.31
15.38
9.94
5.71
2.14
-1.24
-4.59
-7.73
-10.27
-11.93
-12.80
-13.30
-14.02
-15.42
-17.56
-20.02
-22.13
-23.27
-23.24
-22.46
-21.82
-22.36
-24.78
-29.14
-34.85
-41.05
-47.01
-52.27
-56.53
-59.34
-59.97
-57.64
-51.91
-43.22
-32.82
-22.46
-13.75
-7.59
-3.98
-2.19
-1.15
0.15
2.37
5.63
9.48
12.95
14.75
13.60
8.66
-0.29
-12.70
-27.48
-43.27
-58.75
-72.83
-84.83
-94.39
-101.39
-105.81
-107.49
-106.08
-101.08
-92.20
-79.56
-63.98
-46.96
-30.46
-16.62
-7.22
-3.33
-4.95
-10.90
-19.04
-26.79
-31.79
-32.54
-28.78
-21.34
-11.80
-1.94
6.76
13.37
17.57
19.40
19.20
17.41
14.56
11.11
7.50
4.06
0.91
-1.93
-4.50
-6.77
-8.60
-9.77
-10.09
-9.53
-8.19
-6.29
-4.05
-1.58
1.08
3.95
6.90
9.70
12.07
13.81
14.82
15.17
14.88
13.87
11.95
8.96
4.89
0.05
-5.07
-9.89
-13.90
-16.74
-18.22
-18.30
-17.09
-14.94
-12.43
-10.32
-9.34
-9.97
-12.15
-15.41
-18.94
-22.03
-24.36
-26.18
-28.03
-30.41
-33.36
-36.48
-39.08
-40.69
-41.20
-40.85
-39.81
-37.88
-34.29
-28.17
-19.00
-7.15
6.05
18.63
28.54
34.29
35.29
31.94
25.44
17.39
9.37
2.51
-2.70
-6.36
-8.84
-10.52
-11.47
-11.55
-10.60
-8.68
-6.13
-3.48
-1.12
0.81
2.50
4.25
6.28
8.59
10.91
12.87
14.18
14.69
14.46
13.58
12.16
10.28
8.01
5.53
3.03
0.75
-1.20
-2.76
-3.97
-4.88
-5.54
-6.00
-6.32
-6.63
-7.01
-7.45
-7.77
-7.68
-6.92
-5.43
-3.32
-0.87
1.65
4.03
6.18
8.05
9.63
10.84
11.60
11.78
11.32
10.20
8.53
6.52
4.54
2.96
2.09
2.07
2.76
3.84
4.87
5.42
5.23
4.28
2.73
0.88
-0.92
-2.45
-3.57
-4.29
-4.64
-4.71
-4.57
-4.40
-4.48
-5.04
-6.15
-7.61
-8.98
-9.75
-9.61
-8.59
-7.00
-5.29
-3.76
-2.47
-1.33
-0.17
1.06
2.26
3.26
3.92
4.21
4.21
4.02
3.74
3.43
3.14
2.91
2.75
2.65
2.58
2.46
2.29
2.12
2.07
2.17
2.36
2.42
2.06
1.03
-0.65
-2.76
-4.88
-6.61
-7.75
-8.30
-8.40
-8.15
-7.54
-6.50
-4.98
-3.12
-1.22
0.37
1.45
2.08
2.51
3.02
3.76
4.68
5.56
6.21
6.57
6.69
6.67
6.57
6.37
6.05
5.65
5.26
4.99
4.89
4.85
4.74
4.42
3.85
3.06
2.15
1.20
0.26
-0.64
-1.54
-2.42
-3.29
-4.06
-4.64
-4.91
-4.83
-4.44
-3.88
-3.36
-2.99
-2.75
-2.46
-1.92
-1.03
0.11
1.23
2.09
2.60
2.84
3.00
3.23
3.54
3.82
3.93
3.81
3.61
3.52
3.71
4.15
4.68
5.01
4.94
4.49
3.79
3.00
2.24
1.51
0.72
-0.21
-1.30
-2.51
-3.78
-5.05
-6.36
-7.71
-9.06
-10.27
-11.14
-11.40
-10.87
-9.50
-7.42
-4.96
-2.52
-0.49
0.88
1.64
1.98
2.19
2.53
3.07
3.77
4.47
5.00
5.28
5.37
5.41
5.57
5.86
6.22
6.44
6.39
6.01
5.50
5.13
5.13
5.57
6.30
7.05
7.50
7.53
7.08
6.25
5.16
3.89
2.59
1.36
0.30
-0.59
-1.37
-2.23
-3.30
-4.61
-5.97
-7.08
-7.56
-7.18
-6.01
-4.34
-2.61
-1.13
-0.03
0.78
1.47
2.14
2.73
3.07
3.09
2.85
2.59
2.57
2.92
3.58
4.39
5.17
5.92
6.71
7.60
8.60
9.59
10.43
11.08
11.53
11.78
11.77
11.36
10.43
8.99
7.24
5.46
3.84
2.41
0.99
-0.65
-2.64
-4.90
-7.20
-9.23
-10.76
-11.68
-11.94
-11.58
-10.62
-9.16
-7.34
-5.36
-3.40
-1.57
0.12
1.71
3.22
4.68
6.05
7.27
8.30
9.02
9.32
9.13
8.46
7.49
6.52
5.86
5.69
5.98
6.46
6.79
6.69
6.08
5.08
3.92
2.84
1.93
1.17
0.42
-0.47
-1.58
-2.89
-4.42
-6.14
-8.07
-10.17
-12.27
-14.06
-15.13
-15.19
-14.13
-12.13
-9.53
-6.72
-4.03
-1.61
0.49
2.33
3.94
5.38
6.64
7.66
8.36
8.71
8.74
8.57
8.40
8.33
8.38
8.45
8.42
8.21
7.86
7.50
7.21
7.00
6.74
6.28
5.51
4.49
3.42
2.50
1.90
1.60
1.40
0.99
0.08
-1.51
-3.78
-6.49
-9.34
-11.93
-13.99
-15.33
-15.82
-15.48
-14.34
-12.53
-10.21
-7.65
-5.09
-2.74
-0.71
1.00
2.42
3.59
4.46
4.97
5.12
5.01
4.86
4.84
5.04
5.44
5.91
6.34
6.69
6.97
7.24
7.52
7.79
7.98
8.04
7.93
7.61
7.02
6.11
4.84
3.22
1.38
-0.50
-2.21
-3.64
-4.81
-5.81
-6.76
-7.71
-8.67
-9.58
-10.47
-11.39
-12.44
-13.59
-14.65
-15.30
-15.11
-13.83
-11.47
-8.36
-5.00
-1.89
0.71
2.80
4.57
6.26
7.90
9.34
10.28
10.53
10.14
9.39
8.71
8.38
8.47
8.82
9.24
9.67
10.19
10.91
11.78
12.48
12.50
11.42
9.01
5.48
1.26
-3.03
-6.92
-10.08
-12.39
-13.85
-14.50
-14.45
-13.78
-12.69
-11.42
-10.27
-9.55
-9.39
-9.76
-10.39
-10.93
-10.99
-10.41
-9.17
-7.40
-5.26
-2.84
-0.18
2.73
5.77
8.75
11.38
13.36
14.53
14.88
14.63
14.09
13.67
13.62
14.04
14.80
15.62
16.21
16.36
16.05
15.38
14.52
13.59
12.57
11.37
9.87
8.05
5.96
3.80
1.72
-0.18
-1.87
-3.45
-4.99
-6.49
-7.96
-9.32
-10.54
-11.58
-12.46
-13.15
-13.59
-13.65
-13.12
-11.88
-9.84
-7.09
-3.89
-0.63
2.29
4.55
6.06
7.00
7.64
8.25
8.95
9.67
10.20
10.38
10.11
9.49
8.69
7.88
7.20
6.67
6.25
5.86
5.41
4.83
4.02
2.96
1.70
0.37
-0.83
-1.75
-2.30
-2.58
-2.87
-3.52
-4.78
-6.71
-9.08
-11.50
-13.52
-14.82
-15.21
-14.68
-13.35
-11.36
-8.98
-6.44
-4.03
-1.94
-0.32
0.85
1.64
2.25
2.84
3.49
4.17
4.78
5.12
5.06
4.56
3.75
2.85
2.11
1.61
1.28
0.90
0.22
-0.89
-2.39
-4.13
-5.96
-7.77
-9.62
-11.57
-13.64
-15.71
-17.53
-18.89
-19.76
-20.37
-21.09
-22.22
-23.83
-25.67
-27.28
-28.16
-27.93
-26.47
-23.87
-20.34
-16.17
-11.66
-7.15
-2.95
0.70
3.71
6.18
8.29
10.26
12.21
14.14
15.97
17.51
18.62
19.19
19.20
18.77
18.09
17.48
17.16
17.21
17.48
17.70
17.61
17.15
16.49
15.91
15.69
15.87
16.32
16.80
17.14
17.30
17.31
17.27
17.21
17.11
16.91
16.44
15.56
14.03
11.65
8.44
4.79
1.37
-0.92
-1.42
0.10
3.19
6.85
9.78
10.80
9.05
4.29
-3.16
-12.45
-22.49
-32.15
-40.63
-47.67
-53.49
-58.60
-63.26
-67.25
-69.74
-69.64
-66.06
-58.66
-47.81
-34.42
-19.74
-5.06
8.53
20.37
30.41
39.23
47.68
56.41
65.28
73.26
78.85
80.83
78.94
74.12
67.88
61.64
56.04
50.89
45.66
40.05
34.32
29.11
25.05
22.32
20.59
19.23
17.66
15.63
13.32
11.11
9.49
8.71
8.70
9.06
9.14
8.47
6.84
4.56
2.26
0.65
0.18
0.87
2.29
3.88
5.17
6.02
6.63
7.27
8.23
9.55
11.06
12.46
13.44
13.89
13.88
13.65
13.46
13.37
13.19
12.46
10.73
7.72
3.53
-1.37
-6.36
-10.85
-14.54
-17.33
-19.31
-20.54
-21.04
-20.70
-19.49
-17.47
-14.90
-12.27
-10.10
-8.87
-8.87
-10.12
-12.47
-15.64
-19.31
-23.18
-27.03
-30.63
-33.82
-36.51
-38.73
-40.60
-42.15
-43.35
-44.06
-44.26
-44.20
-44.36
-45.16
-46.58
-47.95
-48.11
-46.04
-41.32
-34.40
-26.26
-17.98
-10.32
-3.63
1.92
6.21
9.15
10.74
11.09
10.26
8.00
3.78
-3.00
-12.51
-24.13
-36.43
-47.62
-56.20
-61.42
-63.25
-62.07
-58.29
-52.03
-43.17
-31.35
-16.09
2.88
25.32
50.24
75.68
99.12
118.13
131.21
138.19
140.18
138.85
135.60
130.96
124.54
115.68
104.09
90.31
75.63
61.51
49.00
38.24
28.65
19.49
10.63
2.99
-1.86
-2.42
1.60
8.76
16.21
20.77
20.25
14.30
4.35
-7.22
-18.08
-26.87
-33.26
-37.68
-40.75
-42.82
-43.81
-43.35
-40.99
-36.39
-29.70
-21.66
-13.52
-6.83
-2.94
-2.56
-5.64
-11.39
-18.51
-25.41
-30.30
-31.48
-27.81
-19.20
-7.05
5.95
16.62
22.69
23.98
22.79
23.16
29.16
43.19
64.93
91.61
119.17
143.66
162.23
173.37
176.52
171.76
159.58
140.97
117.62
91.87
66.24
42.94
23.36
7.82
-4.27
-14.02
-22.66
-31.03
-39.47
-47.94
-56.35
-64.79
-73.46
-82.48
-91.68
-100.61
-108.82
-116.13
-122.78
-128.92
-134.13
-137.13
-136.13
-129.67
-117.60
-101.43
-84.06
-68.83
-58.48
-54.56
-57.31
-65.79
-78.26
-92.45
-105.83
-116.12
-121.61
-121.46
-115.73
-105.18
-91.02
-74.64
-57.51
-41.06
-26.40
-14.06
-3.78
5.28
14.11
23.37
32.97
42.09
49.63
54.59
56.36
54.69
49.79
42.46
34.32
27.74
25.22
28.12
35.67
44.91
51.99
54.06
50.81
44.55
38.91
36.77
38.83
43.45
47.64
48.70
45.34
37.92
27.98
17.36
7.72
0.28
-4.08
-4.99
-2.63
2.15
7.96
13.03
15.54
14.20
9.05
2.06
-3.14
-2.87
4.53
17.04
29.35
35.14
30.33
15.49
-4.40
-22.49
-33.58
-36.52
-33.95
-29.87
-26.77
-24.25
-19.94
-11.61
0.99
15.93
30.38
42.26
51.11
57.67
62.78
66.26
66.78
62.56
52.53
37.20
18.78
0.67
-13.48
-20.68
-19.17
-8.63
9.91
34.40
62.17
90.39
116.48
138.37
154.65
164.49
167.54
163.70
153.05
135.95
113.34
86.94
59.07
32.11
7.53
-14.60
-35.43
-56.43
-78.14
-99.50
-118.16
-131.58
-138.35
-138.84
-134.94
-129.08
-123.21
-118.30
-114.64
-112.27
-111.45
-112.60
-115.93
-121.06
-126.89
-131.86
-134.47
-133.77
-129.71
-123.08
-115.17
-107.35
-100.59
-95.28
-91.28
-88.20
-85.79
-84.08
-83.29
-83.51
-84.43
-85.28
-84.99
-82.62
-77.89
-71.31
-64.08
-57.53
-52.61
-49.38
-47.07
-44.56
-40.98
-36.24
-31.09
-26.67
-23.92
-23.08
-23.40
-23.44
-21.48
-16.09
-6.54
6.84
22.64
38.55
51.80
60.02
62.08
58.88
53.33
49.57
51.42
60.86
77.27
97.74
118.35
135.79
148.31
155.60
158.08
155.93
148.88
136.69
119.89
100.21
80.21
62.42
48.19
37.49
29.17
21.74
14.14
6.06
-2.20
-10.04
-17.01
-22.94
-27.98
-32.46
-36.67
-40.74
-44.49
-47.53
-49.44
-50.03
-49.46
-48.25
-47.12
-46.61
-47.01
-48.26
-50.20
-52.74
-55.89
-59.67
-63.84
-67.95
-71.41
-73.81
-75.02
-75.28
-74.96
-74.46
-74.03
-73.66
-73.05
-71.56
-68.37
-62.71
-54.29
-43.67
-32.32
-22.17
-14.76
-10.59
-8.79
-7.52
-4.86
0.49
8.80
19.58
31.93
45.00
58.02
70.37
81.37
90.38
96.96
101.06
103.05
103.42
102.51
100.38
96.87
91.91
85.71
78.79
71.73
64.95
58.53
52.30
46.01
39.55
33.01
26.64
20.66
15.16
10.12
5.41
0.91
-3.37
-7.31
-10.68
-13.22
-14.80
-15.46
-15.55
-15.55
-15.94
-16.91
-18.27
-19.49
-20.01
-19.54
-18.27
-16.80
-15.82
-15.80
-16.85
-18.79
-21.32
-24.20
-27.19
-30.00
-32.13
-33.02
-32.19
-29.63
-25.86
-21.78
-18.40
-16.40
-15.94
-16.62
-17.68
-18.26
-17.81
-16.17
-13.76
-11.25
-9.23
-7.92
-7.09
-6.16
-4.61
-2.21
0.89
4.28
7.54
10.41
12.84
14.95
16.91
18.83
20.69
22.32
23.50
24.06
23.93
23.15
21.76
19.79
17.24
14.21
10.95
7.83
5.22
3.29
1.92
0.82
-0.38
-1.92
-3.93
-6.34
-9.02
-11.81
-14.48
-16.78
-18.47
-19.46
-19.84
-19.90
-19.97
-20.31
-21.05
-22.26
-23.91
-25.85
-27.79
-29.13
-29.18
-27.37
-23.49
-17.77
-10.92
-3.96
2.08
6.63
9.81
12.35
15.10
18.54
22.33
25.52
26.98
26.12
23.30
19.58
16.21
13.93
12.78
12.18
11.52
10.53
9.36
8.39
7.77
7.22
6.33
4.68
2.21
-0.76
-3.64
-5.90
-7.26
-7.83
-7.97
-8.02
-7.98
-7.45
-5.84
-2.75
1.53
6.11
9.79
11.63
11.57
10.62
10.80
14.71
24.81
42.67
68.44
100.55
135.94
170.74
201.21
224.67
240.06
247.92
249.92
248.20
244.72
240.59
235.80
229.16
218.74
202.56
179.50
149.76
115.02
77.83
40.88
6.44
-24.00
-49.68
-70.34
-86.21
-97.95
-106.61
-113.44
-119.54
-125.52
-131.44
-136.96
-141.61
-145.15
-147.63
-149.37
-150.70
-151.67
-151.92
-150.77
-147.47
-141.53
-133.11
-122.91
-112.03
-101.52
-92.01
-83.58
-75.93
-68.60
-61.17
-53.48
-45.48
-37.31
-29.22
-21.61
-15.01
-9.94
-6.67
-5.01
-4.36
-3.91
-3.10
-1.88
-0.76
-0.46
-1.53
-4.01
-7.49
-11.24
-14.60
-17.20
-19.00
-20.26
-21.49
-23.26
-26.05
-29.97
-34.39
-37.74
-37.75
-32.20
-19.93
-1.71
19.59
39.65
54.12
60.01
56.68
45.85
30.73
14.83
0.86
-9.72
-16.44
-19.39
-19.01
-15.95
-11.38
-6.88
-4.08
-3.84
-5.85
-8.65
-10.29
-9.48
-6.27
-2.18
0.60
0.35
-3.27
-9.10
-15.03
-19.02
-19.93
-17.80
-13.67
-9.03
-5.16
-2.81
-2.14
-2.93
-4.89
-7.86
-11.63
-15.70
-19.23
-21.22
-21.08
-18.99
-15.84
-12.67
-9.89
-6.93
-2.56
4.20
13.11
22.62
30.62
35.63
37.61
37.81
37.89
38.81
40.46
42.02
42.86
43.17
43.88
45.80
48.86
51.80
52.70
50.03
43.44
33.98
23.35
13.01
3.49
-5.36
-13.68
-21.01
-26.32
-28.67
-28.08
-25.76
-23.41
-22.23
-22.25
-22.34
-21.13
-17.72
-12.02
-4.56
4.02
13.07
21.90
29.65
35.34
38.33
38.87
37.98
36.88
36.00
34.54
30.84
23.44
12.20
-1.36
-14.72
-25.49
-32.40
-35.52
-35.82
-34.60
-33.09
-32.44
-33.85
-38.31
-46.08
-56.15
-66.17
-73.24
-75.19
-71.73
-64.56
-56.53
-50.30
-47.18
-46.82
-47.80
-48.50
-47.87
-45.65
-42.18
-37.99
-33.42
-28.57
-23.36
-17.72
-11.74
-5.69
0.06
5.23
9.80
14.07
18.53
23.52
29.01
34.44
38.88
41.42
41.49
39.18
35.13
30.25
25.47
21.43
18.51
16.84
16.41
17.09
18.74
21.20
24.37
28.16
32.35
36.52
40.00
42.05
41.96
39.38
34.43
27.60
19.71
11.68
4.33
-1.81
-6.45
-9.52
-10.99
-10.81
-9.05
-6.08
-2.79
-0.33
0.22
-1.45
-4.65
-7.82
-9.25
-7.88
-3.70
2.29
8.69
14.35
18.77
21.97
24.39
26.70
29.62
33.84
39.61
46.37
52.67
56.57
56.43
51.74
43.46
33.62
24.50
17.70
13.65
11.89
11.54
11.85
12.38
12.89
13.07
12.50
10.64
7.05
1.62
-5.30
-12.95
-20.21
-26.02
-29.66
-31.02
-30.55
-29.08
-27.40
-25.93
-24.64
-23.21
-21.39
-19.16
-16.88
-15.05
-14.03
-13.87
-14.20
-14.45
-14.06
-12.69
-10.34
-7.24
-3.81
-0.44
2.52
4.89
6.63
7.80
8.52
8.87
8.90
8.67
8.35
8.26
8.77
10.10
12.11
14.28
15.90
16.35
15.38
13.20
10.36
7.50
5.15
3.67
3.28
4.05
5.91
8.37
10.60
11.49
10.15
6.43
1.19
-3.94
-7.26
-7.65
-5.15
-0.83
3.80
7.44
9.54
10.19
9.79
8.58
6.53
3.57
-0.11
-3.95
-7.22
-9.47
-10.79
-11.76
-13.15
-15.27
-17.60
-18.88
-17.72
-13.37
-6.25
2.09
9.75
15.34
18.56
20.07
20.82
21.39
21.72
21.53
20.85
20.27
20.55
21.91
23.55
24.01
22.20
18.26
13.73
10.55
9.89
11.46
13.83
15.56
16.18
16.32
16.97
18.51
20.25
20.95
19.67
16.58
12.78
9.64
7.95
7.63
7.92
8.05
7.57
6.48
4.92
2.93
0.48
-2.47
-5.81
-9.28
-12.55
-15.32
-17.42
-18.74
-19.18
-18.66
-17.25
-15.17
-12.86
-10.87
-9.60
-9.22
-9.59
-10.39
-11.30
-12.12
-12.85
-13.57
-14.36
-15.26
-16.27
-17.35
-18.38
-19.12
-19.16
-18.03
-15.38
-11.28
-6.27
-1.26
2.72
4.93
5.09
3.42
0.53
-2.88
-6.06
-8.46
-9.72
-9.79
-8.84
-7.18
-5.15
-2.89
-0.45
2.17
4.79
7.02
8.21
7.75
5.23
0.71
-5.22
-11.52
-16.80
-19.79
-19.64
-16.18
-10.14
-2.89
3.89
8.78
11.09
11.08
9.84
8.73
8.88
10.68
13.81
17.56
21.27
24.73
28.14
31.84
35.78
39.44
41.97
42.69
41.49
39.03
36.30
34.11
32.65
31.35
29.13
24.90
17.97
8.23
-3.71
-16.57
-28.45
-37.04
-40.14
-36.39
-25.83
-10.11
7.87
24.76
37.68
44.91
46.06
42.01
34.43
25.31
16.58
9.74
5.68
4.63
6.21
9.54
13.40
16.51
17.78
16.51
12.71
7.12
1.05
-4.11
-7.37
-8.59
-8.59
-8.89
-10.93
-15.52
-22.26
-29.65
-35.44
-37.50
-34.66
-27.14
-16.57
-5.44
3.58
8.41
7.94
2.20
-7.76
-20.10
-32.57
-42.94
-49.40
-50.86
-46.95
-37.84
-23.87
-5.57
16.14
39.56
62.12
80.79
93.04
97.82
95.90
89.64
82.03
75.72
72.28
72.01
74.16
77.24
79.29
78.25
72.35
60.71
43.76
23.20
1.48
-18.95
-36.39
-50.03
-59.66
-65.31
-67.01
-64.93
-59.61
-52.23
-44.35
-37.57
-32.84
-30.21
-28.95
-27.99
-26.37
-23.77
-20.54
-17.58
-15.82
-15.94
-18.16
-22.37
-28.10
-34.50
-40.41
-44.57
-46.06
-44.90
-42.12
-39.59
-39.17
-41.92
-47.58
-54.70
-61.26
-65.56
-66.62
-64.39
-59.27
-51.77
-42.33
-31.49
-20.01
-8.91
0.71
7.92
12.25
13.72
12.84
10.41
7.33
4.36
1.95
0.21
-1.11
-2.27
-3.49
-4.74
-5.79
-6.36
-6.33
-5.85
-5.35
-5.38
-6.37
-8.48
-11.53
-15.06
-18.53
-21.49
-23.73
-25.34
-26.53
-27.49
-28.18
-28.29
-27.38
-25.13
-21.56
-17.09
-12.36
-8.02
-4.42
-1.55
0.88
3.27
5.80
8.36
10.64
12.33
13.35
13.91
14.47
15.44
16.94
18.76
20.43
21.52
21.88
21.66
21.25
21.04
21.27
21.90
22.76
23.56
24.12
24.30
24.05
23.36
22.24
20.68
18.71
16.32
13.59
10.62
7.48
4.19
0.71
-3.01
-6.84
-10.42
-13.19
-14.60
-14.35
-12.59
-9.82
-6.78
-4.06
-2.03
-0.72
-0.05
0.12
-0.10
-0.58
-1.08
-1.33
-1.09
-0.26
1.04
2.59
4.13
5.54
6.78
7.92
9.00
10.08
11.14
12.19
13.27
14.35
15.37
16.20
16.72
16.87
16.72
16.46
16.22
16.12
16.07
15.93
15.49
14.62
13.30
11.63
9.75
7.82
5.98
4.39
3.24
2.71
2.89
3.75
5.10
6.61
7.89
8.62
8.53
7.52
5.51
2.60
-1.06
-5.20
-9.47
-13.53
-17.07
-19.95
-22.21
-23.97
-25.52
-27.11
-28.94
-30.99
-33.06
-34.81
-35.92
-36.30
-36.19
-36.01
-36.08
-36.39
-36.49
-35.79
-33.85
-30.70
-26.84
-22.93
-19.42
-16.20
-12.78
-8.43
-2.71
4.40
12.43
20.71
28.62
35.82
42.33
48.43
54.49
60.82
67.51
74.44
81.31
87.76
93.45
98.20
102.03
105.04
107.48
109.51
111.25
112.68
113.76
114.42
114.66
114.62
114.40
113.96
112.94
110.62
106.00
97.96
85.51
68.09
46.02
20.84
-4.62
-26.81
-42.48
-50.04
-50.40
-46.89
-44.09
-45.92
-54.01
-67.10
-81.86
-94.53
-102.61
-105.63
-104.80
-101.83
-97.86
-93.08
-87.03
-79.37
-70.49
-61.56
-54.03
-48.96
-46.57
-46.18
-46.57
-46.44
-44.90
-41.67
-37.19
-32.33
-27.99
-24.76
-22.63
-21.16
-19.85
-18.40
-16.87
-15.46
-14.19
-12.85
-11.20
-9.41
-8.13
-8.19
-9.97
-12.99
-15.94
-17.45
-16.91
-14.86
-12.67
-11.59
-11.94
-12.77
-12.56
-10.00
-4.81
2.20
9.60
16.05
20.85
23.94
25.71
26.59
26.80
26.34
25.06
22.81
19.48
15.13
9.98
4.40
-1.14
-6.28
-10.82
-14.60
-17.43
-19.00
-19.01
-17.61
-15.64
-14.52
-15.72
-19.83
-25.96
-31.81
-34.51
-31.96
-23.87
-12.15
-0.22
8.40
11.56
9.33
3.78
-1.98
-5.36
-5.33
-2.66
0.84
3.41
4.26
3.68
2.57
1.63
0.90
-0.20
-2.32
-5.66
-9.67
-13.20
-14.93
-13.91
-9.99
-3.97
2.65
8.13
11.18
11.45
9.56
6.77
4.17
2.12
0.13
-2.62
-6.59
-11.31
-15.38
-17.00
-14.90
-8.99
-0.50
8.42
15.61
19.59
19.99
17.44
13.14
8.36
4.14
1.12
-0.40
-0.44
0.84
3.15
6.09
9.22
12.06
14.14
15.10
14.77
13.22
10.78
8.02
5.56
3.85
3.10
3.09
3.30
2.99
1.51
-1.38
-5.44
-9.88
-13.78
-16.34
-17.32
-17.00
-15.96
-14.73
-13.53
-12.35
-11.06
-9.76
-8.69
-8.15
-8.26
-8.78
-9.29
-9.33
-8.81
-8.00
-7.38
-7.33
-7.85
-8.52
-8.74
-8.05
-6.34
-3.90
-1.13
1.65
4.30
6.87
9.25
11.10
11.87
11.17
9.13
6.59
4.85
5.12
7.89
12.57
17.74
21.69
23.13
21.65
17.73
12.42
6.91
2.13
-1.36
-3.36
-4.07
-3.89
-3.42
-3.19
-3.52
-4.41
-5.50
-6.40
-6.86
-6.98
-7.02
-7.29
-7.84
-8.46
-8.72
-8.28
-7.04
-5.19
-3.09
-1.13
0.44
1.58
2.44
3.20
3.98
4.81
5.66
6.48
7.33
8.29
9.30
10.16
10.42
9.66
7.73
4.92
1.93
-0.48
-1.82
-2.10
-1.71
-1.20
-0.98
-1.21
-1.90
-3.03
-4.67
-6.83
-9.41
-12.14
-14.70
-16.87
-18.65
-20.14
-21.49
-22.65
-23.48
-23.75
-23.36
-22.38
-21.01
-19.49
-18.04
-16.81
-15.95
-15.65
-16.07
-17.30
-19.30
-21.96
-25.15
-28.76
-32.67
-36.77
-40.89
-44.85
-48.49
-51.66
-54.20
-55.87
-56.32
-55.14
-52.01
-46.82
-39.74
-31.18
-21.59
-11.36
-0.76
9.93
20.30
29.72
37.41
42.75
45.43
45.74
44.47
42.65
41.21
40.59
40.61
40.63
39.84
37.72
34.36
30.41
26.83
24.38
23.19
22.62
21.56
18.95
14.31
8.13
1.70
-3.17
-4.59
-0.97
8.62
23.86
42.75
61.48
75.22
79.69
72.89
56.27
34.38
13.46
-0.87
-5.25
0.70
14.86
33.75
53.59
70.95
83.07
88.10
85.40
75.72
61.12
44.50
28.75
16.06
7.46
2.70
0.62
-0.44
-2.01
-5.08
-9.87
-15.83
-21.93
-26.96
-29.90
-30.17
-27.79
-23.44
-18.29
-13.73
-10.92
-10.46
-12.16
-15.23
-18.60
-21.44
-23.35
-24.45
-25.10
-25.59
-26.04
-26.37
-26.42
-26.09
-25.35
-24.26
-22.93
-21.50
-20.10
-18.92
-18.00
-17.31
-16.65
-15.76
-14.47
-12.73
-10.63
-8.33
-6.01
-3.70
-1.40
0.90
3.15
5.17
6.74
7.61
7.72
7.16
6.22
5.30
4.73
4.68
5.08
5.70
6.27
6.60
6.59
6.28
5.68
4.78
3.56
2.04
0.33
-1.40
-2.96
-4.19
-5.10
-5.83
-6.62
-7.73
-9.30
-11.25
-13.23
-14.75
-15.31
-14.60
-12.69
-9.98
-7.00
-4.25
-2.01
-0.29
1.05
2.18
3.19
4.10
4.93
5.71
6.49
7.30
8.11
8.83
9.37
9.70
9.86
9.93
9.98
10.02
10.03
9.93
9.64
9.12
8.37
7.43
6.34
5.10
3.70
2.10
0.31
-1.57
-3.38
-5.01
-6.47
-7.97
-9.81
-12.17
-14.91
-17.54
-19.36
-19.81
-18.65
-16.13
-12.79
-9.29
-6.11
-3.54
-1.66
-0.48
0.06
0.07
-0.31
-0.82
-1.23
-1.36
-1.16
-0.62
0.25
1.46
3.02
4.91
6.99
8.99
10.63
11.64
11.90
11.47
10.46
9.12
7.67
6.30
5.10
4.14
3.41
2.85
2.36
1.79
0.99
-0.18
-1.75
-3.59
-5.49
-7.23
-8.70
-9.90
-10.89
-11.65
-12.01
-11.76
-10.68
-8.78
-6.25
-3.43
-0.67
1.80
3.92
5.68
7.15
8.31
9.16
9.65
9.81
9.71
9.44
9.14
8.89
8.71
8.52
8.20
7.65
6.91
6.14
5.56
5.31
5.33
5.40
5.25
4.66
3.68
2.54
1.56
1.02
0.96
1.17
1.30
0.96
-0.04
-1.71
-3.80
-5.96
-7.70
-8.59
-8.29
-6.69
-3.91
-0.31
3.58
7.24
10.24
12.41
13.79
14.57
14.99
15.16
14.99
14.19
12.46
9.59
5.75
1.56
-2.11
-4.33
-4.54
-2.72
0.52
4.23
7.41
9.29
9.51
8.16
5.66
2.49
-0.84
-3.93
-6.53
-8.48
-9.70
-10.23
-10.24
-10.00
-9.84
-9.97
-10.40
-10.93
-11.22
-10.98
-10.11
-8.71
-7.01
-5.25
-3.56
-1.95
-0.42
1.00
2.22
3.13
3.72
4.04
4.19
4.20
4.01
3.46
2.45
1.03
-0.62
-2.21
-3.53
-4.56
-5.45
-6.45
-7.76
-9.46
-11.51
-13.81
-16.22
-18.67
-21.12
-23.63
-26.35
-29.43
-33.04
-37.25
-41.96
-46.94
-51.85
-56.29
-59.92
-62.37
-63.23
-62.00
-58.17
-51.34
-41.45
-28.97
-14.80
-0.13
13.94
26.54
37.20
45.74
52.17
56.57
59.13
60.11
59.93
59.05
57.81
56.38
54.72
52.66
50.14
47.31
44.50
42.14
40.48
39.47
38.77
37.94
36.67
34.84
32.60
30.20
27.81
25.50
23.18
20.70
17.89
14.57
10.68
6.27
1.65
-2.58
-5.68
-7.03
-6.41
-4.24
-1.48
0.72
1.43
0.30
-2.40
-5.92
-9.40
-12.09
-13.58
-13.75
-12.71
-10.69
-7.96
-4.84
-1.63
1.32
3.76
5.46
6.30
6.25
5.37
3.86
2.05
0.34
-0.86
-1.23
-0.68
0.74
2.74
4.98
7.06
8.60
9.33
9.12
8.04
6.33
4.41
2.72
1.49
0.74
0.27
-0.21
-0.86
-1.66
-2.43
-2.97
-3.24
-3.33
-3.41
-3.62
-3.96
-4.38
-4.82
-5.25
-5.71
-6.14
-6.46
-6.45
-5.96
-4.98
-3.59
-2.02
-0.48
0.87
1.94
2.72
3.20
3.43
3.48
3.39
3.20
2.88
2.39
1.71
0.86
-0.01
-0.75
-1.23
-1.41
-1.38
-1.31
-1.37
-1.63
-2.07
-2.61
-3.20
-3.85
-4.60
-5.42
-6.21
-6.73
-6.77
-6.25
-5.31
-4.29
-3.57
-3.35
-3.60
-4.09
-4.51
-4.69
-4.67
-4.60
-4.63
-4.80
-4.97
-4.86
-4.24
-2.99
-1.21
0.89
3.00
4.89
6.42
7.53
8.27
8.67
8.78
8.62
8.27
7.83
7.38
6.98
6.61
6.21
5.73
5.15
4.51
3.89
3.35
2.92
2.60
2.35
2.15
1.89
1.49
0.85
-0.03
-1.06
-2.07
-2.84
-3.24
-3.31
-3.23
-3.28
-3.76
-4.78
-6.24
-7.85
-9.25
-10.08
-10.13
-9.35
-7.91
-6.04
-4.01
-2.03
-0.22
1.32
2.57
3.50
4.13
4.46
4.55
4.39
3.97
3.28
2.37
1.40
0.57
0.11
0.08
0.43
0.96
1.44
1.68
1.58
1.06
0.10
-1.27
-2.93
-4.62
-6.05
-6.94
-7.20
-6.92
-6.40
-6.02
-6.07
-6.73
-7.94
-9.48
-11.00
-12.07
-12.39
-11.79
-10.36
-8.33
-6.01
-3.67
-1.45
0.52
2.18
3.43
4.26
4.69
4.86
4.96
5.18
5.56
6.02
6.39
6.54
6.42
6.09
5.71
5.42
5.28
5.32
5.45
5.57
5.55
5.21
4.38
2.91
0.80
-1.78
-4.50
-6.93
-8.69
-9.58
-9.64
-9.12
-8.39
-7.82
-7.74
-8.34
-9.68
-11.65
-13.91
-15.99
-17.29
-17.33
-15.92
-13.25
-9.85
-6.43
-3.59
-1.69
-0.77
-0.58
-0.77
-1.00
-1.06
-0.85
-0.39
0.25
1.00
1.77
2.50
3.11
3.52
3.69
3.57
3.19
2.66
2.10
1.64
1.32
1.14
0.97
0.71
0.28
-0.32
-0.97
-1.54
-1.93
-2.14
-2.28
-2.43
-2.64
-2.88
-3.05
-3.09
-3.04
-3.08
-3.42
-4.16
-5.18
-6.20
-6.86
-6.86
-6.11
-4.72
-2.94
-1.02
0.84
2.55
4.08
5.44
6.58
7.44
7.94
8.05
7.83
7.40
6.95
6.59
6.41
6.38
6.41
6.38
6.21
5.88
5.39
4.77
4.08
3.36
2.66
2.06
1.59
1.29
1.18
1.24
1.39
1.48
1.34
0.83
-0.09
-1.26
-2.49
-3.62
-4.65
-5.76
-7.13
-8.81
-10.56
-11.96
-12.60
-12.32
-11.37
-10.24
-9.40
-9.07
-9.14
-9.24
-9.01
-8.25
-6.97
-5.35
-3.57
-1.76
0.04
1.84
3.61
5.28
6.69
7.63
7.90
7.47
6.53
5.42
4.58
4.27
4.47
4.85
4.97
4.57
3.68
2.65
1.95
1.90
2.46
3.20
3.46
2.70
0.75
-2.02
-4.84
-6.87
-7.56
-6.86
-5.29
-3.64
-2.71
-3.09
-5.06
-8.58
-13.18
-17.92
-21.40
-22.17
-19.29
-12.97
-4.65
3.46
9.40
12.31
12.80
12.45
12.93
15.10
18.70
22.70
26.04
28.20
29.35
30.07
30.82
31.67
32.14
31.40
28.69
23.62
16.47
8.18
0.08
-6.52
-10.85
-12.94
-13.52
-13.59
-13.93
-14.78
-15.87
-16.81
-17.44
-17.97
-18.84
-20.35
-22.37
-24.26
-25.21
-24.56
-22.08
-18.08
-13.24
-8.38
-4.15
-0.91
1.31
2.74
3.76
4.75
5.95
7.40
9.05
10.73
12.29
13.64
14.61
15.06
14.81
13.72
11.73
8.93
5.54
1.90
-1.64
-4.79
-7.35
-9.25
-10.50
-11.13
-11.20
-10.82
-10.16
-9.46
-8.94
-8.75
-8.88
-9.17
-9.38
-9.28
-8.77
-7.85
-6.66
-5.36
-4.06
-2.87
-1.86
-1.10
-0.61
-0.40
-0.37
-0.33
-0.01
0.83
2.29
4.30
6.58
8.80
10.62
11.82
12.30
12.02
11.09
9.65
8.00
6.47
5.34
4.75
4.64
4.77
4.88
4.76
4.35
3.70
2.94
2.21
1.64
1.36
1.43
1.79
2.27
2.58
2.50
1.88
0.78
-0.64
-2.17
-3.63
-4.91
-5.95
-6.77
-7.34
-7.73
-8.01
-8.25
-8.46
-8.58
-8.43
-7.85
-6.72
-5.08
-3.13
-1.15
0.55
1.78
2.49
2.75
2.71
2.57
2.45
2.38
2.33
2.23
2.05
1.81
1.63
1.62
1.87
2.32
2.81
3.16
3.16
2.83
2.28
1.78
1.51
1.53
1.72
1.82
1.59
0.83
-0.50
-2.32
-4.49
-6.79
-8.93
-10.55
-11.31
-10.99
-9.57
-7.32
-4.78
-2.54
-1.10
-0.66
-1.11
-2.03
-2.88
-3.17
-2.68
-1.41
0.48
2.78
5.38
8.19
11.05
13.65
15.47
16.01
14.95
12.42
8.94
5.25
2.04
-0.36
-1.94
-2.97
-3.65
-4.05
-4.10
-3.69
-2.91
-2.01
-1.35
-1.22
-1.68
-2.59
-3.67
-4.68
-5.46
-5.96
-6.24
-6.31
-6.17
-5.79
-5.23
-4.63
-4.23
-4.26
-4.80
-5.75
-6.78
-7.45
-7.42
-6.55
-4.94
-2.86
-0.66
1.43
3.25
4.69
5.72
6.33
6.55
6.52
6.44
6.50
6.80
7.27
7.68
7.76
7.35
6.46
5.31
4.26
3.59
3.38
3.47
3.56
3.34
2.70
1.76
0.81
0.13
-0.14
-0.12
-0.07
-0.27
-0.85
-1.76
-2.82
-3.83
-4.66
-5.31
-5.87
-6.44
-7.11
-7.83
-8.54
-9.14
-9.51
-9.59
-9.30
-8.61
-7.50
-6.04
-4.34
-2.57
-0.88
0.61
1.85
2.84
3.60
4.14
4.48
4.60
4.53
4.28
3.87
3.35
2.73
2.05
1.37
0.71
0.08
-0.47
-0.92
-1.17
-1.18
-0.93
-0.45
0.16
0.77
1.24
1.45
1.34
0.92
0.28
-0.45
-1.09
-1.54
-1.84
-2.08
-2.48
-3.15
-4.11
-5.23
-6.18
-6.65
-6.32
-5.10
-3.09
-0.63
1.87
4.01
5.64
6.83
7.79
8.69
9.55
10.25
10.60
10.55
10.26
9.97
9.94
10.24
10.73
11.13
11.17
10.73
9.91
8.94
8.04
7.29
6.63
5.87
4.82
3.40
1.68
-0.12
-1.78
-3.12
-4.09
-4.75
-5.24
-5.72
-6.32
-7.10
-8.05
-9.10
-10.09
-10.88
-11.32
-11.37
-11.03
-10.36
-9.37
-8.12
-6.63
-5.01
-3.45
-2.10
-1.10
-0.43
0.03
0.46
0.99
1.62
2.26
2.76
3.06
3.14
3.05
2.88
2.65
2.39
2.10
1.85
1.69
1.65
1.72
1.81
1.81
1.60
1.12
0.41
-0.41
-1.14
-1.61
-1.82
-1.88
-2.05
-2.65
-3.85
-5.62
-7.65
-9.49
-10.64
-10.82
-10.00
-8.39
-6.42
-4.44
-2.75
-1.47
-0.57
0.03
0.41
0.66
0.86
1.10
1.49
2.04
2.73
3.40
3.85
3.87
3.40
2.54
1.51
0.62
0.08
0.01
0.37
1.00
1.71
2.30
2.65
2.74
2.62
2.32
1.87
1.30
0.64
-0.01
-0.61
-1.09
-1.47
-1.80
-2.23
-2.81
-3.57
-4.41
-5.19
-5.76
-6.00
-5.79
-5.05
-3.81
-2.18
-0.44
1.05
2.05
2.46
2.37
2.01
1.60
1.30
1.18
1.27
1.63
2.31
3.30
4.46
5.54
6.26
6.41
6.01
5.19
4.17
3.14
2.21
1.44
0.87
0.57
0.56
0.81
1.20
1.54
1.69
1.56
1.17
0.59
-0.10
-0.83
-1.57
-2.30
-3.00
-3.68
-4.37
-5.17
-6.18
-7.46
-8.94
-10.43
-11.63
-12.28
-12.14
-11.14
-9.38
-7.12
-4.75
-2.61
-0.95
0.16
0.83
1.22
1.47
1.61
1.65
1.61
1.56
1.65
1.96
2.48
3.01
3.36
3.46
3.40
3.45
3.86
4.70
5.78
6.81
7.47
7.63
7.31
6.70
5.99
5.32
4.73
4.20
3.67
3.08
2.36
1.49
0.46
-0.67
-1.86
-3.02
-4.11
-5.11
-6.02
-6.83
-7.44
-7.73
-7.58
-6.97
-6.06
-5.11
-4.39
-4.03
-3.93
-3.79
-3.22
-1.96
0.02
2.47
4.95
7.01
8.28
8.58
7.89
6.39
4.34
2.08
-0.06
-1.74
-2.73
-2.85
-2.07
-0.48
1.67
3.97
5.94
7.12
7.23
6.19
4.21
1.67
-1.01
-3.46
-5.49
-7.00
-7.96
-8.35
-8.22
-7.65
-6.85
-6.11
-5.67
-5.59
-5.78
-5.95
-5.82
-5.18
-3.98
-2.36
-0.50
1.34
2.93
4.11
4.79
5.06
5.05
4.96
4.91
4.92
4.93
4.88
4.77
4.70
4.75
4.93
5.10
5.02
4.51
3.52
2.20
0.85
-0.29
-1.08
-1.60
-1.98
-2.31
-2.61
-2.83
-2.94
-2.99
-3.11
-3.37
-3.81
-4.37
-4.98
-5.61
-6.26
-6.91
-7.49
-7.84
-7.78
-7.26
-6.34
-5.15
-3.87
-2.62
-1.45
-0.40
0.45
0.99
1.14
0.91
0.46
-0.01
-0.27
-0.18
0.23
0.89
1.67
2.48
3.25
3.95
4.53
4.97
5.24
5.39
5.48
5.53
5.46
5.17
4.54
3.56
2.35
1.14
0.09
-0.62
-0.93
-0.83
-0.32
0.53
1.54
2.38
2.62
1.91
0.08
-2.81
-6.46
-10.48
-14.44
-17.86
-20.21
-20.92
-19.51
-15.80
-10.14
-3.39
3.28
8.76
12.35
13.91
13.83
12.70
11.08
9.31
7.48
5.53
3.36
0.97
-1.57
-4.03
-6.10
-7.37
-7.45
-6.12
-3.52
-0.17
3.16
5.66
6.82
6.50
4.97
2.69
0.17
-2.29
-4.51
-6.48
-8.19
-9.56
-10.42
-10.59
-9.91
-8.40
-6.21
-3.68
-1.17
0.95
2.45
3.27
3.55
3.49
3.36
3.36
3.62
4.18
4.98
5.92
6.91
7.84
8.59
9.08
9.20
8.83
7.93
6.56
4.95
3.48
2.55
2.46
3.17
4.36
5.44
5.80
5.01
2.93
-0.20
-3.92
-7.62
-10.67
-12.56
-12.96
-11.85
-9.57
-6.72
-3.98
-1.96
-0.89
-0.64
-0.79
-0.84
-0.37
0.79
2.57
4.70
6.87
8.78
10.29
11.34
11.98
12.29
12.33
12.20
11.98
11.77
11.56
11.28
10.72
9.67
7.96
5.57
2.66
-0.45
-3.36
-5.69
-7.21
-7.89
-7.97
-7.82
-7.82
-8.18
-8.91
-9.80
-10.66
-11.37
-11.96
-12.52
-13.08
-13.58
-13.87
-13.77
-13.24
-12.33
-11.13
-9.74
-8.19
-6.46
-4.50
-2.26
0.19
2.72
5.09
7.07
8.41
8.96
8.71
7.74
6.26
4.53
2.89
1.69
1.30
1.99
3.89
6.84
10.40
13.89
16.58
17.84
17.28
14.79
10.61
5.36
0.04
-4.16
-6.15
-5.42
-2.30
1.98
5.76
7.56
6.67
3.47
-0.90
-5.07
-7.98
-9.21
-8.87
-7.36
-5.13
-2.57
0.02
2.30
3.94
4.66
4.35
3.20
1.67
0.31
-0.41
-0.30
0.44
1.33
1.79
1.40
0.02
-2.18
-4.91
-7.95
-11.17
-14.58
-18.09
-21.43
-24.13
-25.71
-25.87
-24.66
-22.42
-19.59
-16.53
-13.46
-10.49
-7.81
-5.71
-4.46
-4.13
-4.41
-4.64
-4.08
-2.13
1.37
6.14
11.64
17.19
22.30
26.64
30.08
32.59
34.18
34.91
34.84
34.09
32.87
31.40
29.85
28.36
26.93
25.54
24.12
22.69
21.32
20.03
18.74
17.19
15.14
12.49
9.50
6.65
4.37
2.82
1.69
0.45
-1.45
-4.28
-7.95
-12.21
-16.68
-20.89
-24.25
-26.12
-26.05
-24.21
-21.51
-19.39
-19.22
-21.52
-25.71
-30.34
-33.83
-35.23
-34.59
-32.65
-30.27
-27.90
-25.39
-22.32
-18.42
-13.90
-9.33
-5.41
-2.50
-0.64
0.39
0.77
0.47
-0.80
-3.42
-7.61
-13.20
-19.62
-25.92
-31.08
-34.29
-35.36
-34.81
-33.76
-33.58
-35.32
-39.45
-45.63
-53.04
-60.64
-67.57
-73.15
-76.90
-78.43
-77.56
-74.45
-69.76
-64.65
-60.33
-57.58
-56.28
-55.10
-51.84
-44.03
-29.90
-9.15
16.71
44.63
70.98
92.51
107.37
115.39
117.80
116.61
113.84
111.10
109.49
109.64
111.81
115.81
120.86
125.58
128.31
127.69
123.17
115.23
105.09
94.04
83.03
72.38
62.07
52.05
42.52
33.93
26.77
21.38
17.80
15.90
15.43
16.10
17.54
19.23
20.66
21.42
21.39
20.84
20.18
19.74
19.60
19.53
19.08
17.83
15.51
12.12
7.91
3.35
-1.03
-4.65
-7.03
-7.91
-7.30
-5.53
-3.24
-1.29
-0.60
-1.91
-5.58
-11.34
-18.35
-25.35
-31.06
-34.55
-35.58
-34.59
-32.60
-30.81
-30.19
-31.20
-33.65
-36.87
-40.01
-42.43
-43.91
-44.75
-45.62
-47.30
-50.46
-55.64
-63.16
-73.13
-85.27
-98.71
-111.92
-123.03
-130.29
-132.71
-130.45
-124.68
-117.11
-109.14
-101.37
-93.43
-84.37
-73.33
-60.01
-44.84
-28.57
-11.93
4.66
20.77
35.52
47.31
54.33
55.57
51.97
46.69
43.99
47.29
57.29
71.45
85.30
94.62
97.46
94.77
89.28
83.60
78.76
74.00
67.77
59.18
48.79
38.42
30.18
25.37
24.03
25.16
27.24
28.83
28.82
26.58
22.00
15.46
7.80
0.16
-6.36
-11.01
-13.48
-13.97
-12.98
-11.20
-9.37
-8.17
-8.07
-9.11
-10.84
-12.50
-13.31
-12.89
-11.49
-9.89
-9.06
-9.74
-12.27
-16.55
-22.25
-29.02
-36.50
-44.31
-51.94
-58.77
-64.21
-67.77
-69.26
-68.73
-66.42
-62.66
-57.78
-52.09
-45.90
-39.56
-33.38
-27.53
-21.95
-16.25
-9.86
-2.36
6.12
14.78
22.34
27.73
30.74
32.35
34.36
38.55
45.65
54.94
64.51
72.25
76.76
77.87
76.40
73.50
69.96
65.93
61.05
54.85
46.94
37.29
26.15
14.05
1.73
-9.93
-20.13
-28.34
-34.54
-39.30
-43.57
-48.35
-54.16
-60.87
-67.73
-73.66
-77.72
-79.59
-79.55
-78.49
-77.47
-77.40
-78.72
-81.30
-84.53
-87.51
-89.45
-89.84
-88.73
-86.63
-84.28
-82.24
-80.48
-78.22
-74.24
-67.31
-56.74
-42.72
-26.22
-8.69
8.38
23.76
36.82
47.64
57.12
66.65
77.57
90.34
104.11
116.84
126.24
130.81
130.80
128.04
125.14
124.29
126.50
131.53
138.53
146.56
155.05
163.58
171.67
178.52
183.25
185.26
184.46
181.39
176.98
172.18
167.73
163.99
160.95
158.25
155.29
151.37
145.77
137.68
126.09
109.98
88.54
61.59
29.91
-4.91
-40.75
-75.44
-107.14
-134.45
-156.25
-171.66
-180.05
-181.43
-176.62
-167.25
-155.37
-142.94
-131.41
-121.59
-113.79
-108.03
-104.00
-101.17
-98.72
-95.64
-91.11
-84.70
-76.64
-67.76
-59.36
-52.86
-49.58
-50.45
-55.67
-64.41
-74.68
-83.78
-89.04
-88.88
-83.49
-74.76
-65.50
-58.14
-53.75
-51.81
-50.83
-49.38
-46.90
-43.80
-40.89
-38.61
-36.55
-33.69
-28.98
-21.97
-13.10
-3.49
5.59
13.20
19.05
23.53
27.38
31.31
35.71
40.46
45.05
48.83
51.33
52.44
52.52
52.13
51.78
51.62
51.39
50.54
48.51
45.03
40.20
34.48
28.54
23.01
18.43
15.09
13.02
11.90
11.07
9.52
6.21
0.46
-7.75
-17.70
-28.35
-38.54
-47.36
-54.06
-58.00
-58.59
-55.54
-49.22
-40.78
-31.99
-24.64
-19.85
-17.69
-17.28
-17.38
-16.83
-14.98
-11.58
-6.67
-0.52
6.24
12.42
16.37
16.42
11.58
2.12
-10.24
-22.81
-32.97
-39.13
-41.17
-40.21
-37.82
-35.18
-32.74
-30.45
-28.21
-26.27
-25.03
-24.71
-24.90
-24.70
-23.06
-19.40
-13.83
-6.95
0.63
8.75
17.62
27.54
38.35
49.29
59.14
66.76
71.33
72.60
70.68
65.89
58.69
49.81
40.26
31.38
24.59
20.94
20.74
23.32
27.07
29.88
29.81
25.67
17.39
5.98
-6.93
-19.65
-30.82
-39.59
-45.49
-48.28
-48.03
-45.13
-40.39
-34.86
-29.50
-24.85
-20.87
-17.22
-13.61
-10.31
-8.12
-8.06
-10.75
-15.95
-22.46
-28.60
-32.87
-34.60
-34.11
-32.33
-30.18
-27.97
-25.36
-21.56
-16.02
-8.75
-0.43
8.04
15.98
23.29
30.27
37.27
44.09
49.98
53.77
54.46
51.64
45.78
37.99
29.55
21.62
14.90
9.75
6.24
4.24
3.37
2.87
1.69
-1.37
-7.19
-15.88
-26.41
-36.70
-44.13
-46.56
-43.18
-35.02
-24.53
-14.55
-7.14
-2.77
-0.42
1.73
5.24
10.69
17.56
24.65
30.72
34.89
36.87
36.84
35.34
33.18
31.32
30.62
31.56
34.19
38.10
42.77
47.78
52.98
58.32
63.55
68.13
71.29
72.40
71.16
67.69
62.24
55.13
46.73
37.69
29.06
22.09
17.58
15.60
15.30
15.61
15.86
16.34
17.93
21.44
26.87
33.15
38.66
41.98
42.56
40.69
37.04
32.04
25.57
17.03
5.87
-7.82
-23.09
-38.29
-51.62
-61.80
-68.30
-71.21
-70.72
-66.78
-59.08
-47.75
-34.10
-20.80
-11.18
-7.85
-11.46
-20.32
-31.24
-40.95
-47.48
-50.68
-51.86
-52.76
-54.49
-56.76
-57.94
-55.54
-47.32
-32.39
-11.97
10.70
31.25
45.90
52.82
52.69
47.90
41.18
34.30
27.86
21.97
17.06
14.13
14.12
17.04
21.46
25.05
25.68
22.65
17.07
11.17
6.93
4.79
3.36
0.13
-7.10
-18.94
-34.02
-49.55
-62.64
-71.34
-75.30
-75.44
-73.15
-69.43
-64.45
-57.83
-49.17
-38.58
-26.73
-14.73
-3.73
5.18
11.19
13.99
13.93
12.11
10.23
10.17
13.50
20.99
32.30
46.01
59.88
71.43
78.61
80.24
76.40
68.17
57.23
45.28
33.59
22.89
13.49
5.47
-1.22
-6.76
-11.45
-15.59
-19.26
-22.14
-23.60
-23.07
-20.40
-16.32
-12.37
-10.41
-11.89
-16.97
-24.41
-31.87
-37.03
-38.52
-36.53
-32.50
-28.16
-24.63
-21.95
-19.39
-16.23
-12.48
-9.03
-7.24
-8.10
-11.59
-16.67
-21.85
-25.99
-28.99
-31.76
-35.54
-41.08
-48.00
-54.90
-60.14
-62.65
-62.37
-59.88
-55.70
-49.66
-40.94
-29.08
-15.07
-1.78
7.00
8.65
3.54
-4.54
-10.01
-8.36
1.51
16.84
32.71
44.92
52.15
56.20
60.32
66.78
75.30
83.38
87.94
87.29
82.08
74.78
68.20
64.03
62.07
60.62
57.50
51.14
41.23
28.62
14.89
1.72
-9.62
-18.55
-25.20
-30.18
-34.18
-37.62
-40.63
-43.08
-44.80
-45.53
-44.84
-41.89
-35.74
-25.94
-13.32
-0.18
10.39
15.88
15.57
10.62
3.07
-5.61
-15.16
-26.04
-38.00
-49.00
-55.43
-53.71
-42.25
-22.59
0.99
23.20
39.83
49.05
51.57
49.71
46.05
42.23
38.36
33.14
24.78
12.36
-3.21
-19.09
-31.67
-38.38
-38.97
-35.76
-32.18
-30.78
-31.70
-32.74
-30.75
-23.70
-12.13
0.87
11.07
14.98
11.37
1.44
-12.02
-25.78
-37.05
-43.77
-44.66
-39.36
-28.58
-14.16
1.32
15.22
25.70
32.17
35.14
35.67
34.79
33.27
31.80
31.19
32.27
35.47
40.28
44.98
47.05
43.95
34.21
18.08
-2.20
-23.06
-40.77
-52.87
-58.96
-60.54
-59.90
-58.83
-57.68
-55.45
-50.64
-42.44
-31.37
-19.30
-8.72
-1.99
-0.72
-5.56
-15.85
-29.49
-43.06
-52.56
-54.64
-47.93
-33.55
-14.64
5.02
22.41
36.10
46.12
53.34
58.73
63.08
67.09
71.48
76.79
82.88
88.41
90.95
87.84
77.40
60.00
38.01
15.02
-5.38
-20.60
-29.47
-32.14
-29.85
-24.71
-19.35
-16.33
-17.31
-22.40
-30.03
-37.63
-42.78
-44.39
-43.19
-41.40
-41.63
-45.67
-53.63
-63.86
-73.56
-79.92
-81.23
-77.40
-69.88
-60.56
-50.58
-39.62
-26.26
-9.11
11.87
34.93
57.21
76.17
90.76
101.55
110.03
117.35
123.64
128.06
129.37
126.58
119.23
107.50
92.10
74.26
55.50
37.26
20.52
5.54
-7.80
-19.48
-28.88
-34.94
-36.84
-34.81
-30.42
-26.16
-24.38
-26.29
-31.75
-39.70
-49.13
-59.75
-71.92
-85.98
-101.39
-116.39
-128.50
-135.71
-137.53
-135.35
-131.68
-128.77
-127.40
-126.61
-124.46
-119.30
-110.61
-99.15
-86.28
-73.07
-59.92
-46.69
-33.19
-19.40
-5.48
8.49
22.65
37.21
52.20
67.33
82.12
96.04
108.80
120.38
131.00
140.90
150.26
159.09
167.22
174.32
179.95
183.63
184.97
183.80
180.36
175.33
169.63
164.05
158.86
153.67
147.63
139.92
130.16
118.60
105.91
92.77
79.62
66.57
53.74
41.47
30.40
21.14
13.86
8.07
2.73
-3.45
-11.51
-21.88
-34.14
-47.03
-58.74
-67.46
-71.91
-71.76
-67.70
-61.12
-53.59
-46.31
-39.91
-34.52
-30.09
-26.66
-24.42
-23.46
-23.55
-24.05
-24.16
-23.31
-21.47
-19.26
-17.61
-17.42
-19.09
-22.41
-26.67
-30.97
-34.57
-37.04
-38.28
-38.47
-37.97
-37.21
-36.56
-36.24
-36.18
-36.12
-35.71
-34.69
-33.01
-30.74
-28.00
-24.94
-21.73
-18.53
-15.56
-12.95
-10.68
-8.56
-6.33
-3.84
-1.25
0.98
2.34
2.45
1.31
-0.63
-2.72
-4.32
-5.20
-5.47
-5.55
-5.89
-6.75
-8.07
-9.51
-10.70
-11.45
-11.83
-12.15
-12.72
-13.81
-15.50
-17.77
-20.51
-23.52
-26.48
-28.95
-30.44
-30.55
-29.17
-26.53
-23.14
-19.54
-16.11
-12.90
-9.78
-6.62
-3.53
-0.76
1.39
2.78
3.61
4.36
5.62
7.88
11.51
16.85
24.29
34.26
47.16
63.01
81.24
100.56
119.24
135.27
146.62
151.53
148.76
137.83
119.43
95.73
70.29
47.52
31.75
26.09
31.54
46.48
66.76
86.59
99.88
102.01
91.13
68.68
38.79
6.82
-22.53
-46.58
-64.96
-78.80
-89.60
-98.32
-105.22
-110.32
-113.79
-116.20
-117.93
-118.85
-118.21
-115.07
-109.07
-100.77
-91.61
-83.14
-76.32
-71.13
-66.84
-62.66
-58.24
-53.88
-50.26
-48.03
-47.47
-48.46
-50.50
-52.91
-55.08
-56.52
-57.10
-57.04
-56.78
-56.76
-57.13
-57.68
-58.02
-58.01
-57.86
-58.06
-59.00
-60.47
-61.69
-61.48
-58.96
-53.95
-47.19
-39.95
-33.47
-28.47
-24.99
-22.56
-20.60
-18.70
-16.73
-14.76
-12.81
-10.81
-8.58
-5.93
-2.86
0.46
3.69
6.51
8.73
10.34
11.54
12.53
13.49
14.42
15.21
15.66
15.55
14.77
13.30
11.32
9.15
7.24
6.02
5.73
6.33
7.46
8.55
9.10
8.90
8.09
7.06
6.20
5.72
5.56
5.49
5.28
4.73
3.81
2.48
0.76
-1.32
-3.58
-5.70
-7.17
-7.55
-6.57
-4.33
-1.28
1.92
4.73
6.79
8.08
8.84
9.43
10.15
11.12
12.30
13.51
14.53
15.15
15.25
14.84
14.01
12.93
11.81
10.80
10.03
9.55
9.31
9.19
8.99
8.49
7.56
6.20
4.56
2.94
1.62
0.77
0.36
0.17
-0.13
-0.85
-2.16
-4.02
-6.23
-8.50
-10.48
-11.85
-12.40
-11.99
-10.73
-8.82
-6.62
-4.45
-2.54
-0.97
0.38
1.68
3.10
4.74
6.57
8.45
10.18
11.53
12.30
12.38
11.78
10.74
9.64
8.88
8.70
9.06
9.63
10.01
9.86
9.11
7.96
6.75
5.80
5.25
5.03
4.85
4.42
3.51
2.08
0.24
-1.81
-3.89
-5.92
-7.92
-9.99
-12.15
-14.24
-15.95
-16.85
-16.62
-15.11
-12.50
-9.12
-5.36
-1.54
2.14
5.52
8.42
10.61
11.89
12.19
11.67
10.69
9.67
8.95
8.64
8.69
8.95
9.32
9.77
10.31
10.91
11.44
11.65
11.38
10.58
9.38
8.02
6.79
5.85
5.18
4.63
4.03
3.23
2.24
1.12
-0.03
-1.22
-2.49
-3.96
-5.67
-7.51
-9.22
-10.47
-10.95
-10.51
-9.16
-7.11
-4.60
-1.89
0.76
3.16
5.16
6.65
7.60
8.08
8.26
8.37
8.61
9.07
9.71
10.32
10.71
10.74
10.44
9.93
9.37
8.81
8.18
7.35
6.27
5.02
3.72
2.52
1.39
0.25
-1.03
-2.45
-3.91
-5.28
-6.51
-7.66
-8.90
-10.32
-11.84
-13.26
-14.25
-14.47
-13.70
-11.86
-9.04
-5.54
-1.79
1.69
4.54
6.54
7.80
8.63
9.36
10.25
11.28
12.27
12.95
13.11
12.71
11.85
10.76
9.68
8.80
8.21
7.92
7.87
7.96
8.07
8.06
7.80
7.27
6.52
5.70
4.91
4.13
3.11
1.57
-0.70
-3.54
-6.50
-8.86
-10.03
-9.69
-8.01
-5.48
-2.70
-0.16
1.90
3.53
4.92
6.27
7.71
9.16
10.45
11.39
11.87
11.98
11.94
11.95
12.15
12.47
12.74
12.78
12.53
12.00
11.27
10.38
9.35
8.15
6.74
5.10
3.20
0.96
-1.72
-4.79
-8.06
-11.11
-13.42
-14.56
-14.35
-12.88
-10.46
-7.48
-4.31
-1.18
1.70
4.18
6.17
7.63
8.62
9.29
9.78
10.19
10.54
10.83
11.05
11.20
11.27
11.21
10.96
10.48
9.77
8.94
8.09
7.33
6.63
5.86
4.83
3.36
1.31
-1.31
-4.36
-7.62
-10.82
-13.66
-15.91
-17.38
-17.94
-17.48
-15.98
-13.50
-10.31
-6.81
-3.44
-0.61
1.50
2.97
4.04
5.05
6.21
7.55
8.97
10.28
11.39
12.26
12.94
13.48
13.85
13.95
13.72
13.11
12.20
11.08
9.85
8.60
7.37
6.21
5.17
4.23
3.28
2.12
0.52
-1.59
-4.19
-7.10
-10.05
-12.81
-15.13
-16.77
-17.43
-16.90
-15.09
-12.15
-8.49
-4.63
-1.05
1.98
4.37
6.22
7.71
8.99
10.22
11.48
12.72
13.77
14.37
14.25
13.36
11.92
10.33
9.05
8.36
8.23
8.40
8.50
8.28
7.66
6.71
5.55
4.26
2.82
1.23
-0.56
-2.53
-4.66
-6.93
-9.37
-11.99
-14.67
-17.19
-19.16
-20.13
-19.75
-17.86
-14.67
-10.66
-6.48
-2.69
0.35
2.64
4.38
5.93
7.53
9.22
10.88
12.24
13.06
13.26
12.90
12.17
11.28
10.38
9.57
8.86
8.25
7.68
7.06
6.27
5.20
3.76
2.01
0.13
-1.66
-3.15
-4.22
-4.87
-5.19
-5.31
-5.38
-5.59
-6.15
-7.26
-9.02
-11.22
-13.41
-14.88
-15.00
-13.42
-10.24
-6.00
-1.39
2.92
6.55
9.38
11.57
13.35
14.88
16.26
17.46
18.38
18.89
18.91
18.40
17.45
16.23
14.93
13.72
12.70
11.83
11.02
10.10
8.92
7.40
5.58
3.63
1.81
0.33
-0.69
-1.31
-1.76
-2.36
-3.39
-5.02
-7.26
-9.93
-12.74
-15.35
-17.39
-18.57
-18.66
-17.58
-15.39
-12.27
-8.56
-4.66
-0.94
2.34
5.03
7.13
8.69
9.80
10.55
11.00
11.23
11.30
11.26
11.14
10.93
10.64
10.28
9.85
9.40
8.93
8.47
8.01
7.52
6.98
6.30
5.43
4.31
2.96
1.47
-0.02
-1.53
-3.17
-5.20
-7.81
-10.90
-13.98
-16.31
-17.14
-16.09
-13.26
-9.28
-4.94
-0.93
2.32
4.74
6.43
7.55
8.23
8.60
8.84
9.10
9.51
10.02
10.46
10.59
10.22
9.38
8.23
7.01
5.87
4.82
3.76
2.61
1.34
0.02
-1.27
-2.55
-3.92
-5.53
-7.43
-9.56
-11.73
-13.70
-15.31
-16.53
-17.43
-18.05
-18.35
-18.20
-17.42
-15.96
-13.95
-11.67
-9.35
-7.07
-4.61
-1.60
2.21
6.71
11.42
15.62
18.73
20.55
21.30
21.46
21.40
21.27
20.93
20.20
18.96
17.28
15.34
13.33
11.32
9.26
7.05
4.68
2.22
-0.19
-2.37
-4.24
-5.84
-7.29
-8.84
-10.70
-13.01
-15.69
-18.46
-20.90
-22.55
-23.10
-22.52
-20.98
-18.77
-16.17
-13.33
-10.30
-7.12
-3.93
-0.95
1.53
3.31
4.38
4.90
5.17
5.48
5.97
6.63
7.26
7.65
7.60
7.13
6.38
5.63
5.09
4.82
4.67
4.35
3.57
2.22
0.39
-1.63
-3.48
-4.92
-5.87
-6.47
-6.93
-7.53
-8.44
-9.79
-11.60
-13.76
-16.05
-18.11
-19.53
-19.93
-19.16
-17.24
-14.47
-11.23
-7.89
-4.80
-2.17
-0.14
1.24
2.04
2.48
2.86
3.44
4.32
5.37
6.34
6.96
7.11
6.86
6.47
6.17
6.07
6.07
5.95
5.50
4.59
3.32
1.86
0.35
-1.14
-2.71
-4.48
-6.52
-8.70
-10.85
-12.76
-14.34
-15.62
-16.65
-17.43
-17.80
-17.51
-16.38
-14.34
-11.49
-8.02
-4.14
-0.08
3.92
7.60
10.65
12.86
14.20
14.81
14.92
14.78
14.57
14.38
14.25
14.20
14.27
14.45
14.62
14.59
14.12
13.15
11.72
10.07
8.46
7.04
5.81
4.60
3.24
1.60
-0.29
-2.34
-4.50
-6.80
-9.35
-12.14
-14.93
-17.29
-18.78
-19.10
-18.32
-16.74
-14.79
-12.83
-11.02
-9.31
-7.56
-5.62
-3.49
-1.30
0.74
2.43
3.66
4.48
5.01
5.38
5.67
5.86
5.91
5.76
5.48
5.19
4.98
4.90
4.90
4.85
4.62
4.14
3.40
2.43
1.24
-0.17
-1.87
-3.89
-6.20
-8.63
-10.93
-12.73
-13.69
-13.60
-12.43
-10.37
-7.75
-4.97
-2.33
-0.02
1.90
3.43
4.55
5.21
5.35
5.03
4.45
3.88
3.57
3.67
4.13
4.77
5.35
5.67
5.62
5.17
4.33
3.18
1.87
0.56
-0.56
-1.42
-2.12
-2.83
-3.79
-5.18
-7.07
-9.36
-11.86
-14.25
-16.20
-17.37
-17.49
-16.45
-14.33
-11.39
-8.00
-4.54
-1.30
1.51
3.79
5.47
6.56
7.17
7.47
7.64
7.80
7.96
8.05
7.99
7.83
7.70
7.76
8.07
8.48
8.72
8.55
7.89
6.85
5.63
4.36
3.06
1.64
0.02
-1.74
-3.51
-5.18
-6.76
-8.40
-10.29
-12.45
-14.72
-16.71
-17.95
-18.14
-17.12
-15.00
-12.03
-8.55
-4.92
-1.52
1.33
3.43
4.71
5.27
5.33
5.20
5.16
5.40
5.99
6.86
7.88
8.87
9.70
10.33
10.80
11.08
11.13
10.81
10.02
8.77
7.21
5.60
4.14
2.88
1.69
0.37
-1.20
-3.02
-4.92
-6.78
-8.57
-10.39
-12.37
-14.47
-16.39
-17.66
-17.83
-16.73
-14.56
-11.83
-9.03
-6.48
-4.21
-2.03
0.24
2.63
4.91
6.80
8.00
8.42
8.21
7.62
6.93
6.35
5.94
5.63
5.32
4.94
4.52
4.16
3.94
3.84
3.74
3.42
2.71
1.51
-0.21
-2.37
-4.86
-7.46
-9.90
-11.89
-13.28
-14.14
-14.72
-15.37
-16.34
-17.61
-18.98
-20.07
-20.56
-20.23
-19.01
-16.93
-14.07
-10.58
-6.71
-2.70
1.19
4.78
7.94
10.53
12.47
13.69
14.24
14.26
14.01
13.69
13.41
13.13
12.76
12.19
11.42
10.51
9.57
8.65
7.75
6.90
6.14
5.55
5.18
4.99
4.88
4.71
4.35
3.73
2.82
1.57
-0.05
-2.05
-4.31
-6.52
-8.20
-8.81
-7.97
-5.63
-2.15
1.84
5.65
8.75
10.93
12.28
13.02
13.38
13.45
13.17
12.48
11.43
10.16
8.92
7.90
7.17
6.64
6.12
5.50
4.72
3.79
2.65
1.16
-0.93
-3.78
-7.20
-10.72
-13.64
-15.44
-15.99
-15.67
-15.16
-15.07
-15.59
-16.38
-16.78
-16.13
-14.11
-10.84
-6.71
-2.25
2.11
6.09
9.51
12.18
13.96
14.78
14.76
14.14
13.31
12.59
12.14
11.93
11.80
11.61
11.33
10.99
10.62
10.17
9.50
8.47
7.01
5.19
3.22
1.37
-0.18
-1.37
-2.32
-3.27
-4.46
-6.06
-8.04
-10.25
-12.38
-14.16
-15.34
-15.78
-15.44
-14.30
-12.38
-9.76
-6.60
-3.14
0.33
3.50
6.18
8.21
9.58
10.39
10.84
11.14
11.43
11.76
12.06
12.23
12.21
12.00
11.66
11.25
10.79
10.33
9.86
9.40
8.94
8.40
7.66
6.54
4.97
3.05
1.02
-0.80
-2.17
-3.05
-3.64
-4.30
-5.45
-7.34
-9.95
-12.93
-15.67
-17.54
-18.10
-17.25
-15.22
-12.41
-9.21
-5.90
-2.66
0.37
3.00
5.06
6.49
7.42
8.15
9.02
10.17
11.47
12.52
12.93
12.50
11.33
9.78
8.29
7.17
6.54
6.30
6.25
6.18
5.92
5.39
4.52
3.32
1.84
0.22
-1.35
-2.74
-3.90
-4.94
-5.98
-7.20
-8.66
-10.39
-12.27
-14.13
-15.75
-16.78
-16.91
-15.93
-13.85
-10.97
-7.76
-4.68
-2.03
0.16
1.99
3.61
5.03
6.20
7.06
7.67
8.16
8.67
9.19
9.58
9.62
9.16
8.24
7.10
6.08
5.42
5.10
4.94
4.66
4.00
2.94
1.64
0.33
-0.81
-1.72
-2.46
-3.15
-3.92
-4.94
-6.35
-8.29
-10.74
-13.43
-15.82
-17.34
-17.49
-16.16
-13.58
-10.31
-6.93
-3.94
-1.62
-0.03
0.92
1.43
1.74
2.04
2.39
2.69
2.77
2.48
1.81
0.93
0.10
-0.51
-0.85
-1.05
-1.30
-1.72
-2.38
-3.20
-4.12
-5.10
-6.14
-7.26
-8.46
-9.73
-11.04
-12.41
-13.91
-15.57
-17.41
-19.30
-20.94
-21.93
-21.87
-20.57
-18.14
-15.01
-11.74
-8.86
-6.62
-5.03
-3.88
-2.96
-2.16
-1.50
-1.03
-0.80
-0.77
-0.85
-0.97
-1.05
-1.12
-1.24
-1.54
-2.24
-3.56
-5.68
-8.68
-12.48
-16.88
-21.57
-26.27
-30.73
-34.70
-37.89
-39.94
-40.48
-39.26
-36.28
-31.83
-26.38
-20.39
-14.15
-7.76
-1.18
5.58
12.36
18.82
24.55
29.10
32.13
33.43
32.97
30.90
27.62
23.62
19.40
15.31
11.46
7.77
4.07
0.25
-3.66
-7.46
-10.79
-13.25
-14.40
-14.00
-12.12
-9.19
-5.87
-2.81
-0.42
1.20
2.23
2.80
2.91
2.40
1.08
-1.04
-3.59
-6.06
-7.93
-8.91
-8.99
-8.31
-7.02
-5.18
-2.81
0.07
3.29
6.57
9.54
11.91
13.50
14.33
14.55
14.37
13.97
13.49
13.02
12.60
12.29
12.13
12.18
12.41
12.71
12.92
12.90
12.60
12.07
11.49
10.94
10.39
9.64
8.45
6.68
4.38
1.86
-0.44
-2.08
-2.76
-2.41
-1.11
0.87
3.29
5.90
8.51
10.94
13.06
14.72
15.78
16.19
16.00
15.40
14.63
13.93
13.35
12.86
12.29
11.55
10.63
9.66
8.82
8.25
7.97
7.85
7.73
7.46
6.94
6.12
4.96
3.39
1.39
-0.98
-3.48
-5.65
-7.04
-7.23
-6.12
-3.94
-1.17
1.66
4.15
6.09
7.46
8.39
8.97
9.34
9.57
9.77
9.98
10.23
10.41
10.35
9.89
8.92
7.50
5.78
4.02
2.43
1.13
0.08
-0.76
-1.48
-2.14
-2.86
-3.82
-5.25
-7.28
-9.82
-12.41
-14.39
-15.08
-14.18
-11.85
-8.71
-5.48
-2.70
-0.54
1.16
2.69
4.23
5.73
7.02
7.93
8.40
8.45
8.14
7.56
6.70
5.61
4.36
3.05
1.75
0.45
-0.88
-2.27
-3.66
-4.90
-5.84
-6.43
-6.79
-7.09
-7.54
-8.21
-9.00
-9.72
-10.15
-10.08
-9.39
-8.01
-5.89
-3.09
0.25
3.88
7.51
10.82
13.57
15.56
16.74
17.13
16.85
16.05
14.87
13.45
11.90
10.39
9.03
7.99
7.32
7.00
6.88
6.74
6.40
5.82
5.12
4.50
4.18
4.22
4.48
4.73
4.68
4.26
3.59
2.96
2.66
2.90
3.66
4.79
6.12
7.64
9.56
12.23
15.97
20.84
26.55
32.52
38.03
42.50
45.66
47.70
49.08
50.44
52.29
54.89
58.28
62.26
66.39
69.86
71.35
69.31
62.33
49.95
33.02
13.67
-5.29
-21.39
-33.14
-40.15
-42.60
-40.63
-33.94
-22.18
-5.67
13.93
33.59
49.81
59.95
63.27
61.19
56.52
52.15
49.90
49.96
51.31
52.61
53.05
52.60
51.75
50.89
49.92
48.22
44.95
39.54
31.94
22.77
13.14
4.44
-2.06
-5.45
-5.55
-2.85
1.74
7.45
13.95
21.42
30.03
39.31
47.96
54.18
56.34
53.59
45.99
34.16
18.84
0.73
-19.19
-39.24
-57.08
-70.29
-77.37
-78.66
-76.33
-73.58
-73.24
-76.62
-83.11
-90.72
-97.16
-100.82
-101.26
-99.08
-95.24
-90.49
-85.11
-79.08
-72.52
-65.96
-60.24
-56.14
-53.84
-52.78
-51.83
-49.91
-46.51
-41.90
-37.05
-33.05
-30.68
-30.03
-30.61
-31.55
-32.02
-31.56
-30.15
-28.11
-25.88
-23.86
-22.31
-21.41
-21.30
-22.13
-23.84
-26.16
-28.46
-29.97
-30.04
-28.41
-25.38
-21.60
-17.74
-14.23
-11.13
-8.29
-5.52
-2.77
-0.18
2.01
3.60
4.51
4.81
4.64
4.15
3.26
1.73
-0.71
-4.14
-8.33
-12.64
-16.30
-18.59
-19.11
-17.94
-15.56
-12.67
-10.03
-8.24
-7.60
-8.13
-9.49
-11.15
-12.59
-13.40
-13.37
-12.46
-10.75
-8.35
-5.54
-2.66
-0.11
1.80
3.01
3.75
4.37
5.29
6.74
8.71
11.08
13.72
16.58
19.67
22.91
26.08
28.80
30.63
31.30
30.78
29.25
27.01
24.25
20.93
16.85
11.82
5.73
-1.32
-9.05
-16.89
-23.97
-29.21
-31.63
-30.73
-26.84
-21.07
-14.90
-9.62
-5.82
-3.33
-1.47
0.44
2.75
5.38
7.94
10.03
11.37
12.04
12.37
12.88
13.99
15.77
17.84
19.50
20.18
19.71
18.51
17.20
16.12
15.03
13.17
9.79
4.70
-1.54
-7.94
-13.68
-18.46
-22.49
-25.90
-28.27
-28.60
-25.90
-20.04
-12.32
-5.08
-0.70
-0.36
-3.36
-7.52
-10.22
-9.86
-6.61
-2.18
1.29
2.45
1.45
-0.21
-0.66
1.31
5.65
11.11
16.02
19.10
19.88
18.69
16.20
12.95
9.17
4.90
0.30
-4.29
-8.37
-11.54
-13.75
-15.39
-17.11
-19.25
-21.18
-21.13
-16.88
-7.10
7.30
22.82
34.49
37.92
31.40
16.83
-1.11
-16.96
-26.57
-28.41
-23.46
-14.21
-3.47
6.34
13.33
16.16
14.03
6.88
-4.48
-18.35
-32.32
-43.60
-49.57
-48.45
-39.93
-25.53
-8.39
7.57
18.83
23.25
20.75
13.00
2.89
-6.48
-12.49
-13.47
-9.02
0.09
12.03
24.32
34.45
40.54
41.82
38.71
32.58
25.17
18.12
12.62
9.38
8.69
10.43
14.14
18.95
23.82
27.65
29.61
29.24
26.48
21.44
14.37
5.68
-3.94
-13.34
-21.07
-25.84
-27.10
-25.51
-22.84
-21.36
-22.85
-27.79
-35.03
-42.27
-47.02
-47.50
-43.17
-34.58
-23.11
-10.51
1.14
9.73
13.40
11.13
3.37
-7.74
-18.78
-26.10
-26.97
-20.51
-7.89
8.21
24.48
37.75
45.65
47.05
42.44
33.94
24.84
18.36
16.35
18.40
21.97
23.63
20.66
12.28
-0.25
-14.36
-27.53
-38.11
-45.52
-49.94
-51.74
-51.26
-48.92
-45.25
-40.90
-36.44
-32.11
-27.68
-22.48
-15.72
-6.91
3.80
15.42
26.31
34.60
38.70
37.59
31.01
19.53
4.66
-11.05
-24.37
-32.21
-32.92
-27.12
-17.87
-9.43
-5.40
-7.21
-13.52
-21.15
-26.52
-27.06
-21.76
-11.01
3.97
21.71
40.77
59.83
77.70
93.05
104.29
109.78
108.34
100.10
86.93
72.07
58.96
49.71
44.23
40.48
35.93
29.14
20.62
12.20
5.57
1.02
-2.79
-7.76
-14.79
-23.03
-30.28
-34.31
-34.33
-31.48
-28.18
-26.68
-27.80
-30.65
-33.43
-34.74
-34.41
-33.45
-33.35
-34.93
-37.70
-40.02
-39.83
-35.71
-27.64
-17.15
-6.86
0.48
2.99
0.36
-6.07
-13.77
-19.93
-22.44
-20.42
-14.39
-5.83
3.26
10.86
15.32
15.74
12.14
5.50
-2.42
-9.68
-14.67
-16.54
-15.38
-11.99
-7.37
-2.25
3.06
8.63
14.49
20.32
25.39
28.85
30.16
29.39
27.21
24.51
21.90
19.39
16.40
12.11
5.96
-2.03
-11.25
-20.70
-29.46
-36.88
-42.67
-46.76
-49.09
-49.57
-48.17
-45.28
-41.75
-38.78
-37.44
-38.22
-40.86
-44.43
-47.78
-49.93
-50.14
-47.88
-42.74
-34.56
-23.72
-11.42
0.65
10.78
17.99
22.46
25.50
29.02
34.82
43.97
56.46
71.11
85.92
98.68
107.67
112.26
113.05
111.47
109.03
106.58
103.97
100.22
94.18
85.05
72.87
58.32
42.41
26.15
10.51
-3.49
-14.67
-22.09
-25.64
-26.62
-27.53
-30.99
-38.19
-47.93
-56.78
-60.62
-56.63
-44.78
-27.84
-10.12
4.25
12.70
14.66
11.18
4.36
-3.31
-9.39
-12.02
-10.40
-5.03
2.36
9.42
14.00
14.82
11.52
4.60
-4.85
-15.28
-24.68
-31.08
-33.29
-31.83
-29.23
-29.17
-34.66
-46.17
-60.65
-72.59
-76.37
-68.89
-51.21
-27.99
-5.55
10.83
18.61
18.29
12.43
4.07
-4.35
-11.49
-16.98
-20.90
-23.56
-25.38
-26.89
-28.71
-31.48
-35.57
-40.87
-46.61
-51.38
-53.37
-50.94
-43.16
-30.22
-13.69
3.90
19.76
31.92
40.07
45.81
51.92
60.79
72.96
86.66
98.76
106.67
109.76
109.53
108.13
106.49
103.34
95.98
82.46
63.49
42.88
25.82
16.13
14.24
16.86
19.03
16.65
8.39
-4.10
-17.54
-28.91
-36.80
-41.52
-44.55
-47.29
-50.39
-53.75
-56.81
-59.08
-60.33
-60.59
-60.05
-59.04
-57.87
-56.74
-55.64
-54.21
-51.86
-48.12
-42.82
-36.20
-28.80
-21.09
-13.32
-5.47
2.52
10.52
18.27
25.39
31.68
37.11
41.72
45.44
48.01
49.18
48.89
47.36
44.89
41.72
37.78
32.89
27.04
20.68
14.70
10.07
7.22
5.61
3.87
0.49
-5.29
-12.89
-20.58
-26.22
-28.23
-26.24
-21.07
-14.14
-6.75
0.32
6.82
12.72
17.86
21.89
24.38
25.00
23.73
20.76
16.42
11.04
4.76
-2.45
-10.70
-19.97
-29.87
-39.50
-47.56
-52.60
-53.47
-49.64
-41.43
-29.94
-17.14
-5.50
2.43
4.83
1.34
-6.54
-15.81
-22.90
-24.75
-19.63
-7.67
8.92
26.21
39.40
44.34
39.21
25.60
8.21
-6.96
-15.10
-14.52
-7.03
3.45
12.96
19.14
21.66
21.40
19.36
16.21
12.40
8.49
5.29
3.43
3.01
3.49
3.96
3.62
2.17
-0.18
-2.86
-5.21
-6.69
-6.92
-5.74
-3.24
0.34
4.57
8.96
12.98
16.10
17.85
17.92
16.22
13.10
9.36
5.97
3.58
1.96
-0.14
-4.45
-12.27
-23.61
-36.83
-49.28
-58.29
-62.06
-60.01
-52.55
-40.78
-26.52
-12.53
-2.32
0.83
-4.42
-16.18
-29.39
-37.67
-36.27
-24.43
-5.72
13.76
28.46
35.83
36.89
34.93
33.29
33.75
36.19
39.43
42.36
44.64
46.52
48.37
50.06
50.89
49.98
46.73
41.26
34.34
27.12
20.70
15.61
11.67
8.09
3.80
-1.95
-9.21
-17.17
-24.43
-29.60
-31.84
-31.20
-28.51
-24.83
-20.92
-16.94
-12.55
-7.35
-1.48
4.26
8.63
10.58
9.89
7.40
4.74
3.46
4.05
5.26
4.33
-1.91
-15.29
-34.85
-56.51
-74.35
-82.89
-79.28
-64.25
-41.43
-15.83
7.64
24.83
32.35
27.59
9.77
-18.43
-50.04
-75.13
-84.40
-73.57
-45.71
-10.12
22.02
42.89
50.92
50.24
47.15
46.28
48.57
51.98
53.92
53.45
51.84
51.34
53.31
57.11
60.38
60.36
55.43
45.95
34.12
22.95
14.87
10.67
9.19
7.91
4.12
-3.84
-15.69
-29.42
-42.07
-51.00
-54.82
-53.66
-48.65
-41.26
-32.67
-23.66
-14.80
-6.76
-0.25
4.17
6.45
7.12
7.06
7.14
7.89
9.41
11.49
13.68
15.35
15.71
13.90
9.27
1.68
-8.18
-18.90
-28.75
-36.24
-40.67
-42.09
-41.16
-38.51
-34.77
-30.51
-26.71
-24.68
-25.51
-29.26
-34.44
-38.48
-38.84
-34.36
-25.92
-15.80
-6.47
0.71
5.80
9.79
13.65
17.73
21.84
25.78
29.80
34.56
40.71
48.34
56.80
64.89
71.14
74.14
72.81
66.70
56.25
42.89
28.63
15.46
4.65
-3.56
-9.84
-15.19
-20.44
-25.97
-31.79
-37.73
-43.58
-49.01
-53.45
-55.92
-55.39
-51.17
-43.49
-33.60
-23.49
-15.10
-9.64
-7.17
-6.69
-6.73
-6.01
-3.90
-0.51
3.74
8.43
13.42
18.69
24.16
29.55
34.41
38.32
41.23
43.43
45.45
47.69
50.09
52.10
52.73
50.94
46.03
37.92
27.23
15.12
3.02
-7.73
-16.12
-21.65
-24.40
-24.93
-24.11
-22.87
-21.97
-21.82
-22.32
-22.98
-23.03
-21.69
-18.49
-13.57
-7.78
-2.51
0.73
0.99
-1.53
-5.25
-7.62
-6.15
0.32
10.86
22.51
31.33
34.04
29.44
18.97
6.03
-5.52
-13.22
-16.91
-18.60
-21.16
-26.76
-35.85
-47.14
-58.43
-67.69
-73.70
-75.88
-73.70
-66.41
-53.40
-35.50
-15.94
-0.17
5.91
-1.10
-19.68
-43.05
-61.66
-67.34
-56.99
-33.32
-2.35
30.62
63.76
98.26
135.11
171.69
200.93
214.11
205.66
176.91
136.27
95.44
64.03
45.68
37.60
33.55
27.90
18.32
5.96
-6.55
-17.31
-26.18
-34.39
-42.91
-51.42
-58.08
-60.70
-58.27
-51.79
-43.79
-37.08
-33.08
-31.21
-29.46
-25.68
-18.96
-10.14
-1.33
5.23
8.18
7.55
4.58
1.04
-1.46
-1.98
-0.39
2.80
6.75
10.47
12.95
13.37
11.21
6.49
-0.16
-7.77
-15.31
-22.05
-27.59
-31.76
-34.43
-35.63
-35.60
-35.05
-34.89
-35.83
-37.78
-39.73
-40.10
-37.45
-31.20
-21.91
-11.01
-0.13
9.43
17.01
22.52
26.13
28.06
28.50
27.76
26.33
24.87
23.88
23.50
23.20
21.90
18.34
11.58
1.51
-10.99
-24.31
-36.57
-46.27
-52.53
-55.14
-54.36
-50.71
-44.90
-37.91
-30.87
-24.94
-20.91
-18.95
-18.45
-18.26
-17.24
-14.73
-10.89
-6.59
-2.85
-0.50
0.17
-0.58
-2.23
-4.24
-6.15
-7.57
-8.04
-6.94
-3.64
2.33
10.92
21.40
32.40
42.33
49.93
54.77
57.38
58.93
60.65
63.22
66.46
69.53
71.34
71.02
68.17
62.68
54.53
43.65
30.15
14.73
-1.05
-15.05
-25.37
-31.17
-33.07
-32.81
-32.20
-32.23
-32.62
-32.33
-30.37
-26.59
-21.80
-17.15
-13.46
-10.82
-8.79
-7.04
-5.65
-5.08
-5.76
-7.72
-10.62
-14.06
-17.98
-22.72
-28.69
-35.87
-43.54
-50.26
-54.35
-54.44
-50.00
-41.54
-30.58
-19.38
-10.29
-5.08
-4.29
-6.87
-10.44
-12.07
-9.40
-1.60
9.94
21.71
28.78
26.56
12.86
-10.36
-36.72
-57.21
-63.64
-52.28
-25.63
8.57
40.73
63.52
74.37
75.37
71.00
65.26
60.01
55.16
49.96
44.42
39.53
36.57
36.00
36.80
36.80
33.87
26.99
16.72
4.78
-6.86
-16.85
-24.79
-31.01
-35.99
-40.05
-43.11
-44.87
-44.88
-42.45
-36.81
-27.48
-15.17
-2.14
8.32
13.51
12.98
9.04
5.59
5.79
10.11
16.07
19.91
19.08
13.87
7.00
1.70
-0.47
-0.65
-1.79
-6.61
-15.76
-27.36
-38.02
-44.63
-45.87
-42.65
-37.57
-33.52
-32.19
-33.41
-35.47
-36.13
-33.82
-28.32
-20.51
-11.66
-2.79
5.38
11.80
14.73
12.22
3.37
-10.18
-24.06
-32.61
-31.55
-20.21
-2.07
17.05
31.95
40.35
43.46
44.47
46.21
49.50
53.15
55.19
54.49
51.54
48.03
45.76
45.48
46.47
47.07
45.61
41.30
34.49
26.31
17.93
9.96
2.33
-5.29
-12.99
-20.23
-26.24
-30.29
-32.20
-32.28
-30.96
-28.53
-25.03
-20.64
-15.96
-12.02
-9.82
-9.73
-11.20
-12.97
-13.69
-12.65
-10.11
-7.10
-4.87
-4.28
-5.59
-8.49
-12.40
-16.71
-21.03
-25.08
-28.72
-31.90
-34.66
-37.14
-39.43
-41.44
-42.93
-43.61
-43.38
-42.65
-42.40
-43.76
-47.60
-53.88
-61.55
-68.79
-73.64
-74.60
-71.02
-63.20
-52.37
-40.58
-30.33
-23.93
-22.61
-25.82
-31.09
-34.78
-33.52
-25.60
-11.60
5.96
23.84
39.32
51.06
58.94
63.62
65.82
66.09
64.95
63.21
61.97
62.45
65.48
71.18
78.86
87.26
95.14
101.74
107.05
111.64
116.38
121.81
127.80
133.34
136.69
135.72
128.56
114.40
94.09
70.16
46.14
25.13
8.59
-4.27
-15.83
-28.56
-43.34
-58.67
-71.18
-77.05
-73.78
-61.40
-42.81
-23.15
-8.52
-4.17
-12.73
-32.94
-59.49
-84.20
-98.47
-96.30
-76.43
-42.94
-3.78
32.06
57.46
68.98
67.04
54.77
36.25
15.10
-6.05
-25.47
-41.83
-53.81
-60.29
-60.76
-55.77
-46.97
-36.93
-28.51
-24.21
-25.34
-31.47
-40.30
-48.32
-52.06
-49.30
-40.00
-26.15
-10.93
2.62
12.47
18.01
19.62
18.08
14.19
8.62
2.15
-4.15
-8.92
-10.83
-8.97
-3.24
5.51
15.54
24.86
31.81
35.55
36.21
34.61
31.77
28.57
25.54
23.06
21.50
21.28
22.62
25.19
28.03
29.59
28.39
23.76
16.44
8.45
2.22
-0.87
-1.25
-0.83
-1.42
-3.29
-5.25
-6.01
-5.50
-5.13
-6.28
-8.58
-9.56
-6.43
1.17
9.44
11.70
2.13
-20.14
-49.60
-76.58
-92.14
-92.30
-79.24
-59.06
-38.10
-20.14
-6.03
4.86
13.02
17.96
18.62
14.61
6.85
-2.32
-10.07
-14.27
-14.26
-10.93
-6.13
-1.72
1.32
3.06
4.36
6.03
8.24
10.38
11.48
10.79
8.21
4.38
0.48
-2.19
-2.62
-0.40
4.18
10.13
16.02
20.38
22.17
21.12
17.66
12.58
6.51
-0.28
-7.78
-15.76
-23.40
-29.29
-31.96
-30.44
-24.64
-15.32
-3.89
7.87
18.03
24.70
26.55
23.27
15.99
7.08
-0.62
-4.92
-5.15
-2.27
1.78
5.16
6.89
7.03
6.13
4.58
2.36
-0.76
-4.67
-8.60
-11.23
-11.39
-8.65
-3.66
2.03
6.70
9.19
9.31
7.80
5.83
4.37
3.85
4.05
4.46
4.64
4.42
3.97
3.54
3.25
3.01
2.53
1.57
0.10
-1.67
-3.40
-4.85
-5.96
-6.90
-7.87
-8.90
-9.81
-10.28
-9.92
-8.55
-6.22
-3.23
0.02
3.13
5.82
7.95
9.50
10.51
11.03
11.06
10.62
9.71
8.38
6.73
4.93
3.13
1.50
0.12
-0.97
-1.78
-2.32
-2.61
-2.73
-2.78
-2.95
-3.37
-4.15
-5.25
-6.52
-7.68
-8.45
-8.51
-7.71
-6.04
-3.64
-0.77
2.31
5.25
7.76
9.57
10.51
10.51
9.69
8.31
6.74
5.39
4.56
4.38
4.70
5.19
5.45
5.18
4.37
3.26
2.26
1.69
1.59
1.68
1.50
0.62
-1.06
-3.24
-5.35
-6.75
-6.99
-5.97
-3.87
-1.11
1.89
4.76
7.23
9.09
10.21
10.52
10.02
8.90
7.50
6.23
5.46
5.32
5.63
6.00
5.99
5.37
4.26
3.00
1.99
1.39
1.09
0.77
0.12
-0.92
-2.21
-3.47
-4.46
-5.10
-5.39
-5.37
-5.03
-4.33
-3.26
-1.91
-0.42
1.03
2.35
3.53
4.63
5.71
6.70
7.46
7.83
7.67
6.99
5.92
4.65
3.31
1.99
0.72
-0.49
-1.61
-2.53
-3.21
-3.68
-4.11
-4.71
-5.63
-6.81
-8.00
-8.84
-9.03
-8.46
-7.29
-5.84
-4.47
-3.35
-2.43
-1.51
-0.36
1.06
2.56
3.81
4.52
4.53
3.94
3.02
2.03
1.17
0.53
0.11
-0.11
-0.16
-0.11
-0.13
-0.44
-1.22
-2.49
-4.10
-5.70
-6.93
-7.52
-7.41
-6.71
-5.67
-4.50
-3.32
-2.11
-0.81
0.63
2.10
3.40
4.27
4.55
4.19
3.38
2.38
1.48
0.85
0.50
0.32
0.12
-0.20
-0.64
-1.11
-1.49
-1.75
-1.99
-2.43
-3.26
-4.53
-6.03
-7.37
-8.11
-7.90
-6.65
-4.55
-2.04
0.37
2.27
3.46
3.99
4.04
3.88
3.67
3.50
3.36
3.22
3.08
2.94
2.76
2.46
1.88
0.97
-0.18
-1.35
-2.25
-2.73
-2.81
-2.71
-2.70
-3.00
-3.64
-4.53
-5.47
-6.29
-6.85
-7.08
-6.88
-6.12
-4.72
-2.71
-0.24
2.38
4.74
6.53
7.52
7.67
7.13
6.15
5.08
4.19
3.67
3.54
3.68
3.88
3.94
3.68
3.05
2.10
0.93
-0.25
-1.25
-1.98
-2.48
-2.96
-3.59
-4.48
-5.50
-6.41
-6.92
-6.85
-6.24
-5.19
-3.84
-2.27
-0.52
1.36
3.16
4.63
5.54
5.76
5.39
4.64
3.76
2.93
2.28
1.77
1.34
0.87
0.25
-0.56
-1.53
-2.51
-3.30
-3.78
-3.93
-3.91
-3.98
-4.37
-5.15
-6.21
-7.27
-8.03
-8.30
-8.06
-7.35
-6.26
-4.84
-3.10
-1.07
1.06
3.04
4.56
5.42
5.62
5.32
4.79
4.31
3.98
3.76
3.48
3.00
2.29
1.42
0.56
-0.19
-0.78
-1.28
-1.76
-2.28
-2.80
-3.26
-3.66
-4.04
-4.51
-5.13
-5.80
-6.36
-6.62
-6.49
-5.97
-5.14
-4.08
-2.86
-1.59
-0.40
0.59
1.26
1.58
1.56
1.23
0.56
-0.42
-1.62
-2.82
-3.74
-4.10
-3.79
-2.92
-1.76
-0.62
0.32
1.01
1.53
1.94
2.18
2.10
1.51
0.36
-1.12
-2.48
-3.19
-2.82
-1.34
0.94
3.44
5.57
6.90
7.27
6.81
5.79
4.52
3.24
2.17
1.41
1.09
1.28
1.93
2.85
3.67
4.01
3.56
2.33
0.61
-1.15
-2.60
-3.61
-4.34
-5.04
-5.83
-6.63
-7.16
-7.15
-6.50
-5.34
-3.90
-2.40
-0.98
0.33
1.50
2.45
3.04
3.18
2.85
2.15
1.26
0.38
-0.38
-0.97
-1.41
-1.76
-2.05
-2.34
-2.70
-3.20
-3.87
-4.71
-5.60
-6.39
-6.93
-7.15
-7.06
-6.79
-6.49
-6.23
-5.96
-5.48
-4.53
-3.00
-0.96
1.29
3.34
4.84
5.68
5.98
5.94
5.72
5.36
4.76
3.85
2.69
1.46
0.41
-0.36
-0.84
-1.20
-1.64
-2.27
-3.16
-4.29
-5.63
-7.06
-8.41
-9.41
-9.82
-9.46
-8.33
-6.62
-4.63
-2.66
-0.89
0.60
1.88
3.02
3.98
4.62
4.76
4.28
3.22
1.78
0.29
-0.99
-1.90
-2.43
-2.66
-2.69
-2.56
-2.35
-2.20
-2.37
-3.13
-4.66
-6.86
-9.35
-11.55
-12.89
-13.07
-12.08
-10.15
-7.68
-4.99
-2.35
0.09
2.20
3.90
5.12
5.87
6.18
6.16
5.90
5.42
4.73
3.82
2.66
1.28
-0.27
-1.88
-3.40
-4.63
-5.48
-5.92
-6.11
-6.28
-6.62
-7.23
-8.02
-8.70
-8.92
-8.37
-6.89
-4.56
-1.71
1.25
3.93
6.13
7.81
9.11
10.10
10.78
11.02
10.66
9.66
8.11
6.23
4.23
2.29
0.47
-1.16
-2.54
-3.61
-4.32
-4.74
-5.02
-5.43
-6.19
-7.48
-9.21
-11.19
-12.99
-14.13
-14.22
-13.03
-10.62
-7.27
-3.37
0.65
4.44
7.74
10.33
12.04
12.81
12.65
11.76
10.46
9.14
8.12
7.57
7.48
7.64
7.74
7.55
6.93
5.95
4.81
3.70
2.71
1.70
0.39
-1.48
-4.02
-7.06
-10.13
-12.63
-13.99
-13.82
-12.06
-9.00
-5.12
-0.98
2.98
6.52
9.62
12.32
14.65
16.48
17.66
18.03
17.61
16.60
15.30
14.06
13.08
12.45
12.08
11.82
11.48
10.95
10.20
9.26
8.24
7.24
6.31
5.44
4.51
3.38
1.92
0.09
-2.09
-4.47
-6.82
-8.82
-10.11
-10.31
-9.19
-6.75
-3.27
0.75
4.75
8.29
11.18
13.50
15.45
17.24
18.91
20.32
21.26
21.50
21.02
19.83
18.02
15.67
12.89
9.86
6.97
4.71
3.45
3.28
3.84
4.49
4.49
3.39
1.06
-2.22
-5.98
-9.67
-12.71
-14.59
-14.94
-13.61
-10.85
-7.31
-3.77
-0.88
1.16
2.69
4.25
6.31
8.85
11.45
13.50
14.55
14.53
13.76
12.66
11.52
10.36
9.08
7.64
6.17
4.95
4.21
3.93
3.88
3.71
3.16
2.20
0.98
-0.32
-1.62
-2.95
-4.38
-5.86
-7.21
-8.12
-8.35
-7.80
-6.57
-4.89
-2.99
-1.04
0.86
2.63
4.16
5.34
6.07
6.31
6.11
5.59
4.90
4.13
3.31
2.39
1.25
-0.17
-1.86
-3.67
-5.34
-6.63
-7.40
-7.71
-7.81
-8.04
-8.75
-10.05
-11.83
-13.73
-15.22
-15.78
-15.00
-12.74
-9.20
-4.87
-0.37
3.68
6.83
8.92
10.02
10.30
9.92
8.90
7.19
4.71
1.50
-2.30
-6.29
-9.99
-12.77
-14.02
-13.31
-10.64
-6.52
-1.87
2.25
5.05
6.20
5.98
5.06
4.17
3.86
4.26
5.22
6.37
7.45
8.42
9.57
11.37
14.18
17.90
21.76
24.48
24.66
21.53
15.35
7.45
-0.28
-6.32
-10.23
-12.93
-16.14
-21.30
-28.53
-36.21
-41.51
-41.74
-35.61
-23.94
-9.20
5.68
18.37
27.32
31.22
28.61
18.50
1.71
-18.00
-34.45
-41.49
-36.11
-20.28
-0.20
16.80
25.98
27.10
23.68
20.18
19.24
20.61
22.22
22.37
21.15
20.39
22.27
27.70
35.75
44.06
50.08
52.23
50.48
46.05
40.69
35.70
31.47
27.52
22.94
17.09
9.98
2.46
-4.24
-8.94
-11.10
-11.08
-10.07
-9.55
-10.70
-13.92
-18.83
-24.66
-30.66
-36.23
-40.78
-43.50
-43.39
-39.74
-32.88
-24.48
-17.18
-13.49
-14.48
-19.19
-24.99
-28.94
-29.19
-25.78
-20.34
-15.01
-11.32
-9.55
-8.88
-8.16
-6.69
-4.56
-2.51
-1.32
-1.35
-2.32
-3.62
-4.79
-5.83
-7.03
-8.42
-9.35
-8.68
-5.41
0.41
7.36
13.16
15.79
14.54
10.38
5.30
1.12
-1.40
-2.73
-3.85
-5.38
-7.14
-8.29
-8.05
-6.26
-3.58
-1.11
0.23
0.12
-1.00
-2.27
-2.87
-2.41
-1.19
0.05
0.49
-0.33
-2.27
-4.57
-6.26
-6.55
-5.19
-2.61
0.37
2.87
4.33
4.70
4.30
3.64
3.10
2.78
2.59
2.36
1.98
1.51
1.03
0.67
0.44
0.28
0.12
-0.10
-0.35
-0.61
-0.89
-1.25
-1.77
-2.48
-3.30
-4.12
-4.78
-5.17
-5.23
-4.96
-4.36
-3.45
-2.31
-1.02
0.20
1.16
1.71
1.84
1.67
1.38
1.07
0.71
0.24
-0.38
-1.11
-1.76
-2.19
-2.36
-2.43
-2.64
-3.20
-4.14
-5.30
-6.43
-7.34
-8.00
-8.58
-9.20
-9.90
-10.51
-10.72
-10.26
-9.06
-7.36
-5.60
-4.19
-3.35
-3.02
-2.92
-2.72
-2.23
-1.43
-0.40
0.74
1.83
2.72
3.20
3.11
2.43
1.32
0.21
-0.41
-0.16
1.03
2.86
4.78
6.14
6.50
5.68
3.84
1.45
-0.84
-2.33
-2.51
-1.17
1.47
4.90
8.39
11.29
13.14
13.80
13.40
12.30
10.94
9.75
9.16
9.40
10.51
12.23
14.08
15.44
15.79
14.87
12.70
9.65
6.30
3.27
1.08
-0.03
-0.15
0.38
1.07
1.51
1.42
0.80
-0.10
-0.88
-1.20
-0.83
0.18
1.57
2.89
3.68
3.62
2.64
0.97
-1.03
-3.04
-4.92
-6.76
-8.76
-11.11
-13.85
-16.81
-19.63
-21.84
-22.95
-22.61
-20.80
-17.83
-14.21
-10.48
-6.84
-3.19
0.84
5.53
10.83
16.27
21.03
24.31
25.58
24.69
21.83
17.46
12.15
6.56
1.43
-2.68
-5.48
-7.09
-8.06
-9.11
-10.86
-13.46
-16.60
-19.56
-21.65
-22.49
-22.24
-21.48
-20.98
-21.24
-22.32
-23.78
-24.82
-24.66
-22.80
-19.31
-14.76
-10.12
-6.35
-4.03
-3.13
-2.97
-2.39
-0.24
4.30
11.46
20.89
31.82
43.14
53.51
61.32
64.99
63.34
56.24
44.99
32.15
20.78
13.35
10.83
12.47
16.21
19.61
20.71
18.46
12.76
4.24
-6.03
-16.67
-26.09
-32.70
-35.29
-33.38
-27.49
-19.13
-10.34
-3.16
0.90
1.31
-1.44
-5.99
-10.61
-13.75
-14.48
-12.74
-9.29
-5.35
-2.15
-0.53
-0.75
-2.48
-5.14
-8.22
-11.39
-14.62
-18.02
-21.69
-25.64
-29.71
-33.72
-37.48
-40.90
-44.06
-47.24
-50.86
-55.17
-60.04
-64.55
-67.05
-65.70
-59.19
-47.50
-32.06
-15.53
-1.07
8.34
10.60
4.95
-7.72
-24.74
-42.13
-55.51
-61.41
-58.43
-47.61
-31.80
-14.29
2.52
17.74
31.63
44.73
57.01
67.82
76.41
82.63
87.15
91.20
95.85
101.43
107.37
112.56
115.97
117.02
115.71
112.38
107.42
101.12
93.61
85.01
75.47
65.10
54.01
42.23
29.92
17.47
5.61
-4.80
-12.97
-18.53
-21.61
-22.76
-22.65
-21.77
-20.31
-18.29
-15.84
-13.41
-11.89
-12.29
-15.36
-21.24
-29.33
-38.53
-47.56
-55.36
-61.35
-65.54
-68.55
-71.42
-75.37
-81.33
-89.66
-99.82
-110.46
-119.81
-126.24
-128.79
-127.40
-122.77
-115.99
-108.17
-100.23
-92.95
-87.03
-83.07
-81.22
-80.81
-80.20
-76.98
-68.84
-54.53
-34.55
-11.11
12.66
33.78
50.32
61.54
67.73
69.65
68.36
65.17
61.81
60.26
62.28
68.73
79.21
92.22
105.82
118.50
129.63
139.34
147.98
155.49
161.19
164.02
163.07
157.96
149.07
137.34
123.90
109.79
95.71
82.15
69.42
57.76
47.46
38.72
31.73
26.52
23.04
21.24
21.16
22.97
26.95
33.24
41.53
50.84
59.78
66.90
71.25
72.80
72.34
71.28
71.09
73.01
77.81
85.77
96.59
109.38
122.72
134.90
144.30
149.86
151.20
148.52
142.38
133.37
122.19
109.65
96.76
84.63
74.12
65.62
58.84
52.89
46.53
38.66
28.62
16.52
3.32
-9.47
-20.29
-28.18
-33.28
-36.80
-40.55
-46.09
-54.05
-63.76
-73.76
-82.42
-88.80
-92.97
-95.85
-98.58
-102.05
-106.59
-112.03
-117.99
-123.79
-128.15
-129.06
-124.39
-113.05
-96.38
-78.26
-63.64
-56.20
-56.24
-60.61
-64.49
-64.16
-58.93
-51.20
-44.66
-41.90
-43.18
-46.66
-49.96
-51.77
-52.35
-52.97
-54.87
-58.46
-63.22
-68.13
-72.23
-74.96
-76.37
-76.90
-77.20
-77.65
-78.33
-78.76
-78.28
-76.29
-72.68
-67.98
-63.21
-59.50
-57.54
-57.36
-58.30
-59.42
-59.93
-59.51
-58.27
-56.46
-54.30
-51.78
-48.82
-45.39
-41.61
-37.74
-34.07
-30.85
-28.18
-26.06
-24.39
-23.00
-21.66
-20.10
-18.15
-15.78
-13.21
-10.78
-8.93
-7.98
-7.98
-8.76
-9.94
-11.14
-12.08
-12.68
-12.99
-13.17
-13.42
-13.92
-14.86
-16.34
-18.32
-20.53
-22.47
-23.57
-23.38
-21.72
-18.75
-14.90
-10.70
-6.63
-3.01
-0.03
2.25
3.83
4.84
5.43
5.77
5.97
6.02
5.81
5.21
4.21
2.94
1.64
0.53
-0.31
-0.91
-1.39
-1.87
-2.38
-2.88
-3.34
-3.85
-4.55
-5.60
-7.01
-8.66
-10.27
-11.45
-11.87
-11.34
-9.86
-7.56
-4.73
-1.67
1.33
3.99
6.14
7.60
8.30
8.22
7.48
6.27
4.90
3.65
2.72
2.21
2.08
2.22
2.42
2.43
2.06
1.21
0.00
-1.32
-2.49
-3.38
-4.05
-4.78
-5.83
-7.33
-9.18
-11.01
-12.43
-13.06
-12.75
-11.48
-9.45
-6.90
-4.11
-1.37
1.16
3.34
5.14
6.55
7.53
8.03
8.01
7.47
6.53
5.36
4.14
3.06
2.21
1.59
1.14
0.69
0.10
-0.76
-1.87
-3.09
-4.21
-5.03
-5.50
-5.63
-5.52
-5.14
-4.41
-3.19
-1.40
0.88
3.42
5.93
8.17
10.03
11.46
12.43
12.87
12.71
11.90
10.53
8.77
6.84
4.91
3.10
1.48
0.12
-0.91
-1.60
-1.98
-2.19
-2.41
-2.76
-3.31
-4.07
-5.07
-6.38
-8.06
-9.99
-11.88
-13.24
-13.62
-12.77
-10.72
-7.84
-4.55
-1.32
1.61
4.12
6.19
7.85
9.09
9.94
10.41
10.50
10.18
9.52
8.64
7.76
7.11
6.78
6.71
6.66
6.38
5.70
4.66
3.36
1.95
0.46
-1.12
-2.78
-4.44
-5.82
-6.65
-6.64
-5.71
-3.96
-1.64
0.94
3.57
6.02
8.16
9.89
11.15
11.94
12.25
12.14
11.63
10.80
9.70
8.43
7.14
5.97
5.08
4.50
4.18
3.96
3.63
3.03
2.09
0.86
-0.54
-1.96
-3.30
-4.46
-5.41
-6.09
-6.41
-6.21
-5.32
-3.68
-1.35
1.40
4.18
6.58
8.36
9.43
9.92
10.01
9.85
9.50
8.97
8.23
7.36
6.45
5.63
4.95
4.41
3.88
3.25
2.42
1.38
0.20
-1.01
-2.12
-3.10
-3.99
-4.91
-5.87
-6.74
-7.29
-7.18
-6.22
-4.46
-2.21
0.13
2.21
3.92
5.39
6.82
8.32
9.78
10.94
11.54
11.54
11.10
10.52
10.08
9.83
9.67
9.43
9.02
8.50
8.01
7.67
7.41
7.08
6.47
5.51
4.19
2.67
1.14
-0.17
-1.05
-1.32
-0.82
0.50
2.51
4.96
7.54
9.89
11.79
13.10
13.77
13.84
13.39
12.52
11.36
9.99
8.45
6.76
4.95
3.07
1.29
-0.26
-1.49
-2.39
-3.05
-3.59
-4.04
-4.44
-4.84
-5.34
-6.11
-7.22
-8.56
-9.77
-10.34
-9.87
-8.25
-5.77
-3.01
-0.54
1.26
2.36
2.99
3.48
4.04
4.74
5.51
6.18
6.63
6.87
6.99
7.12
7.38
7.73
8.08
8.29
8.27
8.06
7.78
7.57
7.42
7.19
6.61
5.42
3.57
1.25
-1.05
-2.82
-3.65
-3.39
-2.21
-0.45
1.52
3.42
5.11
6.60
7.89
8.98
9.86
10.50
10.85
10.92
10.75
10.36
9.84
9.24
8.66
8.12
7.56
6.90
6.05
5.03
4.00
3.11
2.42
1.87
1.28
0.40
-0.91
-2.69
-4.90
-7.41
-9.93
-12.10
-13.41
-13.43
-12.03
-9.49
-6.48
-3.77
-1.90
-0.94
-0.55
-0.26
0.31
1.17
2.13
2.93
3.40
3.53
3.40
3.05
2.40
1.35
-0.12
-1.82
-3.40
-4.52
-4.94
-4.74
-4.25
-3.87
-3.89
-4.41
-5.30
-6.34
-7.40
-8.46
-9.55
-10.62
-11.47
-11.76
-11.18
-9.64
-7.31
-4.60
-1.91
0.44
2.35
3.91
5.21
6.29
7.03
7.31
7.09
6.46
5.61
4.77
4.03
3.35
2.68
1.96
1.23
0.57
0.01
-0.49
-1.01
-1.58
-2.17
-2.69
-3.13
-3.62
-4.36
-5.48
-6.90
-8.25
-9.01
-8.79
-7.39
-4.99
-1.98
1.23
4.33
7.17
9.66
11.75
13.29
14.18
14.39
14.06
13.43
12.77
12.25
11.84
11.42
10.78
9.88
8.77
7.56
6.34
5.11
3.83
2.38
0.74
-1.09
-3.08
-5.21
-7.41
-9.54
-11.35
-12.50
-12.71
-11.78
-9.84
-7.24
-4.48
-2.03
-0.25
0.77
1.15
1.13
0.95
0.72
0.43
-0.04
-0.77
-1.76
-2.90
-4.03
-5.03
-5.85
-6.51
-6.99
-7.19
-7.02
-6.47
-5.75
-5.25
-5.44
-6.65
-8.88
-11.75
-14.55
-16.54
-17.11
-16.03
-13.46
-9.82
-5.64
-1.40
2.56
6.18
9.48
12.68
15.90
19.20
22.41
25.14
26.95
27.46
26.63
24.74
22.31
19.89
17.82
16.15
14.68
13.21
11.65
10.16
8.93
8.12
7.64
7.15
6.24
4.56
2.02
-1.13
-4.45
-7.41
-9.58
-10.67
-10.62
-9.50
-7.49
-4.87
-1.98
0.84
3.33
5.40
7.10
8.58
9.99
11.40
12.73
13.79
14.38
14.39
13.84
12.95
11.98
11.17
10.57
10.10
9.56
8.83
7.98
7.19
6.64
6.31
6.04
5.47
4.35
2.62
0.39
-2.13
-4.69
-7.04
-8.93
-10.05
-10.12
-8.98
-6.76
-3.86
-0.86
1.67
3.43
4.42
4.94
5.47
6.48
8.30
10.86
13.71
16.01
16.90
15.80
12.65
8.05
2.96
-1.59
-4.84
-6.49
-6.59
-5.45
-3.49
-1.10
1.28
3.25
4.47
4.66
3.77
1.92
-0.68
-3.68
-6.69
-9.26
-10.99
-11.58
-10.92
-9.07
-6.33
-3.05
0.40
3.74
6.81
9.44
11.55
12.94
13.43
12.85
11.15
8.56
5.47
2.45
0.02
-1.49
-2.06
-1.96
-1.62
-1.41
-1.54
-2.05
-2.83
-3.74
-4.63
-5.43
-6.09
-6.68
-7.33
-8.27
-9.69
-11.56
-13.59
-15.20
-15.81
-14.98
-12.66
-9.18
-5.06
-0.81
3.18
6.72
9.71
12.02
13.48
13.94
13.34
11.83
9.73
7.43
5.27
3.45
2.01
0.85
-0.20
-1.26
-2.36
-3.44
-4.42
-5.28
-6.14
-7.16
-8.52
-10.31
-12.46
-14.78
-17.02
-18.88
-20.11
-20.49
-19.83
-18.09
-15.31
-11.71
-7.60
-3.34
0.79
4.57
7.78
10.30
11.97
12.77
12.78
12.21
11.36
10.46
9.67
9.01
8.41
7.74
6.88
5.74
4.29
2.61
0.83
-0.89
-2.47
-4.01
-5.75
-7.94
-10.64
-13.58
-16.15
-17.68
-17.61
-15.82
-12.61
-8.56
-4.27
-0.14
3.65
7.14
10.33
13.18
15.50
17.08
17.78
17.55
16.57
15.06
13.40
11.87
10.69
9.87
9.20
8.42
7.24
5.60
3.63
1.61
-0.18
-1.67
-2.96
-4.29
-5.94
-8.13
-10.89
-14.05
-17.23
-19.88
-21.35
-21.11
-18.94
-15.00
-9.79
-3.99
1.68
6.72
10.75
13.59
15.25
15.90
15.96
15.93
16.32
17.33
18.77
20.17
20.96
20.78
19.53
17.49
15.01
12.42
9.86
7.38
5.00
2.79
0.91
-0.51
-1.50
-2.31
-3.32
-4.93
-7.36
-10.58
-14.35
-18.20
-21.64
-24.14
-25.28
-24.76
-22.49
-18.69
-13.78
-8.38
-3.07
1.71
5.73
8.95
11.42
13.19
14.29
14.71
14.49
13.71
12.49
10.95
9.24
7.44
5.65
3.97
2.49
1.24
0.17
-0.78
-1.75
-2.79
-3.96
-5.20
-6.47
-7.67
-8.78
-9.81
-10.88
-12.22
-14.06
-16.56
-19.67
-23.04
-26.11
-28.17
-28.66
-27.23
-23.90
-18.90
-12.65
-5.62
1.72
8.92
15.52
21.08
25.21
27.65
28.42
27.80
26.30
24.48
22.77
21.33
20.02
18.55
16.59
13.94
10.60
6.78
2.80
-0.95
-4.13
-6.57
-8.31
-9.57
-10.76
-12.25
-14.26
-16.74
-19.37
-21.66
-23.08
-23.24
-21.99
-19.44
-15.91
-11.85
-7.69
-3.73
-0.18
2.84
5.31
7.20
8.57
9.46
9.90
9.94
9.61
8.97
8.08
7.04
5.90
4.68
3.36
1.94
0.45
-0.99
-2.25
-3.35
-4.43
-5.83
-7.87
-10.70
-14.16
-17.79
-20.96
-23.08
-23.75
-22.89
-20.59
-17.14
-12.89
-8.18
-3.35
1.33
5.68
9.68
13.35
16.74
19.77
22.20
23.66
23.83
22.60
20.14
16.85
13.27
9.88
7.00
4.79
3.26
2.36
2.02
2.07
2.24
2.15
1.38
-0.33
-3.05
-6.56
-10.45
-14.15
-17.10
-18.85
-19.08
-17.70
-14.87
-11.02
-6.67
-2.36
1.59
5.06
8.16
10.99
13.54
15.62
17.03
17.63
17.51
16.91
16.12
15.35
14.68
14.04
13.35
12.48
11.34
9.81
7.86
5.49
2.91
0.38
-1.84
-3.62
-5.06
-6.42
-8.03
-10.12
-12.72
-15.73
-18.86
-21.75
-23.92
-24.87
-24.15
-21.49
-16.98
-11.10
-4.55
1.85
7.48
12.03
15.41
17.77
19.25
20.04
20.25
20.02
19.51
18.84
18.08
17.22
16.23
15.06
13.77
12.46
11.26
10.18
9.12
7.90
6.34
4.43
2.27
0.05
-2.13
-4.27
-6.47
-8.88
-11.61
-14.61
-17.75
-20.75
-23.23
-24.77
-25.01
-23.69
-20.77
-16.45
-11.13
-5.39
0.17
4.98
8.63
11.00
12.27
12.85
13.19
13.58
14.04
14.32
14.15
13.41
12.21
10.78
9.32
7.92
6.50
4.97
3.35
1.77
0.38
-0.75
-1.77
-2.94
-4.43
-6.27
-8.23
-10.02
-11.39
-12.42
-13.45
-14.98
-17.37
-20.58
-24.17
-27.29
-29.05
-28.79
-26.33
-22.03
-16.64
-11.06
-6.00
-1.86
1.31
3.69
5.54
7.01
8.15
9.00
9.61
10.13
10.72
11.47
12.36
13.29
14.12
14.79
15.28
15.56
15.57
15.16
14.18
12.58
10.45
8.01
5.49
3.05
0.64
-1.85
-4.54
-7.37
-10.10
-12.34
-13.70
-13.89
-12.81
-10.51
-7.15
-2.99
1.62
6.24
10.34
13.48
15.41
16.17
16.03
15.38
14.57
13.76
12.96
12.14
11.32
10.59
10.06
9.70
9.38
8.82
7.83
6.35
4.56
2.72
1.01
-0.54
-2.10
-3.82
-5.74
-7.71
-9.54
-11.21
-12.88
-14.85
-17.22
-19.74
-21.80
-22.61
-21.63
-18.79
-14.56
-9.62
-4.69
-0.21
3.62
6.78
9.30
11.17
12.42
13.12
13.41
13.44
13.35
13.23
13.11
12.99
12.80
12.48
11.95
11.20
10.28
9.27
8.23
7.12
5.85
4.33
2.60
0.76
-0.96
-2.45
-3.67
-4.73
-5.84
-7.12
-8.66
-10.45
-12.48
-14.72
-17.09
-19.46
-21.48
-22.79
-22.98
-21.86
-19.40
-15.83
-11.50
-6.79
-2.11
2.23
5.96
8.86
10.77
11.64
11.58
10.87
9.87
8.94
8.28
7.90
7.67
7.42
7.02
6.47
5.81
5.09
4.31
3.44
2.42
1.23
-0.10
-1.54
-3.01
-4.45
-5.87
-7.28
-8.75
-10.36
-12.16
-14.08
-16.01
-17.70
-18.92
-19.49
-19.29
-18.29
-16.47
-13.93
-10.85
-7.54
-4.33
-1.51
0.84
2.83
4.70
6.70
8.87
11.08
13.06
14.53
15.33
15.39
14.84
13.86
12.69
11.59
10.74
10.18
9.84
9.49
8.91
7.92
6.51
4.80
2.94
1.06
-0.80
-2.71
-4.66
-6.74
-9.02
-11.56
-14.40
-17.37
-20.07
-21.89
-22.24
-20.76
-17.56
-13.13
-8.25
-3.63
0.30
3.41
5.84
7.82
9.50
10.95
12.13
12.91
13.24
13.09
12.55
11.75
10.86
10.00
9.26
8.67
8.20
7.75
7.21
6.50
5.59
4.49
3.29
2.05
0.83
-0.37
-1.60
-2.94
-4.40
-5.94
-7.48
-8.99
-10.57
-12.38
-14.55
-16.99
-19.34
-21.00
-21.37
-20.14
-17.43
-13.75
-9.75
-5.93
-2.52
0.49
3.23
5.76
8.02
9.91
11.32
12.19
12.54
12.39
11.89
11.22
10.62
10.23
10.02
9.77
9.14
7.92
6.16
4.16
2.28
0.77
-0.33
-1.17
-1.97
-2.91
-4.05
-5.40
-6.93
-8.60
-10.38
-12.20
-14.06
-15.97
-17.97
-20.06
-22.07
-23.60
-24.15
-23.29
-20.93
-17.39
-13.30
-9.29
-5.79
-2.88
-0.39
1.86
3.91
5.64
6.85
7.43
7.50
7.28
7.04
6.92
6.98
7.14
7.35
7.54
7.67
7.71
7.62
7.42
7.14
6.81
6.39
5.78
4.84
3.46
1.60
-0.63
-3.04
-5.45
-7.75
-9.92
-11.99
-13.90
-15.49
-16.48
-16.58
-15.59
-13.51
-10.55
-6.99
-3.22
0.45
3.75
6.50
8.62
10.17
11.32
12.29
13.24
14.17
14.96
15.45
15.58
15.41
15.08
14.73
14.41
14.05
13.51
12.69
11.55
10.13
8.48
6.65
4.67
2.53
0.28
-2.08
-4.51
-6.99
-9.53
-12.19
-14.99
-17.85
-20.59
-22.90
-24.38
-24.70
-23.62
-21.12
-17.35
-12.67
-7.53
-2.43
2.24
6.22
9.45
11.99
13.96
15.48
16.50
16.96
16.75
15.87
14.49
12.82
11.14
9.62
8.38
7.48
6.98
6.90
7.23
7.86
8.52
8.90
8.68
7.67
5.84
3.34
0.46
-2.49
-5.26
-7.72
-9.91
-12.08
-14.55
-17.57
-21.14
-24.85
-28.02
-29.90
-30.06
-28.47
-25.43
-21.46
-16.97
-12.18
-7.18
-2.13
2.72
7.01
10.42
12.76
14.09
14.60
14.58
14.32
14.09
14.10
14.41
14.91
15.33
15.39
14.91
13.90
12.58
11.18
9.87
8.59
7.20
5.52
3.50
1.29
-0.89
-2.85
-4.58
-6.17
-7.83
-9.76
-12.02
-14.63
-17.45
-20.31
-22.87
-24.68
-25.23
-24.05
-21.03
-16.43
-10.91
-5.24
-0.03
4.45
8.21
11.35
13.93
15.83
16.94
17.22
16.84
16.05
15.12
14.17
13.17
12.12
10.98
9.90
9.02
8.40
7.94
7.45
6.70
5.57
4.11
2.49
0.91
-0.43
-1.50
-2.39
-3.37
-4.77
-6.87
-9.72
-13.04
-16.18
-18.22
-18.29
-15.85
-10.98
-4.45
2.52
8.53
12.46
13.76
12.58
9.63
6.02
2.79
0.65
-0.21
-0.07
0.57
1.27
1.80
2.23
2.71
3.35
4.03
4.53
4.57
4.05
3.14
2.15
1.39
1.07
1.08
1.11
0.73
-0.37
-2.28
-4.88
-7.90
-11.09
-14.27
-17.31
-20.00
-21.93
-22.63
-21.63
-18.76
-14.19
-8.48
-2.33
3.57
8.75
12.99
16.26
18.63
20.20
21.04
21.31
21.16
20.76
20.25
19.72
19.10
18.25
17.06
15.48
13.71
12.05
10.85
10.19
9.94
9.69
9.01
7.65
5.60
3.08
0.37
-2.34
-5.00
-7.68
-10.50
-13.60
-17.01
-20.71
-24.47
-27.85
-30.23
-30.93
-29.53
-26.04
-20.98
-15.16
-9.39
-4.20
0.27
4.15
7.62
10.71
13.33
15.27
16.48
17.00
17.01
16.68
16.10
15.29
14.27
13.12
12.01
11.10
10.40
9.82
9.10
8.00
6.44
4.44
2.22
0.01
-2.05
-3.91
-5.61
-7.28
-9.05
-11.08
-13.50
-16.33
-19.52
-22.71
-25.36
-26.80
-26.49
-24.23
-20.26
-15.21
-9.86
-4.82
-0.41
3.39
6.67
9.48
11.67
13.01
13.37
12.86
11.77
10.46
9.20
8.06
7.02
6.01
5.02
4.06
3.16
2.32
1.48
0.62
-0.29
-1.26
-2.41
-3.86
-5.76
-8.12
-10.87
-13.84
-16.78
-19.48
-21.67
-23.00
-23.09
-21.64
-18.65
-14.41
-9.49
-4.56
-0.09
3.72
6.97
9.85
12.45
14.62
16.10
16.64
16.21
15.05
13.56
12.13
10.94
9.94
8.90
7.65
6.15
4.58
3.16
2.08
1.32
0.69
-0.13
-1.44
-3.44
-6.15
-9.46
-13.05
-16.48
-19.14
-20.43
-19.85
-17.26
-12.94
-7.53
-1.84
3.45
7.98
11.72
14.76
17.16
18.80
19.49
19.21
18.11
16.63
15.18
13.97
12.96
11.92
10.66
9.19
7.70
6.48
5.71
5.36
5.16
4.72
3.70
1.95
-0.45
-3.16
-5.84
-8.21
-10.29
-12.30
-14.53
-17.16
-20.02
-22.67
-24.46
-24.89
-23.72
-21.06
-17.24
-12.64
-7.53
-2.08
3.52
8.96
13.81
17.59
20.04
21.18
21.36
21.05
20.66
20.33
20.05
19.67
19.14
18.51
17.86
17.22
16.49
15.54
14.32
12.90
11.46
10.16
9.00
7.79
6.23
4.14
1.54
-1.31
-4.05
-6.41
-8.33
-9.98
-11.63
-13.55
-15.88
-18.55
-21.30
-23.73
-25.32
-25.61
-24.24
-21.21
-16.79
-11.59
-6.28
-1.42
2.69
6.04
8.74
10.92
12.60
13.79
14.49
14.82
14.92
14.89
14.77
14.47
13.94
13.19
12.37
11.63
11.07
10.69
10.38
10.02
9.51
8.78
7.75
6.27
4.27
1.76
-1.01
-3.71
-6.04
-7.88
-9.34
-10.76
-12.52
-14.85
-17.75
-20.94
-23.92
-26.12
-27.04
-26.41
-24.20
-20.70
-16.30
-11.50
-6.66
-2.07
2.06
5.58
8.36
10.39
11.72
12.51
12.91
12.99
12.79
12.29
11.49
10.53
9.57
8.77
8.23
7.90
7.68
7.40
6.95
6.28
5.42
4.43
3.34
2.16
0.87
-0.58
-2.22
-4.08
-6.14
-8.47
-11.05
-13.87
-16.76
-19.38
-21.25
-21.78
-20.57
-17.47
-12.83
-7.33
-1.79
3.12
7.04
9.99
12.22
13.99
15.48
16.65
17.48
17.95
18.08
17.97
17.66
17.17
16.48
15.56
14.40
13.03
11.48
9.79
8.06
6.39
4.91
3.72
2.89
2.29
1.72
0.91
-0.37
-2.20
-4.54
-7.19
-9.94
-12.60
-15.18
-17.77
-20.57
-23.66
-26.94
-30.11
-32.65
-34.02
-33.76
-31.68
-27.89
-22.73
-16.76
-10.54
-4.59
0.72
5.17
8.68
11.30
13.13
14.32
14.98
15.18
14.97
14.36
13.45
12.38
11.36
10.59
10.16
10.03
10.02
9.94
9.66
9.18
8.58
7.98
7.36
6.60
5.54
4.07
2.27
0.35
-1.45
-2.98
-4.23
-5.36
-6.55
-7.91
-9.47
-11.27
-13.40
-15.96
-18.99
-22.29
-25.40
-27.62
-28.32
-27.17
-24.26
-20.08
-15.27
-10.47
-6.10
-2.36
0.68
3.05
4.72
5.76
6.23
6.25
6.01
5.66
5.36
5.15
5.05
5.07
5.25
5.62
6.20
6.92
7.65
8.22
8.49
8.44
8.06
7.39
6.44
5.17
3.62
1.88
0.10
-1.71
-3.72
-6.20
-9.36
-13.00
-16.47
-18.80
-19.19
-17.30
-13.47
-8.49
-3.18
1.88
6.49
10.57
14.06
16.71
18.32
18.91
18.79
18.46
18.26
18.25
18.10
17.44
16.01
13.96
11.71
9.69
8.13
6.92
5.75
4.32
2.55
0.57
-1.38
-3.07
-4.50
-5.77
-7.10
-8.67
-10.66
-13.09
-16.01
-19.33
-22.84
-26.22
-28.96
-30.51
-30.38
-28.35
-24.50
-19.32
-13.48
-7.66
-2.40
2.03
5.54
8.19
10.08
11.30
11.94
12.15
12.12
11.97
11.78
11.48
10.91
9.94
8.59
7.03
5.57
4.49
3.89
3.63
3.36
2.69
1.42
-0.43
-2.59
-4.79
-6.87
-8.94
-11.28
-14.14
-17.61
-21.47
-25.18
-28.11
-29.69
-29.57
-27.74
-24.43
-20.08
-15.17
-10.14
-5.38
-1.15
2.37
5.14
7.25
8.86
10.19
11.39
12.47
13.26
13.59
13.28
12.37
11.01
9.46
7.96
6.63
5.47
4.36
3.18
1.85
0.35
-1.28
-2.99
-4.78
-6.72
-8.91
-11.45
-14.31
-17.32
-20.12
-22.25
-23.32
-23.08
-21.57
-19.02
-15.76
-12.05
-8.02
-3.75
0.70
5.13
9.16
12.38
14.44
15.26
15.05
14.26
13.36
12.70
12.35
12.16
11.90
11.38
10.62
9.75
9.00
8.40
7.85
7.06
5.77
3.83
1.32
-1.53
-4.56
-7.66
-10.83
-14.00
-16.91
-19.07
-19.93
-19.09
-16.45
-12.36
-7.38
-2.16
2.81
7.25
11.12
14.50
17.44
19.95
21.89
23.06
23.31
22.62
21.21
19.48
17.87
16.62
15.80
15.24
14.74
14.13
13.38
12.56
11.71
10.86
9.89
8.62
6.89
4.60
1.82
-1.38
-4.82
-8.41
-12.07
-15.69
-19.01
-21.58
-22.85
-22.35
-19.97
-15.93
-10.85
-5.47
-0.38
4.10
8.01
11.55
14.99
18.35
21.48
24.04
25.68
26.17
25.53
24.12
22.35
20.64
19.22
18.08
17.08
16.11
15.13
14.18
13.31
12.47
11.52
10.26
8.55
6.36
3.81
1.11
-1.55
-4.09
-6.54
-8.99
-11.50
-14.10
-16.81
-19.58
-22.33
-24.87
-26.86
-27.88
-27.55
-25.76
-22.66
-18.64
-14.17
-9.60
-5.12
-0.75
3.49
7.48
11.02
13.90
16.00
17.33
18.01
18.11
17.67
16.69
15.23
13.50
11.77
10.37
9.54
9.38
9.83
10.78
12.06
13.42
14.61
15.28
15.17
14.15
12.33
10.04
7.67
5.53
3.74
2.28
0.95
-0.44
-2.05
-3.95
-6.14
-8.61
-11.34
-14.37
-17.64
-21.05
-24.29
-26.87
-28.21
-27.81
-25.51
-21.53
-16.56
-11.36
-6.61
-2.59
0.80
3.86
6.87
9.78
12.33
14.10
14.80
14.43
13.32
11.95
10.74
9.92
9.47
9.20
8.91
8.47
7.93
7.40
