1513833077.00
64.000000
-0.00
-0.00
-0.00
-0.00
-0.00
-0.00
-0.00
-0.00
-0.00
-0.00
0.00
0.01
0.01
-0.00
-0.03
-0.05
-0.05
0.00
0.13
0.36
0.66
1.01
1.37
1.72
2.06
2.40
2.79
3.24
3.80
4.42
5.06
5.66
6.20
6.68
7.15
7.68
8.31
9.14
10.09
11.04
11.88
12.56
13.14
13.76
14.65
15.96
17.91
20.32
22.90
25.38
27.58
29.57
31.68
34.32
37.81
42.54
48.15
54.10
59.83
64.97
69.58
74.14
79.34
85.71
93.76
103.00
112.62
121.73
129.77
136.75
143.30
150.75
157.77
166.64
177.95
191.79
206.97
220.57
228.25
225.36
208.53
176.87
132.76
80.05
23.07
-34.94
-92.44
-149.16
-205.23
-260.37
-313.74
-363.87
-409.83
-450.91
-486.50
-515.74
-537.23
-549.22
-549.96
-538.37
-514.21
-478.67
-433.88
-382.45
-327.02
-269.84
-212.63
-156.66
-102.95
-52.37
-5.90
35.58
71.43
101.35
125.50
144.38
158.69
169.15
176.37
180.75
182.57
182.07
179.51
175.23
169.65
163.18
156.15
148.81
141.30
133.69
126.02
118.33
110.69
103.16
95.80
88.68
81.83
75.25
68.95
62.95
57.25
51.86
46.78
42.03
37.59
33.45
29.61
26.07
22.81
19.83
17.11
14.67
12.48
10.54
8.83
7.35
6.07
4.97
4.05
3.27
2.62
2.09
1.65
1.30
1.01
0.79
0.61
0.47
0.37
0.29
0.23
0.18
0.16
0.14
0.14
0.14
0.15
0.17
0.20
0.23
0.27
0.30
0.35
0.39
0.44
0.48
0.53
0.58
0.63
0.69
0.75
0.81
0.88
0.95
1.04
1.13
1.23
1.35
1.48
1.62
1.78
1.96
2.17
2.39
2.64
2.91
3.21
3.54
3.90
4.29
4.73
5.19
5.70
6.24
6.82
7.44
8.11
8.82
9.58
10.38
11.23
12.12
13.05
14.04
15.10
16.21
17.39
18.61
19.88
21.16
22.40
23.50
24.36
24.83
24.76
24.05
22.62
20.44
17.57
14.07
10.05
5.65
1.05
-3.57
-8.03
-12.12
-15.69
-18.56
-20.68
-22.03
-22.68
-22.79
-22.53
-22.02
-21.37
-20.58
-19.62
-18.47
-17.15
-15.77
-14.52
-13.58
-13.02
-12.80
-12.72
-12.52
-11.97
-11.07
-10.00
-9.10
-8.76
-9.15
-10.21
-11.56
-12.71
-13.24
-13.08
-12.53
-12.22
-12.75
-14.49
-17.34
-20.77
-24.07
-26.59
-28.12
-28.87
-29.45
-30.58
-33.08
-37.67
-44.69
-53.68
-63.00
-69.94
-71.38
-65.09
-50.72
-30.32
-7.74
12.88
28.45
37.94
42.10
42.75
41.53
39.71
37.96
36.41
35.02
33.66
32.12
30.12
27.34
23.59
18.98
13.93
9.23
5.78
4.36
5.35
8.49
12.90
17.34
20.53
21.61
20.39
17.38
13.57
10.03
7.52
6.23
5.89
5.89
5.66
4.85
3.49
1.85
0.22
-1.23
-2.53
-3.79
-5.03
-6.09
-6.69
-6.70
-6.22
-5.58
-5.20
-5.34
-5.97
-6.86
-7.75
-8.53
-9.31
-10.18
-11.12
-11.86
-12.01
-11.15
-9.25
-6.60
-3.70
-1.10
0.92
2.37
3.54
4.76
6.27
8.04
9.84
11.33
12.22
12.49
12.25
11.76
11.21
10.60
9.84
8.78
7.46
6.02
4.74
3.85
3.44
3.39
3.42
3.27
2.77
1.95
0.89
-0.22
-1.35
-2.54
-3.83
-5.25
-6.71
-8.06
-9.16
-10.01
-10.70
-11.42
-12.29
-13.30
-14.41
-15.53
-16.64
-17.74
-18.78
-19.52
-19.68
-18.96
-17.26
-14.78
-11.86
-8.88
-6.02
-3.23
-0.29
3.00
6.57
10.13
13.12
15.07
15.67
14.98
13.34
11.34
9.57
8.49
8.40
9.31
11.07
13.33
15.60
17.33
18.03
17.53
16.02
14.07
12.38
11.54
11.86
13.15
14.89
16.43
17.43
17.89
18.18
18.70
19.61
20.74
21.54
21.28
19.50
16.45
12.97
10.24
9.20
10.23
13.28
17.61
21.98
25.18
26.71
26.84
26.37
26.12
26.46
27.76
29.41
29.82
26.89
19.37
7.22
-8.08
-23.68
-36.16
-41.60
-38.40
-28.68
-17.87
-11.59
-13.61
-23.72
-37.03
-45.44
-39.00
-11.27
37.40
99.45
163.99
219.78
258.89
279.06
273.96
245.17
203.63
163.44
131.83
108.41
89.39
69.77
47.60
22.17
-6.43
-40.48
-81.27
-131.10
-182.13
-224.40
-250.43
-258.56
-252.46
-236.58
-215.13
-191.54
-169.29
-150.01
-134.68
-123.44
-115.60
-110.30
-105.75
-100.50
-93.64
-86.06
-78.47
-71.98
-67.33
-64.32
-62.21
-58.86
-54.70
-46.21
-32.50
-14.36
5.71
24.68
40.24
50.64
56.02
57.56
56.89
53.93
47.57
35.64
15.94
-13.02
-52.40
-101.13
-155.62
-209.73
-256.79
-290.95
-309.28
-313.09
-299.63
-273.04
-239.37
-204.02
-169.37
-135.13
-99.18
-59.65
-16.98
24.06
56.56
73.73
71.82
52.28
21.44
-11.40
-37.39
-51.52
-53.65
-48.20
-40.62
-34.40
-30.08
-26.28
-21.51
-15.50
-9.39
-4.56
-1.80
-0.46
1.46
6.34
15.68
29.42
46.22
64.02
81.23
97.28
112.50
128.39
146.71
168.75
194.73
223.73
254.26
285.34
317.69
352.09
389.86
430.70
471.55
506.52
528.40
531.00
511.70
473.31
420.00
358.53
295.18
234.92
180.40
132.15
88.56
47.23
6.74
-37.98
-89.62
-148.40
-209.87
-266.06
-307.54
-327.47
-322.53
-292.56
-246.45
-193.12
-139.98
-88.95
-37.93
17.06
77.58
129.41
186.03
238.71
279.05
300.25
301.50
286.62
262.36
233.80
206.13
184.69
168.36
155.35
133.53
98.84
54.95
21.46
1.74
-8.09
-16.06
-29.55
-52.81
-86.19
-124.28
-159.91
-187.74
-208.16
-223.05
-234.14
-244.96
-260.54
-285.16
-319.65
-362.25
-410.05
-460.65
-508.95
-548.32
-558.22
-527.62
-461.89
-380.02
-302.49
-240.96
-197.49
-167.17
-144.00
-124.44
-110.10
-103.12
-104.26
-108.45
-110.45
-107.88
-100.80
-91.23
-81.81
-76.53
-77.63
-84.13
-92.13
-97.33
-98.48
-95.65
-90.13
-83.51
-78.29
-75.97
-76.41
-77.85
-78.67
-78.14
-76.39
-74.18
-72.33
-71.81
-72.91
-75.04
-76.84
-77.06
-74.95
-70.00
-61.96
-50.72
-36.41
-19.35
-0.06
20.73
41.90
62.23
80.86
97.45
112.20
125.73
138.67
151.41
164.04
176.49
188.75
201.24
214.74
230.29
249.05
272.23
301.10
336.61
378.48
424.26
468.99
506.09
529.35
535.32
524.68
501.84
473.01
443.80
417.71
396.01
378.81
365.98
357.39
352.42
349.34
345.45
338.01
325.59
308.60
289.04
269.28
251.12
235.04
220.29
205.55
189.50
171.24
150.39
127.15
102.15
76.43
51.11
27.07
4.74
-16.12
-36.19
-56.40
-77.36
-99.23
-121.51
-143.37
-163.98
-182.80
-199.92
-215.83
-231.44
-247.86
-266.28
-287.64
-312.11
-338.49
-363.88
-384.30
-395.82
-396.11
-385.36
-366.15
-342.28
-317.17
-292.82
-269.65
-247.32
-225.69
-205.31
-187.16
-171.98
-159.72
-149.50
-140.14
-130.75
-121.19
-112.01
-104.09
-98.14
-94.24
-91.92
-90.27
-88.45
-86.00
-83.04
-80.14
-77.98
-77.03
-77.16
-77.69
-77.46
-75.27
-70.16
-61.74
-50.07
-35.48
-18.43
0.73
21.43
42.88
63.73
82.70
98.98
112.78
125.49
139.07
155.26
174.56
196.02
217.49
236.19
249.41
254.73
250.39
235.45
210.26
176.56
137.41
96.40
56.49
18.86
-17.80
-56.59
-100.79
-151.32
-205.06
-254.71
-290.78
-305.03
-293.49
-258.09
-205.81
-146.43
-89.34
-41.49
-6.29
16.42
29.69
38.52
48.22
62.68
82.87
106.52
129.43
147.44
158.36
162.36
161.29
157.16
151.21
143.94
135.83
128.10
122.65
121.37
124.99
132.57
141.63
149.01
152.10
149.72
142.63
133.56
126.71
126.71
137.36
160.04
192.58
229.37
262.58
284.78
291.27
281.85
260.33
232.74
204.67
179.37
157.37
137.44
118.35
99.78
82.45
67.29
54.52
43.23
31.57
17.52
-0.58
-23.40
-50.65
-81.28
-113.88
-147.36
-181.08
-215.10
-249.88
-286.01
-323.95
-364.25
-407.93
-456.34
-510.35
-568.65
-626.77
-677.07
-710.94
-721.86
-708.12
-673.66
-626.33
-574.85
-525.66
-481.67
-442.79
-407.70
-375.41
-345.71
-318.70
-293.94
-270.33
-246.51
-221.70
-196.14
-170.94
-147.60
-127.03
-109.15
-92.90
-76.78
-59.51
-40.55
-20.27
0.44
20.61
39.80
58.15
76.26
94.66
113.50
132.28
150.07
165.92
179.21
190.17
199.99
210.82
224.99
244.05
267.50
292.11
312.24
321.44
314.93
291.62
255.23
213.21
174.55
147.06
135.56
141.33
162.42
194.55
231.82
267.47
294.88
308.82
306.74
289.33
260.22
224.59
187.76
153.75
124.81
101.60
83.63
69.87
58.96
49.70
41.19
33.21
26.13
20.72
17.58
16.83
17.94
19.86
21.62
22.63
22.98
23.25
24.18
26.32
29.63
33.64
37.41
40.00
40.50
38.32
33.15
25.00
14.29
1.72
-11.61
-24.56
-35.96
-45.01
-51.36
-55.18
-57.09
-57.82
-58.12
-58.33
-58.57
-58.64
-58.40
-57.89
-57.33
-57.17
-57.74
-59.24
-61.52
-64.19
-66.75
-68.74
-70.04
-70.76
-71.26
-71.66
-71.84
-71.21
-69.06
-64.92
-58.72
-51.00
-42.47
-33.89
-25.63
-17.82
-10.43
-3.51
2.63
7.64
11.10
12.92
13.22
12.49
11.41
10.68
10.91
12.28
14.73
17.78
20.89
23.55
25.49
26.67
27.17
27.16
26.71
25.88
24.61
22.94
20.84
18.37
15.58
12.52
9.36
6.19
3.22
0.55
-1.75
-3.77
-5.65
-7.53
-9.39
-10.81
-11.11
-9.30
-4.55
3.48
14.37
26.83
39.01
48.97
55.37
57.81
57.04
54.70
52.78
53.08
56.48
62.83
70.82
78.55
83.91
85.33
82.10
74.49
63.55
50.49
36.33
21.30
4.94
-13.71
-35.49
-60.42
-87.27
-113.22
-134.45
-146.79
-147.05
-133.80
-107.94
-72.52
-31.96
8.75
45.08
73.44
91.66
98.81
95.32
82.60
62.83
38.73
13.12
-11.10
-31.35
-45.60
-52.71
-52.64
-46.37
-35.64
-22.26
-7.77
6.95
21.36
35.10
47.54
57.80
64.99
68.48
68.29
65.00
59.60
53.10
46.32
39.79
33.79
28.59
24.48
21.82
20.84
21.53
23.57
26.32
29.15
31.45
32.99
33.72
33.75
33.14
31.90
29.98
27.32
24.13
20.65
17.24
14.09
11.19
8.33
5.18
1.60
-2.40
-6.50
-10.33
-13.47
-15.73
-17.09
-17.79
-18.33
-19.37
-21.70
-25.86
-31.97
-39.40
-46.90
-52.91
-56.14
-56.14
-53.41
-49.22
-44.92
-41.40
-38.65
-35.95
-32.44
-27.57
-21.62
-15.44
-10.27
-7.05
-6.20
-7.51
-10.22
-13.38
-15.87
-16.83
-15.50
-11.50
-4.70
4.76
16.59
30.47
45.85
62.04
77.88
92.02
102.99
109.61
111.32
108.15
100.75
89.96
76.83
62.33
47.54
33.52
21.28
11.66
4.95
1.01
-0.90
-1.66
-2.06
-2.51
-2.85
-2.53
-0.72
3.17
9.48
17.94
27.82
37.86
46.45
51.88
52.54
47.53
36.80
21.54
3.81
-13.79
-28.94
-40.12
-46.68
-48.85
-47.03
-41.64
-32.78
-20.59
-5.48
11.60
29.14
45.58
59.52
70.31
77.85
82.53
84.82
85.07
83.48
80.17
75.45
69.72
63.41
56.57
48.70
38.85
25.95
9.47
-10.33
-32.16
-54.27
-74.88
-92.81
-107.51
-118.56
-125.15
-125.54
-117.43
-98.73
-68.78
-29.02
16.98
64.43
108.76
146.60
176.43
198.01
211.75
217.97
216.77
208.35
193.52
174.07
152.59
131.94
114.51
101.68
93.60
89.08
86.04
81.86
74.09
60.95
41.91
17.71
-10.10
-39.63
-69.46
-98.81
-127.65
-156.25
-185.42
-216.50
-251.43
-291.94
-337.84
-385.75
-428.65
-457.80
-465.84
-450.04
-413.54
-364.09
-311.13
-262.76
-224.33
-198.83
-188.00
-192.84
-212.67
-243.83
-279.05
-308.96
-325.06
-322.99
-303.93
-273.68
-240.10
-209.85
-186.48
-170.01
-158.28
-148.44
-138.31
-126.81
-113.71
-99.17
-83.10
-65.34
-45.57
-23.80
-0.14
25.31
52.99
83.98
119.23
158.41
198.75
234.96
260.62
270.60
263.36
241.98
213.29
185.49
165.79
158.67
165.71
185.97
216.57
252.99
289.45
319.76
338.66
343.49
334.87
316.35
292.79
268.62
246.62
227.55
211.01
196.08
182.10
168.59
155.06
140.86
125.15
107.48
88.09
68.22
49.86
35.11
25.34
20.67
19.95
21.19
22.39
21.64
17.41
8.31
-6.71
-27.69
-53.13
-79.70
-103.51
-121.38
-132.40
-137.73
-139.43
-138.82
-135.43
-127.85
-115.17
-98.73
-81.79
-68.30
-60.41
-57.10
-54.65
-48.33
-34.61
-12.22
17.47
51.25
84.80
113.60
133.81
142.97
141.08
130.53
115.69
101.16
90.20
83.57
79.86
77.10
74.50
73.59
77.43
88.89
108.55
133.52
158.27
176.59
184.10
179.63
165.56
145.77
123.74
100.94
76.44
48.05
14.05
-24.87
-65.03
-100.31
-124.50
-133.72
-128.03
-111.36
-89.45
-67.70
-49.77
-37.79
-33.02
-36.18
-46.54
-60.83
-73.55
-78.83
-73.65
-59.26
-40.64
-23.63
-11.80
-5.20
-1.77
-0.17
-1.21
-7.56
-21.17
-41.12
-63.20
-81.63
-92.04
-93.14
-87.16
-77.91
-69.06
-62.43
-57.75
-53.38
-47.41
-39.11
-29.47
-21.21
-17.45
-20.24
-29.35
-41.83
-53.26
-59.55
-59.02
-52.83
-44.04
-35.69
-28.96
-22.98
-15.70
-6.08
4.89
14.04
17.69
13.68
2.61
-12.12
-25.75
-33.70
-33.10
-23.01
-4.33
20.58
48.14
73.75
92.62
100.86
96.91
82.23
61.17
39.73
23.90
18.48
25.75
45.04
72.41
101.24
123.90
134.23
130.40
115.72
97.51
83.15
76.22
74.05
68.60
50.57
14.04
-40.06
-103.78
-164.69
-210.16
-230.93
-223.29
-189.47
-136.46
-74.19
-13.00
38.44
74.66
93.92
98.10
91.71
80.55
70.33
65.08
66.30
72.45
79.65
83.35
80.37
70.71
57.73
46.72
42.14
45.08
52.31
57.63
55.05
41.71
18.98
-8.89
-37.15
-62.78
-84.96
-103.64
-117.82
-125.21
-123.78
-113.88
-99.33
-86.41
-80.96
-85.69
-98.87
-115.64
-130.58
-140.76
-147.21
-154.37
-168.00
-192.34
-227.27
-267.36
-303.26
-325.51
-328.92
-315.06
-291.32
-266.65
-246.75
-231.08
-214.11
-189.70
-155.05
-112.08
-65.18
-17.57
30.91
82.85
139.66
198.16
249.66
282.60
287.19
259.72
204.64
133.38
61.12
2.59
-31.66
-37.50
-17.50
20.48
65.92
108.97
143.22
167.31
184.24
198.97
215.02
231.95
244.42
244.27
224.10
181.21
119.87
50.59
-12.98
-58.16
-76.80
-66.82
-32.23
18.19
73.10
120.57
149.83
152.80
125.67
70.35
-4.67
-85.01
-153.50
-195.66
-205.06
-186.06
-151.56
-116.99
-93.41
-83.51
-82.65
-83.41
-80.95
-75.64
-71.97
-75.05
-88.14
-112.40
-148.05
-195.41
-253.79
-319.30
-383.58
-434.94
-462.22
-459.19
-426.86
-372.73
-307.40
-240.49
-177.97
-121.49
-69.64
-19.79
30.36
82.38
137.53
196.78
260.19
325.70
388.37
441.23
477.48
493.63
491.35
476.81
457.82
440.13
425.14
410.12
390.89
364.99
333.24
299.39
267.70
240.92
219.39
201.87
186.88
173.69
162.22
152.66
144.90
138.22
131.82
125.14
118.26
111.86
107.26
106.02
109.37
117.48
128.70
139.49
145.14
141.57
126.93
102.62
72.68
42.06
14.53
-8.73
-28.98
-48.64
-69.78
-92.96
-117.36
-141.66
-165.17
-188.22
-212.07
-237.95
-266.26
-296.26
-326.68
-356.46
-384.98
-411.60
-434.75
-451.63
-459.03
-455.12
-440.81
-419.82
-396.90
-375.37
-355.44
-334.28
-307.98
-273.79
-231.34
-182.22
-128.45
-71.59
-12.75
46.15
101.87
149.96
186.22
208.02
215.07
209.29
193.98
173.07
150.19
128.12
107.92
88.77
68.71
46.20
21.99
-0.43
-15.94
-20.58
-13.92
0.16
15.29
25.81
29.17
26.44
20.28
12.83
4.24
-6.41
-19.37
-32.74
-42.86
-46.41
-42.33
-32.69
-21.28
-11.55
-4.91
-0.79
2.28
5.44
8.72
11.87
14.96
18.76
24.00
30.81
38.91
48.63
62.00
82.10
110.64
145.46
179.72
204.19
211.45
199.33
171.58
134.52
92.93
47.52
-3.66
-61.12
-120.16
-170.69
-201.78
-206.98
-187.80
-153.00
-113.95
-79.53
-53.22
-34.74
-23.52
-22.65
-37.07
-70.02
-119.31
-176.22
-228.40
-264.45
-279.29
-275.04
-260.56
-243.92
-227.38
-206.64
-174.89
-128.82
-71.82
-15.93
23.14
29.98
-1.51
-64.94
-144.12
-219.82
-277.23
-309.51
-319.71
-300.58
-253.78
-188.51
-117.97
-52.92
1.72
40.12
65.22
78.94
83.11
78.63
68.46
57.42
49.09
44.50
41.81
38.22
30.42
17.12
-2.45
-26.84
-52.97
-77.50
-98.06
-114.11
-125.79
-134.50
-141.25
-147.58
-154.03
-160.09
-164.52
-165.97
-163.66
-157.13
-146.95
-133.87
-118.89
-102.41
-83.71
-61.20
-32.86
3.05
48.01
102.73
167.38
240.52
318.49
394.95
461.51
510.02
535.13
536.67
519.50
491.63
460.90
432.37
407.66
386.13
366.87
349.76
335.26
323.06
311.38
297.26
278.13
253.38
224.65
195.13
167.87
144.54
125.01
108.06
92.25
76.45
60.19
43.24
25.98
9.22
-5.54
-16.51
-22.26
-22.32
-17.67
-10.23
-2.44
3.76
7.34
8.30
7.57
6.32
5.53
5.49
6.10
6.97
8.16
10.31
14.47
21.71
32.16
44.93
58.28
70.81
81.72
90.87
98.14
102.21
100.69
89.98
66.49
27.87
-25.19
-89.10
-157.61
-222.60
-276.11
-310.98
-323.12
-312.49
-282.63
-238.28
-184.55
-125.43
-63.49
-1.53
58.94
116.50
169.97
218.92
264.64
307.13
343.97
370.67
381.58
376.15
359.02
338.30
322.47
317.69
323.52
334.39
343.22
343.64
336.05
324.32
312.96
292.42
256.21
202.14
135.73
78.84
37.21
10.70
-5.10
-18.36
-32.62
-48.94
-68.76
-92.12
-118.23
-147.70
-178.77
-211.55
-246.40
-280.58
-311.82
-340.75
-367.71
-392.58
-416.17
-437.24
-456.92
-476.12
-491.77
-502.06
-508.78
-512.86
-514.07
-512.05
-486.34
-424.84
-356.16
-297.51
-247.65
-210.18
-187.99
-182.66
-195.16
-225.26
-274.43
-327.58
-363.95
-366.45
-329.68
-258.81
-167.23
-71.52
13.98
78.53
118.90
140.11
148.53
147.67
139.83
126.54
109.62
91.63
74.25
59.20
48.10
40.33
32.90
23.43
11.38
-1.85
-14.38
-24.03
-29.28
-29.66
-26.42
-22.31
-19.75
-20.07
-23.09
-27.84
-33.25
-38.19
-42.10
-45.22
-48.54
-53.19
-60.00
-68.92
-79.37
-90.30
-99.59
-105.41
-106.30
-101.38
-90.16
-75.96
-61.01
-46.44
-32.22
-15.94
4.92
32.22
66.40
106.17
149.04
192.12
233.80
273.71
315.04
360.77
412.86
471.88
537.24
607.87
681.28
754.72
823.31
882.72
926.86
950.38
951.08
930.92
895.61
851.22
804.29
737.72
642.42
518.77
378.77
241.12
121.88
38.24
-17.25
-56.84
-87.71
-112.04
-130.49
-144.48
-155.75
-167.54
-183.54
-208.05
-243.63
-285.83
-329.00
-367.95
-399.26
-422.17
-438.68
-452.03
-466.34
-485.52
-505.10
-521.14
-529.74
-528.36
-516.67
-496.68
-471.78
-426.95
-388.92
-354.23
-321.65
-290.15
-259.86
-232.45
-210.89
-198.37
-197.76
-213.35
-241.82
-281.76
-330.00
-381.16
-427.76
-461.63
-475.98
-467.60
-439.92
-395.08
-339.63
-279.58
-219.10
-160.35
-104.45
-52.15
-3.80
39.56
81.45
125.31
175.34
235.12
305.62
383.83
462.48
531.77
581.93
608.74
613.13
601.23
581.51
560.86
542.25
524.63
505.20
482.03
456.39
431.29
409.39
390.84
372.47
349.06
316.00
271.71
218.70
162.48
109.26
62.95
23.60
-12.56
-51.41
-98.38
-156.69
-225.96
-302.41
-379.27
-448.20
-500.79
-530.35
-533.99
-513.70
-476.44
-431.89
-389.52
-354.80
-327.73
-303.81
-277.50
-246.60
-214.46
-189.90
-182.99
-200.08
-240.02
-293.70
-347.43
-388.21
-409.14
-411.13
-401.19
-387.82
-376.42
-367.27
-356.44
-339.61
-315.18
-286.07
-257.93
-236.18
-222.87
-215.56
-209.09
-198.40
-181.35
-159.33
-136.25
-115.83
-99.66
-86.42
-72.66
-54.90
-30.93
-1.22
31.76
64.60
94.44
120.18
142.52
163.44
185.02
208.62
234.37
261.79
290.30
319.72
349.98
380.21
408.31
430.81
444.18
446.10
436.65
418.28
394.74
369.59
344.93
321.35
298.35
275.42
252.56
230.44
210.11
192.30
177.28
164.42
152.52
139.84
124.50
105.31
82.61
59.05
39.48
30.22
36.89
62.22
103.90
154.14
201.34
233.13
240.37
219.29
172.48
107.49
34.88
-34.26
-90.85
-129.73
-151.08
-159.54
-162.12
-164.61
-168.90
-172.66
-171.50
-162.81
-148.00
-132.33
-121.40
-117.03
-115.58
-109.10
-89.35
-51.60
2.93
67.49
131.39
182.53
210.29
208.77
179.88
134.06
87.58
56.46
49.72
65.16
90.51
109.41
108.61
82.80
34.77
-27.41
-94.45
-157.71
-209.34
-242.12
-250.69
-234.46
-199.56
-158.10
-123.77
-105.91
-105.77
-116.78
-128.45
-131.11
-119.38
-92.40
-52.73
-5.24
43.19
83.90
108.06
109.78
89.49
54.66
17.56
-9.66
-19.59
-11.19
12.48
47.56
92.18
145.72
205.44
263.69
308.60
328.89
320.39
290.07
253.03
226.50
221.03
235.22
256.93
269.77
261.12
227.05
172.51
104.90
32.34
-38.45
-101.12
-148.46
-173.73
-174.37
-154.92
-126.13
-105.05
-104.98
-131.58
-181.10
-242.46
-301.48
-345.37
-365.51
-356.77
-322.36
-267.43
-199.07
-124.14
-47.22
30.28
109.08
178.49
249.09
313.61
364.71
396.01
404.94
393.85
368.94
337.73
306.34
279.76
257.01
237.78
222.16
211.03
205.30
204.78
207.66
210.89
212.93
210.85
204.93
197.05
189.62
184.47
182.04
181.24
179.79
176.01
166.97
151.57
129.87
102.72
71.47
37.43
1.50
-36.01
-74.81
-115.52
-158.04
-201.45
-244.05
-283.43
-317.39
-344.43
-364.46
-378.67
-389.53
-399.94
-412.78
-430.92
-456.68
-491.18
-533.02
-577.44
-616.62
-641.51
-644.98
-624.25
-582.05
-525.06
-461.25
-396.93
-335.23
-276.67
-220.57
-166.65
-115.27
-67.02
-21.33
24.01
72.20
125.82
184.72
245.21
300.08
340.87
360.42
355.25
326.48
279.06
220.27
157.85
99.12
50.45
17.32
4.07
12.88
42.99
90.32
148.17
208.24
262.51
304.25
329.07
335.42
323.96
296.99
257.60
209.57
156.93
104.25
56.21
17.33
-8.71
-20.88
-21.47
-15.65
-9.81
-9.56
-17.90
-35.42
-60.49
-89.30
-118.45
-145.63
-169.05
-187.00
-198.10
-201.74
-199.76
-195.28
-189.14
-181.56
-172.14
-159.30
-141.61
-118.99
-93.10
-68.70
-50.59
-38.32
-30.02
-24.40
-19.92
-15.93
-12.02
-7.07
-2.33
0.53
3.99
8.54
10.77
7.07
-5.84
-28.01
-40.77
-28.22
-6.38
15.27
39.49
63.29
82.12
89.68
81.40
56.59
12.61
-52.18
-131.27
-214.85
-292.79
-354.12
-392.52
-405.58
-392.96
-361.91
-322.33
-278.07
-229.25
-174.64
-100.20
-4.09
88.54
162.98
213.04
233.40
226.18
197.85
155.32
104.20
45.21
-21.28
-89.76
-153.51
-204.67
-234.64
-239.13
-220.98
-188.45
-153.01
-122.84
-98.35
-77.06
-55.53
-30.44
-0.25
34.56
72.84
112.76
153.25
194.65
235.07
270.30
295.34
306.39
302.36
285.52
260.30
232.16
206.45
185.81
170.43
159.23
151.03
145.00
140.44
136.21
130.55
121.83
108.72
91.13
70.89
51.38
36.87
30.85
34.91
47.63
64.62
79.04
83.09
70.34
38.01
-10.83
-67.40
-118.90
-152.72
-160.45
-140.62
-98.56
-43.44
15.41
71.67
122.52
167.35
205.74
236.30
257.08
266.76
265.87
256.49
241.50
222.93
201.18
175.11
142.54
101.97
53.62
0.32
-52.80
-99.29
-133.23
-150.95
-152.26
-140.82
-122.93
-105.85
-95.25
-93.48
-98.85
-106.48
-110.13
-104.48
-87.38
-60.19
-27.27
5.51
32.56
50.19
57.70
57.87
56.04
57.61
65.42
77.43
86.83
84.59
63.69
23.23
-30.13
-83.87
-124.21
-140.97
-130.90
-97.92
-51.15
-1.54
41.56
72.73
91.48
101.41
107.82
114.57
122.19
128.00
127.67
118.11
98.81
71.59
38.98
2.22
-40.06
-90.72
-151.88
-222.25
-295.50
-361.19
-408.01
-428.27
-421.52
-395.37
-362.43
-334.93
-319.34
-314.11
-311.96
-304.96
-289.55
-268.42
-248.08
-234.20
-227.64
-223.92
-216.08
-199.04
-172.35
-139.98
-107.88
-80.10
-56.68
-33.68
-5.12
34.54
87.52
151.74
221.06
286.79
340.48
375.96
390.90
386.55
366.77
336.40
299.92
260.63
219.88
177.54
132.82
86.06
40.00
0.27
-25.93
-32.63
-17.96
14.28
56.07
98.34
135.14
165.83
194.22
225.50
262.24
302.39
339.65
366.36
376.82
369.47
347.01
314.43
276.52
235.80
192.56
146.11
96.73
46.62
-0.53
-41.23
-74.29
-101.47
-127.17
-156.72
-194.80
-244.00
-303.82
-370.23
-436.00
-492.35
-531.16
-547.71
-542.21
-519.47
-486.86
-451.25
-416.99
-385.27
-355.36
-326.20
-297.45
-269.39
-241.97
-214.41
-185.19
-153.19
-118.46
-82.35
-46.70
-12.84
19.31
51.24
84.86
121.55
161.37
203.10
244.78
284.40
320.54
352.16
378.45
398.21
409.69
410.76
399.39
374.17
334.66
281.97
219.10
151.94
89.14
41.11
16.98
20.65
47.98
86.84
121.11
136.88
128.43
100.51
65.81
38.54
27.48
32.35
44.72
53.48
50.72
35.51
13.38
-7.58
-21.15
-25.98
-24.89
-22.24
-20.68
-19.64
-16.31
-8.09
4.89
19.60
31.32
36.25
33.02
22.71
7.08
-13.52
-40.90
-77.79
-124.86
-178.48
-230.13
-268.96
-285.96
-277.76
-248.01
-205.50
-160.45
-120.34
-88.05
-61.96
-37.81
-10.59
24.08
68.71
123.22
184.01
244.13
294.67
327.37
337.12
322.96
288.06
238.44
181.84
126.81
81.75
53.29
44.28
51.95
67.98
80.97
80.36
60.04
19.68
-36.39
-101.42
-168.00
-228.67
-275.86
-302.19
-302.11
-274.56
-224.83
-164.13
-106.17
-62.24
-36.95
-27.20
-24.68
-20.86
-11.30
2.93
17.23
27.63
33.95
40.48
53.41
76.97
110.37
147.80
181.16
203.83
213.26
211.39
203.24
194.62
189.89
190.69
195.56
200.53
200.85
192.70
174.85
148.91
118.43
86.65
54.79
21.72
-14.96
-57.04
-104.54
-155.76
-208.06
-258.43
-303.52
-339.26
-361.30
-366.54
-354.75
-329.18
-295.24
-257.65
-217.81
-173.51
-121.32
-60.34
5.03
65.68
111.65
136.96
142.89
136.82
128.37
124.04
124.44
124.89
119.38
104.35
80.30
50.62
19.24
-10.83
-36.85
-54.77
-59.14
-45.39
-13.89
27.89
66.95
90.35
91.67
74.52
50.61
33.31
30.68
41.63
57.09
65.18
56.89
29.96
-10.95
-57.00
-99.25
-131.90
-153.05
-163.79
-166.01
-160.94
-149.27
-132.24
-112.44
-93.46
-78.12
-66.97
-58.53
-51.43
-46.92
-49.35
-63.99
-92.90
-131.87
-170.84
-198.00
-205.20
-191.47
-162.70
-127.54
-93.19
-62.67
-35.31
-9.08
17.53
45.26
75.41
110.61
153.98
206.86
266.16
323.40
366.71
384.76
371.26
327.84
264.02
194.41
134.23
94.69
80.14
87.34
107.12
127.70
138.47
132.44
107.09
63.90
7.25
-56.27
-118.27
-168.82
-198.00
-198.80
-170.25
-119.34
-60.04
-9.14
18.89
16.10
-17.69
-76.50
-150.53
-228.41
-298.59
-350.89
-378.80
-381.80
-365.98
-341.94
-320.24
-306.87
-300.72
-295.13
-282.11
-256.79
-219.51
-174.91
-129.62
-89.90
-60.37
-43.65
-40.17
-47.71
-61.37
-74.84
-82.21
-80.30
-69.36
-51.98
-31.49
-10.42
9.84
28.55
45.11
59.41
72.57
87.39
107.50
135.21
169.63
206.24
238.44
260.41
270.21
270.75
268.62
271.37
284.71
311.14
349.88
397.62
449.21
498.30
538.01
562.31
567.74
554.61
526.84
490.13
449.44
407.11
362.78
314.84
262.48
207.19
152.54
102.71
60.47
26.06
-2.77
-29.25
-55.83
-83.03
-109.01
-131.07
-147.29
-158.01
-166.14
-176.40
-193.67
-220.97
-257.89
-299.85
-338.93
-365.70
-372.21
-354.56
-314.37
-258.23
-195.30
-134.35
-81.40
-39.07
-7.33
14.92
28.65
34.26
31.76
21.30
3.53
-20.01
-46.82
-73.41
-95.98
-111.40
-118.21
-117.06
-110.10
-99.70
-87.00
-71.56
-52.04
-27.61
0.93
31.12
59.70
83.90
102.39
115.35
123.97
129.58
133.16
135.07
135.26
133.31
128.60
120.34
107.67
89.81
66.11
36.30
0.43
-40.55
-84.78
-129.57
-171.74
-208.13
-235.96
-253.13
-258.45
-251.91
-234.49
-207.78
-173.71
-134.37
-92.31
-50.74
-13.50
15.81
34.98
44.27
46.65
46.84
49.99
60.30
80.40
111.10
151.05
196.12
239.22
271.33
284.08
272.95
239.33
190.13
135.09
82.91
38.35
1.36
-31.75
-65.96
-105.05
-149.81
-197.45
-241.98
-275.86
-292.24
-287.30
-261.33
-218.41
-164.86
-107.65
-53.03
-5.54
32.45
60.93
81.72
97.37
109.46
117.36
118.23
108.42
85.64
50.33
5.59
-44.12
-94.39
-141.39
-181.43
-210.36
-223.78
-218.30
-193.41
-152.12
-99.74
-41.72
17.73
75.66
128.96
172.74
200.89
207.97
192.45
158.74
116.38
76.49
47.47
32.43
29.61
35.87
49.08
69.40
98.15
135.28
177.41
217.74
248.03
261.34
254.61
228.03
184.07
126.90
62.45
-1.05
-53.57
-84.99
-88.30
-61.70
-11.54
48.82
103.50
139.59
151.31
140.80
115.67
79.58
39.18
1.32
-28.97
-49.39
-60.18
-62.73
-59.12
-51.67
-44.29
-40.28
-42.98
-55.67
-80.77
-118.93
-168.54
-223.43
-274.74
-312.81
-328.99
-319.09
-284.32
-230.48
-166.20
-101.21
-45.02
-6.53
7.11
-7.44
-48.58
-109.01
-176.34
-236.00
-275.18
-286.49
-269.82
-231.20
-179.61
-123.56
-69.02
-19.15
24.25
59.06
82.48
91.89
87.20
72.41
54.98
43.52
44.55
60.20
87.65
120.24
149.96
169.82
175.62
166.43
144.21
112.92
77.63
43.68
16.11
-0.81
-4.06
7.34
31.82
65.44
102.82
138.80
169.86
194.88
214.56
230.02
241.29
246.61
243.16
228.50
202.20
166.52
125.90
85.45
49.17
18.71
-7.03
-31.26
-57.97
-89.73
-125.64
-160.49
-185.59
-191.72
-172.88
-129.29
-68.02
-0.89
59.55
103.96
128.12
132.74
121.33
97.92
65.75
27.06
-16.45
-63.32
-112.25
-161.90
-210.40
-254.76
-290.82
-313.94
-320.55
-309.62
-283.44
-246.65
-204.30
-159.69
-113.69
-65.59
-15.30
34.51
78.04
107.72
116.88
102.08
64.30
8.47
-57.73
-125.42
-186.09
-232.70
-260.72
-268.91
-259.46
-237.34
-208.86
-179.90
-154.67
-135.28
-121.89
-113.30
-107.23
-100.77
-90.60
-73.59
-47.55
-11.95
31.66
79.78
127.56
169.89
202.80
224.56
236.02
239.74
238.57
233.82
224.66
208.79
184.06
150.34
110.25
68.60
30.77
1.06
-18.31
-27.03
-26.00
-16.63
-0.58
20.01
42.35
63.28
80.03
91.00
96.21
96.96
94.95
91.47
86.88
80.95
73.36
64.34
54.74
45.74
38.50
33.70
31.80
33.08
37.83
46.34
58.61
74.08
91.36
108.44
122.69
131.53
132.77
125.31
109.43
86.81
60.10
32.04
4.56
-22.04
-48.95
-78.07
-110.44
-144.93
-177.84
-203.72
-217.36
-215.75
-199.44
-172.15
-139.29
-105.87
-75.00
-47.70
-23.51
-1.74
17.96
35.39
50.15
61.75
69.58
72.80
70.41
61.68
46.65
26.51
3.48
-19.79
-40.85
-57.99
-70.24
-77.32
-79.33
-76.78
-70.47
-61.43
-50.64
-38.82
-26.47
-13.82
-1.14
11.21
22.75
32.84
40.69
45.44
46.54
43.96
38.65
32.39
27.30
25.09
26.27
30.12
35.04
39.26
41.31
40.33
36.20
29.41
21.08
12.72
6.10
2.95
4.83
12.75
26.80
45.98
67.89
89.29
106.65
117.08
118.81
111.49
96.06
74.46
49.51
24.43
2.59
-13.65
-23.92
-30.54
-37.70
-49.30
-67.09
-89.33
-111.62
-128.74
-136.98
-135.20
-124.53
-107.29
-85.85
-62.31
-38.53
-16.60
1.50
14.27
21.29
23.39
21.97
18.46
13.69
8.11
2.00
-4.12
-9.49
-13.42
-15.51
-15.89
-15.01
-13.51
-11.98
-10.98
-11.00
-12.38
-15.31
-19.58
-24.78
-30.13
-34.79
-37.92
-38.88
-37.20
-32.72
-25.98
-18.29
-11.69
-8.14
-8.73
-12.81
-18.02
-21.25
-19.96
-13.56
-3.54
7.16
15.77
21.01
23.60
25.57
28.75
33.77
39.46
43.75
44.69
41.60
35.32
27.67
20.55
14.99
11.00
7.84
4.84
1.83
-0.77
-2.28
-2.38
-1.32
0.00
0.60
-0.18
-2.29
-5.02
-7.27
-8.09
-7.10
-4.53
-1.15
2.16
4.72
6.26
6.83
6.63
5.89
4.71
3.20
1.45
-0.38
-2.05
-3.39
-4.09
-3.89
-2.41
0.60
5.23
11.18
17.71
23.77
28.21
30.18
29.23
25.42
19.18
11.24
2.55
-5.89
-13.01
-18.00
-20.46
-20.57
-18.93
-16.39
-13.74
-11.45
-9.70
-8.37
-7.36
-6.66
-6.48
-7.10
-8.61
-10.79
-13.04
-14.63
-14.97
-14.00
-12.16
-10.04
-8.07
-6.10
-3.57
0.27
5.72
12.45
19.51
25.71
30.11
32.22
32.12
30.21
27.03
23.10
18.78
14.29
9.74
5.22
0.76
-3.44
-7.00
-9.11
-8.75
-4.94
2.63
13.18
24.92
35.50
43.08
47.19
49.06
51.03
55.39
63.13
73.27
83.26
90.16
92.11
89.32
83.96
79.08
77.09
78.72
82.86
87.55
91.01
92.07
90.00
83.84
72.38
54.75
31.56
5.09
-21.38
-45.57
-67.65
-90.30
-116.86
-148.55
-182.60
-212.29
-229.46
-227.74
-205.24
-165.15
-114.31
-60.81
-11.51
29.15
59.40
79.54
91.03
95.77
95.75
92.90
88.89
85.02
81.96
79.52
76.69
72.02
64.31
53.21
39.65
25.48
12.78
3.01
-3.55
-7.65
-10.50
-12.91
-14.79
-15.14
-12.85
-7.44
0.43
9.16
17.02
22.84
26.60
29.15
31.65
35.03
39.35
43.66
45.97
43.90
35.43
19.91
-1.28
-24.84
-46.35
-61.68
-68.26
-65.93
-56.81
-44.48
-32.76
-24.60
-21.40
-22.68
-26.58
-30.80
-34.03
-36.70
-40.83
-49.28
-64.06
-85.35
-111.40
-139.62
-167.47
-193.00
-214.66
-230.58
-238.54
-236.43
-223.45
-200.63
-170.68
-136.73
-101.16
-65.26
-29.72
3.98
33.01
53.65
63.30
62.03
53.36
43.14
36.83
37.72
45.49
56.78
66.85
72.49
73.13
70.52
67.45
65.49
65.19
65.70
65.42
63.19
59.75
57.04
57.51
62.78
71.69
82.38
92.45
99.47
101.73
98.99
91.85
81.72
70.79
60.53
53.84
53.39
60.06
66.27
64.03
47.24
15.29
-18.54
-47.25
-67.14
-76.82
-79.05
-75.34
-65.84
-50.04
-27.35
2.17
36.24
73.32
112.83
155.02
200.80
250.73
303.18
353.64
395.18
419.42
420.97
399.06
357.46
303.32
244.92
189.18
140.27
99.31
64.46
33.18
3.11
-27.59
-59.65
-92.64
-125.07
-154.68
-179.13
-196.71
-206.56
-209.06
-206.01
-200.11
-194.14
-190.06
-188.31
-187.99
-187.50
-185.15
-179.88
-171.48
-160.24
-146.69
-131.37
-114.80
-97.80
-81.53
-67.50
-57.04
-50.88
-48.77
-49.60
-51.88
-54.22
-55.87
-56.61
-56.67
-56.18
-55.06
-52.92
-49.37
-44.38
-38.35
-32.09
-26.42
-21.92
-18.72
-16.51
-14.78
-13.05
-11.02
-8.60
-6.06
-3.66
-1.65
-0.17
0.82
1.31
1.29
0.52
-1.19
-3.94
-7.56
-11.68
-15.96
-20.30
-24.89
-30.01
-35.78
-41.78
-47.16
-50.85
-52.10
-50.78
-47.43
-43.11
-38.83
-35.39
-33.17
-32.32
-32.95
-35.10
-38.62
-42.83
-46.59
-48.38
-46.90
-41.52
-32.61
-21.45
-9.73
1.02
9.94
16.83
22.12
26.42
30.17
33.45
35.95
37.25
37.01
35.32
32.79
30.59
30.12
32.53
38.35
47.12
57.57
67.98
76.75
82.76
85.60
85.50
83.06
79.22
75.02
71.60
69.92
70.48
73.01
76.26
78.06
75.78
67.07
50.56
26.56
-2.78
-33.81
-62.24
-84.29
-97.60
-101.85
-98.50
-90.09
-79.18
-67.59
-56.13
-44.87
-33.87
-23.51
-14.61
-7.91
-3.61
-1.23
0.12
1.06
1.75
1.91
1.54
1.36
2.71
6.87
13.99
22.46
29.21
31.03
26.04
14.94
1.22
-9.96
-13.56
-6.59
10.76
34.96
60.42
81.44
94.26
98.23
95.74
91.04
88.20
89.47
94.39
100.16
102.83
98.99
87.11
68.03
44.66
20.85
0.30
-14.23
-21.22
-20.27
-12.11
1.46
17.56
33.02
45.11
52.49
55.29
54.54
51.03
44.37
33.15
15.60
-9.37
-41.60
-79.54
-120.55
-161.31
-198.14
-227.62
-247.22
-256.07
-255.08
-246.51
-232.84
-215.74
-195.92
-173.69
-149.97
-126.57
-105.79
-89.22
-76.96
-67.63
-59.14
-49.99
-39.77
-29.08
-18.77
-9.42
-1.03
6.64
13.49
18.99
22.33
23.04
21.44
18.65
16.04
14.57
14.34
14.68
14.82
14.39
13.71
13.54
14.37
15.98
17.26
16.72
12.95
5.42
-5.10
-16.29
-24.73
-26.78
-19.87
-3.69
19.38
44.76
67.13
82.25
88.19
85.77
77.80
68.01
59.71
54.93
53.94
55.08
55.40
51.72
42.22
27.68
11.72
-0.58
-5.07
-0.51
10.81
24.00
33.84
36.89
32.06
20.25
3.26
-16.88
-37.97
-57.58
-73.13
-82.61
-85.43
-82.77
-77.15
-71.29
-67.08
-65.11
-65.33
-67.78
-73.28
-82.98
-97.15
-114.13
-129.93
-139.32
-137.53
-122.18
-93.84
-55.70
-12.19
32.39
74.66
112.03
142.14
162.89
172.82
171.93
162.13
146.88
130.19
115.14
103.25
94.27
86.86
79.41
70.98
61.46
51.63
42.69
35.80
31.71
30.40
31.10
32.43
32.82
31.02
26.57
19.89
12.05
4.35
-2.42
-8.03
-12.82
-17.21
-21.34
-24.86
-27.07
-27.39
-25.61
-22.15
-17.83
-13.58
-10.06
-7.51
-5.74
-4.29
-2.75
-0.90
1.20
3.31
5.18
6.66
7.79
8.59
9.12
9.32
9.19
8.77
8.23
7.78
7.52
7.48
7.46
7.29
6.83
6.16
5.43
4.87
4.65
4.75
5.04
5.29
5.30
4.99
4.36
3.53
2.60
1.75
1.18
1.14
1.82
3.28
5.28
7.36
8.99
9.76
9.68
8.98
8.18
7.86
8.46
10.38
13.83
18.87
25.20
32.07
38.27
42.43
43.41
40.71
34.63
26.05
16.19
6.18
-3.10
-11.04
-17.27
-21.56
-23.97
-24.73
-24.42
-23.68
-23.12
-22.99
-23.13
-23.08
-22.37
-20.88
-18.87
-17.03
-16.00
-16.13
-17.30
-18.87
-20.20
-20.84
-20.91
-20.82
-21.05
-21.75
-22.68
-23.36
-23.36
-22.58
-21.11
-19.23
-17.14
-14.91
-12.49
-9.83
-7.04
-4.33
-2.09
-0.67
-0.29
-0.91
-2.17
-3.51
-4.30
-4.19
-3.16
-1.60
-0.02
1.10
1.54
1.30
0.48
-0.77
-2.32
-3.89
-5.15
-5.67
-5.23
-3.89
-2.03
-0.11
1.67
3.47
5.92
9.69
15.17
22.18
29.97
37.56
44.04
48.89
51.99
53.57
53.97
53.37
51.80
49.07
45.01
39.51
32.74
25.10
17.13
9.46
2.53
-3.29
-7.87
-11.08
-12.91
-13.39
-12.73
-11.37
-9.80
-8.46
-7.45
-6.58
-5.48
-4.02
-2.42
-1.20
-0.94
-1.83
-3.63
-5.69
-7.44
-8.67
-9.63
-10.78
-12.38
-14.29
-15.94
-16.80
-16.62
-15.67
-14.57
-13.88
-13.85
-14.26
-14.60
-14.25
-12.91
-10.55
-7.54
-4.41
-1.70
0.22
1.28
1.75
2.31
3.74
6.76
11.65
18.10
25.27
31.95
37.05
39.70
39.63
37.06
32.58
27.03
21.21
15.84
11.26
7.59
4.63
2.15
-0.07
-2.07
-3.77
-5.04
-5.71
-5.71
-4.99
-3.62
-1.78
0.25
2.15
3.72
4.85
5.63
6.20
6.74
7.40
8.32
9.73
11.80
14.63
17.96
21.26
23.78
24.94
24.52
22.75
20.21
17.42
14.77
12.35
10.08
7.88
5.76
3.86
2.39
1.59
1.56
2.34
3.85
5.82
7.93
9.69
10.73
10.76
9.86
8.28
6.50
4.93
3.78
2.97
2.06
0.53
-2.10
-5.96
-10.80
-15.97
-20.71
-24.40
-26.82
-28.20
-29.03
-29.80
-30.68
-31.47
-31.72
-30.92
-28.88
-25.69
-21.82
-17.84
-14.36
-11.79
-10.34
-9.97
-10.45
-11.43
-12.56
-13.62
-14.41
-14.71
-14.20
-12.52
-9.49
-5.27
-0.47
4.09
7.69
10.06
11.42
12.34
13.40
14.92
16.94
19.25
21.75
24.45
27.46
30.75
33.96
36.46
37.52
36.73
34.10
30.15
25.60
21.04
16.78
12.76
8.94
5.32
2.17
-0.22
-1.67
-2.30
-2.48
-2.61
-2.96
-3.51
-4.09
-4.45
-4.52
-4.42
-4.39
-4.69
-5.40
-6.43
-7.52
-8.41
-8.94
-9.16
-9.26
-9.56
-10.34
-11.66
-13.45
-15.42
-17.24
-18.58
-19.18
-18.95
-17.84
-15.96
-13.40
-10.30
-6.78
-3.00
0.89
4.83
8.75
12.72
16.75
20.78
24.49
27.40
29.04
29.13
27.80
25.50
22.91
20.62
19.01
18.11
17.74
17.71
17.79
17.86
17.77
17.35
16.38
14.73
12.43
9.74
7.12
4.98
3.61
2.97
2.85
2.99
3.18
3.38
3.53
3.54
3.21
2.31
0.75
-1.36
-3.79
-6.34
-8.90
-11.55
-14.33
-17.13
-19.56
-21.05
-21.10
-19.45
-16.27
-12.04
-7.49
-3.34
-0.31
1.14
0.82
-1.07
-3.87
-6.76
-8.83
-9.55
-8.81
-6.93
-4.50
-2.02
0.15
1.98
3.51
4.85
6.01
6.93
7.52
7.63
7.21
6.23
4.80
3.13
1.56
0.45
0.10
0.62
1.89
3.59
5.21
6.31
6.55
5.89
4.57
3.03
1.82
1.30
1.71
3.00
5.08
7.77
10.91
14.34
17.87
21.39
24.85
28.41
32.34
36.90
42.10
47.53
52.43
55.89
57.33
56.67
54.42
51.29
47.83
44.03
39.26
32.62
23.46
11.92
-0.99
-13.76
-25.09
-34.53
-42.67
-50.68
-59.35
-68.42
-76.21
-80.30
-78.76
-71.20
-59.27
-46.09
-34.99
-28.24
-26.54
-28.97
-33.71
-39.00
-43.74
-47.69
-51.09
-54.50
-58.77
-65.23
-75.32
-89.61
-106.42
-121.04
-126.82
-117.79
-92.18
-54.69
-16.23
9.77
12.74
-10.11
-52.15
-99.83
-137.80
-154.80
-146.61
-116.35
-71.20
-18.32
38.30
98.26
162.66
231.40
301.16
365.57
416.98
449.41
461.00
454.41
435.01
408.02
376.51
341.00
300.41
253.58
201.02
145.66
92.37
45.90
8.65
-19.95
-42.68
-63.25
-85.67
-113.38
-148.61
-191.52
-239.95
-289.83
-335.31
-369.82
-384.57
-373.88
-339.96
-293.90
-248.76
-213.24
-189.15
-173.89
-161.39
-145.81
-122.88
-90.32
-48.32
1.34
53.28
97.12
121.47
119.44
91.71
45.83
-3.49
-47.05
-77.42
-88.50
-77.12
-45.37
-1.64
40.79
67.69
70.34
49.39
16.03
-14.05
-28.54
-24.25
-5.95
18.98
45.31
72.91
105.12
142.32
180.32
216.39
243.13
250.40
234.88
200.52
156.37
111.91
73.77
43.72
19.66
-2.68
-25.93
-49.50
-71.41
-89.94
-104.69
-115.52
-121.25
-119.22
-106.94
-82.84
-46.77
-0.97
51.23
106.43
161.64
213.49
256.81
283.95
287.07
261.52
207.89
132.57
45.82
-41.61
-121.62
-189.93
-246.19
-291.74
-327.71
-355.09
-375.32
-391.40
-407.70
-428.17
-453.75
-480.83
-501.59
-506.66
-489.40
-449.06
-391.30
-325.76
-261.87
-205.33
-156.86
-113.66
-72.25
-30.79
10.06
48.18
81.79
110.81
137.29
164.90
197.90
239.75
290.97
348.02
403.09
445.74
466.28
459.33
425.63
371.41
305.80
237.81
174.57
120.80
78.83
48.42
26.30
6.77
-16.28
-45.99
-80.17
-111.51
-130.88
-132.21
-115.25
-84.70
-46.33
-3.25
44.91
99.02
156.25
207.84
241.26
245.45
215.95
157.00
79.54
-3.10
-79.03
-139.20
-177.49
-191.07
-181.57
-156.68
-129.13
-112.38
-114.59
-134.12
-159.36
-173.97
-164.74
-127.81
-70.68
-8.86
40.33
63.89
57.06
23.97
-24.21
-72.83
-107.60
-118.27
-100.80
-58.01
1.84
67.27
126.33
169.12
189.84
188.12
169.27
143.10
121.20
113.19
123.75
150.60
185.39
216.58
232.96
226.52
194.14
137.86
64.81
-13.38
-82.21
-127.06
-137.85
-113.88
-66.18
-15.09
16.82
14.17
-24.18
-84.48
-143.82
-179.84
-178.96
-140.04
-72.71
7.43
83.80
142.02
171.31
165.82
126.40
62.13
-10.34
-71.26
-104.69
-105.14
-80.30
-48.39
-30.32
-40.90
-82.77
-145.46
-210.04
-256.42
-270.51
-248.80
-199.21
-138.15
-85.14
-56.35
-59.08
-89.49
-134.17
-175.73
-199.09
-195.98
-165.80
-113.73
-48.15
21.28
84.24
130.85
153.65
151.14
130.17
105.12
92.71
104.92
143.57
199.01
254.33
292.01
299.68
272.96
214.90
134.08
42.81
-44.08
-111.23
-145.89
-141.99
-102.95
-41.96
21.28
66.82
81.29
62.46
19.86
-28.62
-63.16
-69.00
-41.68
11.17
72.62
122.49
144.79
133.66
95.04
43.45
-4.18
-35.18
-45.38
-39.31
-27.20
-19.89
-23.99
-39.30
-59.16
-73.42
-72.34
-50.35
-8.04
48.01
107.22
158.19
191.24
200.69
185.50
149.03
98.05
41.34
-12.48
-57.23
-90.52
-113.84
-130.56
-143.48
-153.06
-157.30
-153.08
-137.87
-110.80
-72.37
-24.28
31.08
89.64
144.77
187.47
208.42
201.16
164.45
103.43
28.22
-48.72
-115.22
-161.14
-179.55
-167.99
-129.36
-72.37
-10.39
41.42
70.64
71.56
46.82
6.20
-37.57
-73.59
-96.29
-105.76
-105.33
-98.02
-84.42
-63.56
-35.85
-5.87
18.04
27.24
17.85
-6.28
-34.55
-54.17
-56.19
-39.17
-9.49
21.97
44.35
50.89
40.95
19.62
-4.48
-22.53
-28.43
-20.96
-3.65
17.33
36.16
49.67
57.77
62.10
63.87
62.80
57.25
45.79
28.59
7.85
-12.89
-30.22
-42.18
-48.77
-51.51
-52.55
-53.48
-54.66
-55.36
-54.50
-51.76
-47.93
-44.65
-43.29
-43.90
-44.87
-43.53
-37.57
-26.13
-10.43
6.90
22.84
34.84
41.27
41.42
35.51
24.69
11.17
-2.05
-11.91
-16.33
-15.07
-9.69
-2.89
2.96
6.82
9.64
13.70
21.46
34.22
51.05
68.63
81.78
85.36
76.40
56.07
29.94
6.27
-7.04
-5.48
10.54
36.45
66.25
95.36
122.26
147.70
172.50
195.35
211.90
215.91
201.51
165.70
109.54
38.43
-38.77
-111.41
-169.18
-204.95
-216.89
-209.40
-191.97
-176.32
-172.69
-186.68
-217.92
-260.88
-307.28
-348.73
-378.94
-394.49
-394.75
-381.04
-355.69
-321.54
-281.57
-239.20
-198.07
-161.79
-133.17
-112.95
-98.99
-86.51
-69.37
-41.73
0.05
56.09
122.12
189.58
247.17
283.46
290.72
268.12
223.11
169.82
124.83
102.13
108.98
144.29
199.46
261.64
317.34
355.77
370.86
361.50
330.27
281.36
219.06
147.45
71.79
-0.23
-58.57
-93.02
-96.85
-69.83
-18.60
46.00
112.91
174.16
225.67
265.74
293.22
306.37
303.74
285.65
255.09
217.12
177.13
139.23
105.40
76.24
51.62
31.52
15.74
3.05
-9.43
-26.28
-52.36
-90.53
-139.21
-191.50
-235.85
-259.27
-251.77
-210.44
-141.86
-61.23
11.56
58.26
68.27
42.40
-7.36
-62.29
-103.29
-116.95
-98.50
-51.54
14.75
89.01
160.30
219.66
260.32
278.41
273.35
248.26
209.06
162.79
115.46
70.17
26.95
-15.67
-58.01
-97.98
-131.01
-152.47
-160.49
-157.87
-151.79
-151.06
-162.49
-187.51
-221.60
-256.05
-281.51
-291.48
-284.15
-262.50
-232.43
-200.62
-172.32
-150.41
-135.25
-125.32
-118.47
-112.74
-106.56
-98.38
-86.68
-70.24
-49.04
-24.91
-1.30
17.72
29.27
32.79
30.34
25.59
22.29
22.83
27.58
35.21
43.29
49.31
51.38
49.03
43.17
35.94
29.86
26.76
27.05
29.51
32.10
32.92
31.10
27.01
21.91
17.23
13.97
12.50
12.53
13.57
14.96
16.00
16.04
14.60
11.73
8.08
4.88
3.39
4.39
7.68
12.09
15.99
17.89
17.24
14.44
10.72
7.39
5.30
4.60
4.80
5.30
5.59
5.60
5.52
5.63
6.08
6.74
7.28
7.34
6.83
5.91
5.03
4.60
4.76
5.32
5.72
5.49
4.31
2.31
-0.07
-2.17
-3.49
-3.85
-3.44
-2.71
-1.96
-1.36
-0.94
-0.85
-1.40
-2.93
-5.52
-8.64
-11.40
-12.79
-12.32
-10.29
-7.68
-5.56
-4.54
-4.57
-5.04
-5.40
-5.47
-5.54
-6.09
-7.38
-9.22
-10.98
-11.99
-11.75
-10.43
-8.68
-7.50
-7.75
-9.72
-13.08
-16.86
-19.99
-21.68
-21.84
-21.03
-20.21
-20.48
-22.42
-26.04
-30.57
-34.71
-36.85
-35.56
-29.86
-19.60
-5.71
9.85
24.26
34.61
38.75
36.09
28.05
17.67
8.54
3.37
3.04
6.20
10.35
13.07
13.35
11.94
10.49
10.40
11.70
13.22
13.25
10.93
6.86
2.89
1.10
2.49
6.39
10.77
13.32
12.41
7.63
-0.50
-11.17
-23.61
-37.14
-50.55
-61.98
-69.15
-70.30
-65.21
-55.46
-44.13
-34.43
-28.52
-26.77
-28.18
-31.18
-34.62
-38.01
-41.23
-44.04
-45.75
-45.57
-42.99
-38.01
-30.95
-21.83
-10.10
5.38
25.56
50.58
79.23
109.09
137.19
160.63
177.25
185.67
185.47
176.93
161.09
139.68
114.85
89.02
64.57
43.65
27.93
18.32
14.78
16.11
20.16
24.29
26.16
24.35
18.85
10.84
2.12
-5.73
-11.99
-16.93
-21.51
-26.44
-31.78
-36.70
-40.02
-40.90
-39.34
-36.25
-32.95
-30.69
-30.04
-30.86
-32.46
-33.93
-34.39
-33.19
-29.99
-24.84
-18.30
-11.34
-5.17
-0.85
1.17
1.19
0.25
-0.41
0.25
2.57
6.21
10.38
14.24
17.25
19.13
19.83
19.23
17.22
13.84
9.46
4.88
1.03
-1.23
-1.61
-0.40
1.57
3.31
4.00
3.33
1.60
-0.56
-2.47
-3.90
-5.23
-7.15
-10.20
-14.20
-18.18
-20.81
-21.21
-19.38
-16.48
-14.10
-13.48
-14.80
-17.10
-18.88
-18.90
-17.07
-14.33
-12.17
-11.68
-12.76
-14.14
-13.84
-10.34
-3.27
6.19
15.97
23.95
28.79
30.35
29.20
26.21
21.92
16.65
10.71
4.80
-0.05
-2.86
-3.15
-1.44
1.08
2.92
3.13
1.68
-0.68
-2.88
-4.34
-5.19
-6.17
-7.95
-10.50
-12.90
-13.73
-11.93
-7.40
-1.39
4.22
7.65
8.18
6.37
3.64
1.56
1.03
2.00
3.75
5.43
6.48
7.02
7.64
9.03
11.70
15.64
20.36
25.15
29.41
32.94
35.92
38.68
41.26
43.19
43.46
40.90
34.74
25.15
13.33
1.14
-9.56
-17.78
-23.61
-27.99
-32.01
-36.27
-40.62
-44.42
-47.03
-48.15
-48.01
-46.96
-45.26
-42.98
-40.05
-36.61
-32.97
-29.70
-27.19
-25.58
-24.65
-23.98
-23.18
-22.01
-20.46
-18.62
-16.72
-14.99
-13.63
-12.65
-11.91
-11.15
-10.03
-8.32
-5.94
-3.06
0.12
3.43
6.77
10.17
13.44
16.15
17.44
16.53
13.25
8.41
3.65
0.62
0.18
1.71
3.56
3.91
1.86
-2.17
-6.81
-10.63
-13.00
-14.20
-15.12
-16.38
-17.95
-19.11
-19.02
-17.31
-14.43
-11.73
-10.85
-13.10
-18.70
-26.37
-33.71
-38.04
-37.82
-33.39
-27.03
-21.72
-19.47
-20.05
-20.98
-18.98
-11.95
-0.82
10.48
16.58
13.39
0.33
-18.97
-38.02
-50.33
-52.13
-44.00
-30.26
-16.83
-8.66
-7.91
-13.82
-23.65
-34.24
-42.76
-46.93
-44.92
-35.90
-21.11
-4.56
7.74
10.40
1.75
-14.16
-28.74
-32.50
-19.55
9.59
48.23
86.95
117.99
138.22
149.34
155.33
159.11
160.60
157.03
145.39
124.86
98.10
70.18
46.27
29.37
19.48
14.82
13.81
16.30
23.08
34.32
48.19
61.03
69.00
69.82
63.70
52.73
39.78
27.50
17.86
12.14
10.64
12.32
14.99
15.73
11.62
0.59
-18.23
-43.89
-73.02
-99.05
-112.86
-105.50
-72.52
-18.03
44.26
94.79
115.42
97.34
45.18
-24.76
-90.94
-134.53
-145.10
-122.28
-73.87
-12.53
47.89
95.13
120.83
121.89
100.82
64.70
22.77
-16.47
-47.32
-67.64
-78.10
-80.79
-78.01
-71.92
-64.81
-59.05
-56.48
-57.55
-60.77
-63.27
-62.08
-55.50
-43.94
-29.59
-15.47
-4.24
2.57
4.74
3.13
-0.85
-5.69
-10.18
-13.53
-15.43
-15.84
-14.95
-13.07
-10.73
-8.75
-8.27
-10.45
-15.92
-24.29
-33.84
-41.87
-45.57
-42.90
-33.28
-17.62
1.99
22.94
42.41
57.70
66.38
66.79
58.78
44.16
26.77
11.38
2.12
0.70
5.75
13.46
19.37
20.49
16.50
9.64
3.43
1.03
3.96
11.72
21.91
30.50
32.43
22.62
-2.02
-40.37
-85.74
-126.77
-151.15
-150.60
-124.81
-81.98
-35.53
1.74
22.80
28.40
25.23
21.55
23.16
31.36
43.91
57.20
68.52
76.74
81.65
82.97
79.80
70.97
56.18
36.89
16.28
-1.68
-13.66
-18.36
-16.86
-12.10
-7.49
-5.58
-7.13
-10.95
-14.66
-15.77
-12.84
-6.14
2.48
10.49
15.82
17.88
17.84
17.88
20.07
24.97
31.26
36.07
36.20
29.48
15.78
-2.87
-22.93
-40.38
-51.91
-55.67
-51.73
-42.00
-29.56
-17.70
-8.69
-3.04
0.74
5.32
13.30
25.89
42.10
59.06
72.98
80.59
80.09
71.58
56.73
38.25
19.27
2.86
-8.19
-11.92
-7.64
3.77
19.99
37.77
53.92
66.10
73.21
75.44
73.77
69.71
65.18
62.38
63.57
70.02
81.17
93.71
102.14
100.20
82.80
47.30
-6.32
-76.08
-158.48
-248.29
-338.31
-419.34
-481.83
-518.46
-526.53
-508.83
-472.25
-425.21
-375.01
-326.63
-282.73
-244.49
-211.89
-183.92
-158.51
-132.98
-104.99
-73.36
-38.07
0.39
41.69
85.07
128.52
168.05
198.47
215.68
219.24
213.56
206.58
206.76
219.96
247.91
288.46
337.00
387.73
434.12
469.17
485.94
479.13
447.11
393.32
325.74
254.74
190.01
138.08
101.32
78.37
65.60
58.70
54.09
49.61
44.51
38.97
33.13
26.29
16.70
2.05
-19.98
-51.22
-92.40
-142.66
-198.56
-253.70
-299.04
-324.89
-323.89
-294.16
-240.83
-174.74
-108.95
-54.41
-16.87
3.71
11.37
11.25
7.49
2.42
-2.82
-7.33
-9.87
-9.21
-4.89
2.26
10.06
16.00
18.45
17.46
14.69
12.53
12.90
16.19
21.16
25.49
26.85
23.83
16.40
5.65
-6.66
-18.66
-28.73
-35.60
-38.52
-37.43
-33.05
-26.61
-19.47
-12.53
-5.92
0.75
7.93
15.39
22.21
27.07
29.11
28.39
26.08
23.83
23.05
24.21
26.75
29.55
31.50
32.19
32.05
32.36
34.65
39.95
48.07
57.15
63.82
63.98
54.25
33.29
2.79
-32.56
-66.40
-92.43
-106.32
-106.89
-96.16
-78.23
-57.73
-38.34
-21.91
-8.67
2.17
11.50
19.65
26.38
31.25
33.97
34.46
32.80
28.84
22.43
13.78
3.98
-4.80
-9.76
-8.32
0.91
17.80
40.98
68.76
99.79
133.26
168.54
204.42
238.78
268.74
291.42
304.82
308.42
303.35
291.91
277.01
261.31
246.70
233.87
222.36
210.80
197.39
180.50
159.10
133.34
104.52
74.91
46.96
22.43
1.54
-17.22
-36.45
-58.67
-85.24
-115.93
-149.24
-183.62
-218.53
-254.70
-293.73
-336.92
-384.38
-434.46
-483.81
-527.65
-560.30
-576.19
-571.36
-545.15
-501.27
-447.51
-393.54
-347.96
-315.54
-296.08
-285.54
-278.37
-270.06
-258.29
-242.69
-223.47
-200.29
-172.07
-137.80
-97.65
-53.70
-9.69
30.35
63.72
90.06
111.33
130.45
149.71
169.43
188.06
203.16
212.89
216.99
216.70
213.83
209.63
204.25
197.00
187.22
174.89
160.73
145.57
129.68
112.60
93.46
71.64
47.29
21.50
-3.96
-26.86
-44.75
-55.22
-56.24
-46.97
-28.41
-3.65
22.88
46.64
64.56
75.67
80.93
82.32
81.73
80.50
79.40
78.93
79.47
81.06
83.24
84.83
84.34
80.58
73.41
63.86
53.71
44.77
37.96
33.08
28.92
24.07
17.62
9.68
1.22
-6.36
-11.89
-14.90
-15.71
-15.12
-14.03
-13.10
-12.66
-12.82
-13.61
-15.21
-18.03
-22.61
-29.40
-38.17
-47.73
-55.86
-59.90
-57.70
-48.52
-33.59
-15.57
2.36
17.77
29.83
39.14
46.97
54.19
60.73
65.61
67.54
65.48
58.81
47.33
31.15
10.76
-12.85
-37.94
-62.16
-82.98
-98.24
-106.62
-107.66
-101.73
-89.64
-72.65
-52.32
-30.69
-9.88
8.32
22.92
33.98
42.34
49.15
55.15
60.24
63.61
64.08
60.74
53.19
41.73
27.13
10.71
-5.69
-19.73
-28.88
-31.08
-25.58
-13.38
2.90
19.64
33.17
40.70
40.97
34.55
23.68
11.73
2.06
-2.93
-2.76
1.30
6.78
11.21
12.88
10.91
5.01
-4.76
-17.81
-32.52
-46.11
-55.28
-57.45
-51.90
-40.18
-25.23
-10.01
3.58
15.02
24.59
32.24
37.01
37.32
31.98
21.52
8.70
-2.19
-7.19
-4.54
4.38
15.57
24.39
27.61
25.00
19.23
14.59
15.03
22.63
37.04
55.84
75.79
94.16
109.57
122.26
133.58
145.14
157.82
171.42
184.74
196.22
204.42
208.31
207.23
200.59
187.89
168.76
143.22
111.65
74.88
33.84
-10.73
-58.43
-108.80
-160.31
-209.82
-252.38
-282.61
-296.50
-293.27
-275.77
-249.24
-219.23
-189.57
-161.82
-136.08
-112.54
-92.36
-77.19
-67.94
-63.69
-61.76
-58.71
-51.98
-41.03
-27.45
-14.26
-4.51
-0.02
-0.62
-4.25
-7.93
-9.25
-7.39
-3.40
0.58
2.61
2.06
-0.04
-1.65
-0.83
3.12
9.30
15.62
19.79
20.43
17.57
12.81
8.56
6.98
8.94
13.70
19.27
23.35
24.64
23.32
21.02
19.79
20.96
24.50
29.03
32.62
33.78
32.35
29.35
26.39
24.63
24.11
23.91
22.90
20.74
18.32
17.62
20.66
28.39
39.96
52.78
63.44
68.68
66.40
55.83
37.46
12.42
-17.66
-50.88
-85.03
-117.67
-146.72
-170.63
-188.74
-200.93
-207.19
-206.93
-199.09
-182.78
-158.15
-127.28
-93.91
-62.45
-36.56
-18.03
-6.57
-0.57
1.70
1.29
-1.58
-6.78
-13.66
-20.63
-25.54
-26.53
-22.84
-15.12
-4.91
6.04
16.60
26.44
35.71
44.55
52.68
59.55
64.61
67.73
69.26
69.81
69.99
70.13
70.33
70.46
70.25
69.35
67.50
64.59
60.86
56.86
53.21
50.43
48.61
47.60
47.12
47.05
47.42
48.29
49.64
51.38
53.68
56.95
61.64
67.38
72.35
73.10
65.65
47.29
18.22
-17.71
-53.98
-83.53
-101.11
-104.82
-96.08
-78.41
-55.67
-31.01
-6.36
16.95
37.73
54.57
66.07
71.25
69.69
61.53
47.20
27.41
3.29
-23.22
-49.26
-71.55
-87.07
-94.06
-92.34
-83.17
-68.54
-50.43
-30.53
-10.43
8.09
23.04
32.37
34.54
28.79
15.26
-5.07
-30.32
-57.66
-83.40
-103.34
-113.82
-112.63
-99.77
-77.38
-48.97
-18.32
11.44
38.09
60.27
77.05
87.71
91.91
89.87
82.71
72.32
61.06
51.04
43.47
38.39
34.84
31.53
27.55
22.94
18.51
15.49
14.74
16.33
19.42
22.56
24.18
22.88
18.00
9.66
-1.12
-12.88
-24.37
-35.12
-45.83
-58.02
-73.35
-92.55
-114.81
-137.43
-156.17
-166.19
-163.51
-146.49
-116.91
-79.90
-42.65
-12.26
6.59
12.87
8.97
-0.82
-12.28
-22.53
-30.29
-35.08
-36.48
-33.67
-25.78
-12.57
5.11
25.21
45.04
61.73
72.87
76.96
73.80
64.81
52.85
41.65
34.51
33.07
36.65
42.83
48.75
52.70
54.90
57.13
61.37
68.35
77.15
85.76
92.28
95.81
96.57
95.17
91.90
86.76
79.94
72.68
67.34
66.50
71.52
81.32
92.48
100.57
102.07
95.70
82.56
65.13
45.88
26.61
8.42
-7.81
-21.16
-30.67
-35.79
-36.55
-33.37
-26.56
-16.10
-1.93
15.52
34.73
53.25
68.26
77.55
80.04
75.75
65.36
49.70
29.63
6.16
-19.18
-44.17
-66.18
-82.71
-92.15
-94.33
-90.56
-82.98
-73.82
-64.62
-55.96
-47.83
-40.14
-33.34
-28.37
-26.44
-28.49
-34.83
-44.86
-57.27
-70.32
-82.13
-91.11
-96.12
-96.79
-93.38
-86.67
-77.60
-67.02
-55.76
-44.63
-34.55
-26.30
-20.12
-15.48
-11.27
-6.38
-0.27
6.70
13.66
19.67
24.35
27.88
30.66
32.98
34.76
35.77
35.84
35.15
34.04
32.86
31.77
30.81
29.99
29.33
28.82
28.11
26.66
23.76
18.88
11.79
2.57
-8.38
-20.49
-32.81
-44.07
-52.68
-57.13
-56.54
-51.05
-42.00
-31.49
-21.89
-14.85
-10.91
-9.22
-8.01
-5.37
0.05
8.49
19.16
30.54
40.81
48.20
51.36
49.65
43.46
34.42
25.09
18.25
15.78
17.78
22.41
26.67
27.75
24.17
16.36
6.12
-4.25
-12.90
-18.92
-22.24
-23.40
-22.99
-21.59
-19.49
-16.85
-13.63
-9.74
-5.29
-0.74
3.14
5.71
6.97
7.90
10.07
14.95
22.90
32.68
41.77
47.36
47.48
41.77
31.43
18.46
4.98
-7.38
-17.53
-24.73
-28.73
-29.97
-29.87
-30.50
-33.78
-40.44
-49.27
-57.48
-61.86
-60.53
-53.92
-44.70
-36.48
-32.15
-32.57
-36.02
-38.89
-36.86
-26.64
-7.71
16.67
39.75
53.06
49.10
24.00
-21.01
-79.79
-143.12
-200.99
-244.71
-268.11
-268.13
-245.28
-203.78
-151.45
-98.22
-53.53
-23.36
-8.40
-4.07
-2.56
3.99
21.23
51.48
94.24
146.92
205.11
262.39
310.04
338.57
340.81
315.55
269.26
214.42
164.59
128.77
108.05
96.41
85.30
69.20
48.86
30.43
21.17
24.63
38.20
54.43
64.60
62.42
46.26
18.86
-14.47
-47.83
-75.87
-94.52
-100.99
-94.26
-75.46
-47.91
-16.59
13.23
37.42
53.88
62.16
63.04
57.52
46.84
32.95
19.10
9.72
9.20
19.78
39.39
61.08
74.73
71.01
46.10
4.37
-42.27
-78.76
-93.03
-80.90
-47.43
-4.22
35.44
61.37
68.63
57.30
30.36
-8.02
-53.02
-98.83
-138.38
-164.30
-170.85
-156.19
-123.23
-78.89
-32.09
8.54
36.44
48.04
43.03
24.43
-1.94
-28.33
-46.99
-52.46
-43.39
-23.10
2.01
24.98
41.27
50.15
54.54
59.15
67.62
80.79
96.00
108.35
112.95
106.93
90.01
63.94
31.14
-6.01
-45.05
-82.90
-115.58
-139.05
-150.46
-149.47
-138.16
-119.93
-98.13
-75.05
-52.30
-31.46
-14.57
-3.43
1.42
1.35
-0.88
-2.68
-3.08
-3.28
-5.66
-12.18
-23.17
-36.64
-49.08
-56.75
-57.08
-49.63
-36.38
-21.02
-8.05
-1.32
-2.92
-12.51
-27.45
-43.61
-56.60
-63.09
-61.57
-52.58
-38.29
-21.56
-5.22
8.63
18.71
24.56
26.14
23.97
18.98
12.56
6.40
1.94
0.03
0.71
3.38
7.24
11.86
17.23
23.56
30.85
38.20
44.04
46.58
44.61
38.18
28.76
18.74
10.57
5.88
4.79
6.05
7.50
7.06
3.62
-2.52
-9.84
-16.38
-20.51
-21.73
-20.52
-17.99
-15.10
-12.18
-8.93
-4.77
0.62
7.14
14.15
20.88
26.64
30.99
33.95
35.68
36.30
35.42
32.33
26.15
16.77
5.34
-5.69
-13.27
-15.36
-11.95
-5.39
0.72
3.29
1.35
-3.55
-8.40
-10.39
-8.60
-4.19
0.39
3.07
3.14
1.55
-0.09
-0.70
-0.37
-0.40
-2.24
-6.54
-12.53
-18.25
-21.56
-21.13
-17.22
-11.37
-5.81
-2.21
-1.12
-1.87
-3.04
-3.37
-2.31
-0.32
1.66
2.59
2.13
0.68
-0.86
-1.47
-0.63
1.60
4.52
7.31
9.18
9.86
9.55
8.66
7.82
7.49
8.09
9.79
12.40
15.23
17.01
16.23
11.77
3.70
-6.58
-16.62
-23.80
-26.35
-23.95
-17.76
-9.75
-2.09
3.72
7.12
8.75
10.19
13.59
21.12
33.94
51.37
70.28
85.65
91.77
84.15
61.37
26.00
-15.33
-53.75
-80.46
-89.66
-80.21
-55.88
-23.89
7.70
32.29
46.39
49.50
43.45
31.23
16.13
1.25
-10.99
-19.24
-23.84
-26.65
-30.41
-37.05
-46.47
-56.17
-62.05
-60.38
-49.60
-31.48
-10.46
7.80
18.82
20.82
15.19
5.64
-3.65
-9.48
-10.77
-8.33
-4.14
-0.13
2.53
3.48
3.00
1.31
-1.44
-5.19
-9.48
-13.39
-15.60
-14.99
-11.21
-4.89
2.41
8.85
12.94
14.14
12.85
10.17
7.32
5.02
3.55
2.64
2.05
1.83
2.44
4.48
8.18
13.00
17.47
19.79
18.37
12.77
3.91
-6.14
-15.04
-20.97
-23.19
-22.11
-18.80
-14.46
-9.92
-5.57
-1.55
2.07
4.96
6.71
6.95
5.78
3.72
1.68
0.50
0.55
1.61
2.93
3.73
3.54
2.54
1.39
0.86
1.36
2.66
4.13
4.92
4.64
3.42
1.96
0.95
0.78
1.27
1.79
1.82
1.18
0.23
-0.38
-0.17
0.95
2.51
3.92
4.64
4.64
4.33
4.38
5.36
7.37
10.08
12.68
14.38
14.59
13.33
11.09
8.77
7.23
6.86
7.43
8.10
7.99
6.55
4.03
1.25
-0.74
-1.24
-0.34
1.29
2.61
2.89
1.92
0.09
-1.88
-3.33
-3.86
-3.53
-2.67
-1.82
-1.40
-1.55
-2.00
-2.24
-1.80
-0.48
1.38
3.20
4.34
4.52
3.84
2.72
1.70
1.15
1.31
2.18
3.56
4.99
5.87
5.70
4.22
1.77
-0.97
-3.06
-3.82
-3.06
-1.32
0.41
0.99
-0.49
-4.19
-9.54
-15.32
-20.09
-22.71
-22.74
-20.68
-17.78
-15.63
-15.60
-18.34
-23.38
-29.25
-33.88
-35.34
-32.69
-26.37
-18.15
-10.30
-4.70
-2.07
-1.95
-3.22
-4.78
-6.08
-7.05
-7.84
-8.49
-8.83
-8.57
-7.45
-5.40
-2.55
0.73
3.89
6.26
7.10
5.80
2.24
-2.94
-8.36
-12.16
-12.86
-9.97
-4.64
0.68
3.09
0.29
-7.93
-19.87
-32.44
-42.78
-49.63
-53.87
-58.14
-65.58
-78.60
-97.91
-122.32
-148.84
-173.41
-191.83
-200.81
-198.90
-186.60
-166.18
-140.51
-112.15
-82.70
-52.79
-22.22
9.87
44.59
82.74
123.60
163.97
197.98
218.47
219.52
198.51
157.25
100.40
33.30
-39.78
-115.45
-189.57
-255.80
-305.95
-332.74
-333.17
-310.60
-273.75
-233.18
-196.97
-168.31
-145.79
-125.61
-104.76
-82.50
-60.23
-39.85
-22.19
-6.29
10.13
29.57
53.91
83.64
118.08
155.40
192.89
227.19
254.81
272.87
279.87
276.17
263.74
245.55
224.58
203.09
182.34
162.69
143.98
125.82
107.77
89.44
70.77
52.21
34.93
20.76
11.73
9.51
14.74
26.62
42.78
59.89
74.57
84.39
88.78
88.88
87.14
86.16
87.80
92.52
99.37
106.44
111.51
112.88
109.84
103.04
94.23
85.77
79.74
77.18
77.77
80.11
82.40
83.11
81.54
77.72
72.16
65.42
57.90
49.90
41.67
33.63
26.35
20.53
16.89
16.08
18.60
24.63
33.90
45.58
58.45
71.10
82.43
91.92
99.89
107.33
115.46
125.31
137.26
150.99
165.62
180.09
193.57
205.64
216.33
225.69
233.52
238.91
240.38
236.05
224.31
204.44
176.97
143.81
107.69
71.52
37.64
7.51
-18.41
-40.42
-59.31
-76.36
-93.29
-112.29
-135.45
-163.96
-197.15
-232.21
-264.73
-290.10
-305.19
-309.35
-304.53
-294.13
-281.58
-269.08
-257.17
-245.17
-231.98
-216.82
-199.59
-181.15
-163.12
-147.60
-136.47
-130.50
-128.71
-128.14
-124.89
-115.41
-98.25
-74.84
-49.21
-26.67
-12.00
-8.15
-15.44
-31.64
-52.20
-71.14
-82.30
-80.97
-65.69
-39.05
-7.41
21.21
39.71
44.41
36.05
19.14
-0.03
-15.63
-23.82
-23.44
-15.60
-2.84
11.77
25.48
36.32
43.36
46.45
46.05
42.68
36.84
29.11
20.26
11.31
3.28
-3.22
-8.38
-13.07
-18.38
-24.93
-32.35
-39.35
-44.30
-46.24
-45.38
-43.30
-42.02
-42.93
-45.94
-49.41
-50.99
-48.78
-42.35
-32.94
-22.84
-14.33
-8.79
-6.50
-7.00
-9.78
-14.68
-21.90
-31.33
-41.99
-51.72
-57.52
-56.69
-48.08
-33.03
-15.11
0.89
10.91
12.96
7.65
-2.37
-13.62
-22.55
-25.90
-20.68
-4.76
21.66
54.27
84.13
99.81
91.90
58.19
6.09
-48.79
-88.54
-100.07
-80.41
-37.43
14.45
60.67
92.30
108.08
112.75
113.04
114.03
117.55
122.85
128.56
133.82
138.50
142.10
142.74
137.18
122.16
96.66
63.36
28.64
0.40
-14.82
-14.46
-0.90
19.69
39.83
53.67
58.64
55.81
48.62
41.11
36.44
35.99
39.54
45.64
52.32
57.37
58.81
55.13
45.82
31.71
15.06
-0.72
-12.06
-16.49
-13.97
-7.32
-1.44
-1.26
-9.23
-23.88
-40.09
-51.39
-53.05
-44.56
-30.10
-16.99
-12.92
-22.98
-47.95
-83.98
-123.94
-159.46
-183.38
-191.69
-184.39
-165.16
-139.73
-113.99
-92.24
-76.54
-66.79
-61.49
-58.59
-56.18
-53.33
-50.44
-49.25
-51.77
-58.80
-68.58
-76.75
-78.07
-68.83
-48.95
-21.97
6.59
31.79
50.97
63.79
71.16
73.88
72.40
67.14
59.28
50.93
44.65
42.86
47.10
58.21
75.97
98.85
123.33
143.93
153.72
146.07
117.16
68.02
5.48
-58.72
-110.35
-136.59
-130.14
-92.14
-32.73
31.47
82.10
104.77
93.05
49.98
-13.58
-82.53
-141.70
-179.34
-189.13
-171.01
-130.58
-77.87
-25.36
14.44
31.47
20.90
-15.14
-67.40
-121.69
-162.62
-178.32
-163.95
-122.55
-63.27
2.41
64.11
114.94
151.62
173.40
180.86
175.59
160.66
140.95
122.72
111.64
110.58
118.05
128.69
135.09
130.51
111.32
78.46
37.74
-1.92
-31.20
-44.01
-40.37
-27.30
-16.71
-20.57
-45.32
-88.10
-137.21
-176.79
-193.24
-180.33
-140.18
-81.10
-13.55
52.73
109.44
149.18
165.24
153.06
112.55
50.12
-21.59
-86.70
-130.81
-145.41
-129.69
-89.75
-35.64
21.83
73.59
113.07
136.07
140.01
123.51
86.93
32.97
-32.34
-99.95
-159.18
-200.03
-215.30
-202.12
-162.41
-102.21
-31.21
38.23
92.48
119.48
112.33
72.54
11.00
-54.81
-106.34
-130.31
-122.09
-85.33
-28.31
39.92
111.48
179.34
236.11
274.32
288.30
276.92
244.76
200.41
152.79
107.12
63.58
18.98
-29.24
-79.43
-124.65
-154.74
-160.70
-138.79
-92.83
-33.35
25.18
68.54
86.56
75.55
39.02
-13.52
-69.11
-114.93
-141.38
-143.83
-122.45
-80.69
-23.54
43.27
112.81
176.60
224.90
248.89
243.57
210.15
155.75
90.68
24.44
-37.32
-92.70
-141.28
-181.04
-207.36
-215.11
-202.32
-173.09
-136.69
-103.77
-81.42
-70.76
-68.29
-70.28
-77.08
-93.92
-127.53
-180.31
-246.36
-311.57
-358.57
-374.28
-356.06
-313.62
-265.19
-229.99
-220.21
-236.52
-268.75
-301.59
-322.16
-325.35
-314.84
-299.09
-285.75
-277.50
-271.74
-263.61
-249.94
-231.67
-213.05
-198.65
-190.23
-185.43
-178.87
-164.74
-139.59
-103.77
-61.24
-17.46
22.88
57.73
88.03
116.90
147.86
183.26
223.66
268.09
314.91
362.22
407.86
449.02
482.13
503.52
510.52
502.59
481.61
451.31
415.92
378.97
342.67
308.12
275.84
246.22
219.72
196.55
176.52
159.02
143.22
128.41
114.14
100.32
87.22
75.20
64.53
55.19
46.95
39.38
32.16
25.22
18.78
13.22
8.88
5.84
3.92
2.68
1.74
0.88
0.14
-0.23
0.04
1.11
2.88
5.04
7.02
8.22
8.10
6.32
2.78
-2.19
-7.89
-13.24
-17.09
-18.55
-17.34
-13.98
-9.73
-6.07
-4.14
-4.32
-6.10
-8.34
-9.83
-9.85
-8.40
-6.11
-3.86
-2.38
-2.04
-2.81
-4.51
-6.96
-10.08
-13.80
-17.97
-22.36
-26.81
-31.37
-36.18
-41.34
-46.71
-51.58
-55.03
-56.12
-54.31
-49.69
-42.83
-34.58
-25.80
-17.06
-8.66
-0.67
6.93
14.27
21.36
28.15
34.50
40.02
44.22
46.58
46.97
45.92
44.49
43.88
44.78
47.06
49.69
51.33
50.85
47.70
42.05
34.53
25.72
16.05
5.85
-4.47
-13.91
-21.17
-24.88
-23.94
-18.05
-7.66
5.92
20.90
35.26
47.59
57.08
63.47
67.12
68.50
68.23
67.10
66.17
66.83
70.64
78.45
89.31
100.60
108.53
109.59
101.98
86.49
66.20
45.39
27.10
11.20
-4.73
-24.01
-48.73
-78.75
-112.42
-148.13
-185.23
-224.79
-268.65
-315.51
-359.31
-390.23
-398.28
-378.22
-332.27
-269.03
-201.75
-145.01
-109.37
-99.55
-114.48
-148.89
-195.76
-247.89
-298.00
-328.89
-327.06
-286.14
-211.03
-116.16
-18.37
69.41
134.93
180.74
210.55
224.93
222.82
202.70
163.43
106.70
35.52
-44.90
-125.73
-197.56
-252.70
-286.28
-298.04
-292.14
-275.17
-253.74
-232.25
-211.46
-191.10
-171.53
-153.71
-139.04
-128.29
-120.64
-113.72
-104.73
-91.29
-73.22
-52.43
-31.42
-12.16
4.52
19.17
33.69
49.96
69.36
91.79
115.66
139.59
162.86
185.29
207.23
230.25
255.49
283.70
315.05
348.86
385.60
425.64
467.86
509.11
546.30
575.85
594.56
599.83
588.67
561.73
522.92
478.62
436.59
405.73
391.11
392.11
402.68
412.04
413.01
403.31
384.91
347.92
288.29
207.08
111.67
25.94
-43.95
-98.16
-138.84
-171.29
-198.49
-220.55
-237.89
-251.46
-262.62
-274.53
-287.01
-297.96
-305.01
-307.34
-304.72
-299.28
-294.72
-295.27
-306.29
-330.09
-367.22
-411.64
-455.88
-490.44
-506.13
-495.87
-456.84
-393.00
-312.51
-226.78
-147.59
-83.89
-39.24
-12.05
2.52
10.07
14.07
17.46
22.35
30.08
41.82
57.89
77.66
100.34
125.47
152.26
181.22
213.45
247.93
283.71
318.20
346.70
362.71
363.54
345.04
307.14
254.67
196.03
140.21
92.70
54.49
23.07
-4.60
-30.12
-51.33
-64.19
-65.73
-54.06
-32.80
-9.37
7.83
12.71
3.12
-17.71
-43.28
-66.32
-81.12
-85.57
-80.44
-68.39
-52.29
-34.62
-16.51
1.79
20.36
39.41
58.70
78.29
98.49
119.61
141.36
162.57
181.38
195.88
205.23
209.78
211.18
211.20
210.49
208.03
201.43
188.35
167.65
140.51
109.68
78.80
50.77
26.63
5.48
-15.21
-38.87
-69.22
-109.14
-159.51
-217.56
-275.94
-323.49
-348.15
-341.78
-304.18
-244.69
-179.45
-125.58
-94.99
-90.54
-106.91
-134.54
-164.87
-193.40
-219.91
-246.42
-274.74
-305.88
-340.39
-379.05
-422.15
-468.39
-513.77
-551.89
-576.22
-582.57
-570.37
-542.19
-502.04
-453.86
-401.18
-347.71
-297.62
-254.90
-221.42
-195.76
-173.53
-149.91
-122.57
-93.29
-67.01
-48.68
-40.32
-39.75
-41.80
-40.95
-33.97
-21.06
-4.93
10.98
24.43
35.03
44.23
54.31
67.27
84.26
105.28
129.46
155.37
181.52
206.80
230.71
253.53
276.39
301.47
331.61
369.55
416.07
468.43
519.69
560.10
580.16
574.24
542.85
492.10
431.08
367.94
307.23
249.33
191.88
131.70
66.18
-6.22
-85.79
-170.86
-257.04
-336.99
-401.84
-443.91
-459.56
-450.52
-423.17
-385.96
-346.37
-309.12
-275.93
-246.46
-219.66
-194.34
-169.37
-143.55
-115.87
-85.73
-53.49
-20.23
12.72
44.22
74.07
103.12
133.28
166.75
205.04
247.69
291.50
330.90
359.39
371.94
366.82
346.32
315.69
280.97
246.85
215.63
187.74
163.11
142.45
127.39
119.54
119.14
124.26
131.30
136.37
136.97
132.64
124.93
116.08
107.92
101.26
96.00
91.81
88.48
86.10
84.54
83.33
81.55
78.31
73.17
66.38
58.64
50.70
43.14
36.24
30.17
25.11
21.13
18.07
15.48
12.71
9.23
4.94
0.27
-4.05
-7.36
-9.45
-10.55
-11.24
-12.01
-13.14
-14.50
-15.77
-16.62
-16.84
-16.45
-15.63
-14.69
-13.90
-13.52
-13.71
-14.50
-15.80
-17.38
-19.08
-20.69
-22.14
-23.36
-24.34
-25.06
-25.55
-25.95
-26.42
-27.14
-28.06
-28.99
-29.58
-29.53
-28.71
-27.32
-25.75
-24.40
-23.59
-23.32
-23.39
-23.45
-23.16
-22.35
-20.97
-19.23
-17.37
-15.67
-14.28
-13.22
-12.40
-11.70
-11.04
-10.37
-9.78
-9.30
-8.99
-8.85
-8.84
-8.94
-9.10
-9.33
-9.53
-9.63
-9.50
-9.10
-8.53
-7.92
-7.45
-7.19
-7.14
-7.17
-7.19
-7.17
-7.18
-7.32
-7.65
-8.16
-8.68
-9.04
-9.06
-8.68
-7.96
-7.04
-6.08
-5.19
-4.43
-3.79
-3.29
-2.98
-2.92
-3.16
-3.61
-4.10
-4.39
-4.36
-4.04
-3.63
-3.36
-3.32
-3.37
-3.15
-2.24
-0.38
2.38
5.65
8.82
11.27
12.63
12.84
12.19
11.07
9.89
8.84
7.91
6.99
5.96
4.81
3.65
2.64
1.86
1.29
0.80
0.19
-0.58
-1.43
-2.11
-2.43
-2.30
-1.82
-1.24
-0.80
-0.60
-0.59
-0.70
-0.89
-1.26
-1.96
-3.09
-4.58
-6.24
-7.79
-9.01
-9.87
-10.41
-10.75
-11.05
-11.42
-11.97
-12.73
-13.66
-14.54
-15.06
-14.86
-13.74
-11.73
-9.13
-6.44
-4.12
-2.52
-1.80
-1.91
-2.72
-4.03
-5.64
-7.26
-8.65
-9.59
-10.01
-10.00
-9.81
-9.69
-9.81
-10.19
-10.66
-11.04
-11.13
-10.87
-10.32
-9.61
-8.94
-8.41
-8.09
-7.90
-7.74
-7.49
-7.08
-6.56
-5.97
-5.40
-4.86
-4.31
-3.66
-2.93
-2.17
-1.50
-1.03
-0.76
-0.62
-0.46
-0.21
0.16
0.55
0.85
0.90
0.65
0.14
-0.55
-1.27
-1.93
-2.41
-2.67
-2.72
-2.64
-2.56
-2.64
-3.01
-3.71
-4.68
-5.79
-6.85
-7.63
-7.97
-7.74
-6.93
-5.67
-4.18
-2.78
-1.69
-1.04
-0.85
-0.97
-1.27
-1.58
-1.83
-1.92
-1.81
-1.47
-0.91
-0.26
0.32
0.67
0.75
0.59
0.37
0.21
0.17
0.23
0.24
0.13
-0.16
-0.55
-0.99
-1.36
-1.62
-1.75
-1.74
-1.65
-1.54
-1.51
-1.66
-2.06
-2.70
-3.48
-4.30
-5.08
-5.78
-6.45
-7.15
-7.87
-8.53
-9.01
-9.16
-8.90
-8.25
-7.31
-6.24
-5.19
-4.19
-3.23
-2.30
-1.36
-0.49
0.24
0.74
1.00
1.06
1.06
1.12
1.31
1.68
2.15
2.60
2.86
2.84
2.52
2.00
1.48
1.08
0.90
0.86
0.87
0.77
0.54
0.22
-0.09
-0.32
-0.49
-0.70
-1.07
-1.66
-2.44
-3.29
-4.04
-4.58
-4.93
-5.21
-5.60
-6.26
-7.16
-8.16
-9.00
-9.42
-9.30
-8.64
-7.65
-6.53
-5.50
-4.66
-4.01
-3.53
-3.15
-2.86
-2.57
-2.26
-1.82
-1.21
-0.40
0.54
1.46
2.26
2.79
3.06
3.13
3.13
3.17
3.30
3.48
3.59
3.58
3.35
2.95
2.44
1.90
1.40
0.94
0.57
0.26
0.05
-0.07
-0.11
-0.14
-0.24
-0.49
-0.90
-1.42
-1.94
-2.37
-2.68
-2.90
-3.11
-3.40
-3.79
-4.21
-4.51
-4.52
-4.08
-3.13
-1.77
-0.21
1.21
2.22
2.61
2.31
1.43
0.20
-1.04
-2.01
-2.43
-2.22
-1.46
-0.41
0.58
1.20
1.31
0.99
0.42
-0.10
-0.36
-0.23
0.24
0.95
1.73
2.44
2.95
3.19
3.16
2.83
2.23
1.41
0.44
-0.58
-1.59
-2.53
-3.38
-4.18
-4.96
-5.68
-6.29
-6.70
-6.87
-6.88
-6.87
-7.06
-7.53
-8.29
-9.12
-9.73
-9.88
-9.43
-8.49
-7.26
-6.00
-4.85
-3.81
-2.80
-1.70
-0.50
0.79
2.03
3.14
4.08
4.88
5.63
6.38
7.16
7.84
8.32
8.46
8.21
7.63
6.89
6.21
5.70
5.40
5.16
4.84
4.32
3.57
2.73
1.93
1.30
0.87
0.54
0.13
-0.49
-1.38
-2.46
-3.51
-4.32
-4.73
-4.82
-4.76
-4.84
-5.28
-6.23
-7.67
-9.48
-11.46
-13.33
-14.84
-15.66
-15.58
-14.58
-12.81
-10.67
-8.55
-6.78
-5.41
-4.32
-3.28
-2.14
-0.90
0.29
1.26
1.92
2.24
2.30
2.15
1.85
1.46
1.08
0.87
0.93
1.29
1.86
2.43
2.83
2.96
2.88
2.68
2.52
2.45
2.52
2.71
2.97
3.22
3.34
3.28
3.01
2.65
2.31
2.17
2.31
2.66
3.13
3.50
3.62
3.31
2.50
1.17
-0.54
-2.38
-4.03
-5.13
-5.51
-5.15
-4.22
-2.97
-1.69
-0.54
0.35
0.95
1.32
1.52
1.69
1.95
2.36
2.94
3.61
4.27
4.76
5.05
5.07
4.82
4.30
3.56
2.65
1.72
0.92
0.36
0.12
0.13
0.33
0.61
0.94
1.31
1.70
2.05
2.24
2.19
1.80
1.13
0.27
-0.70
-1.70
-2.77
-3.91
-5.17
-6.51
-7.91
-9.32
-10.71
-12.05
-13.26
-14.21
-14.74
-14.70
-14.01
-12.73
-11.01
-9.04
-7.03
-5.11
-3.35
-1.74
-0.26
1.15
2.49
3.73
4.82
5.65
6.18
6.37
6.30
6.09
5.89
5.81
5.87
5.97
5.89
5.49
4.65
3.46
2.14
0.98
0.23
-0.05
0.01
0.10
-0.09
-0.81
-2.07
-3.72
-5.44
-6.89
-7.84
-8.22
-8.19
-8.00
-7.99
-8.34
-9.11
-10.21
-11.48
-12.88
-14.39
-16.12
-18.14
-20.47
-22.96
-25.39
-27.54
-29.14
-29.99
-29.93
-28.89
-26.87
-24.03
-20.70
-17.28
-14.14
-11.48
-9.35
-7.67
-6.35
-5.44
-5.03
-5.12
-5.54
-5.87
-5.56
-4.19
-1.60
1.97
6.00
9.98
13.50
16.40
18.68
20.41
21.61
22.25
22.31
21.80
20.86
19.68
18.44
17.18
15.85
14.28
12.31
9.94
7.25
4.47
1.76
-0.84
-3.40
-6.06
-8.85
-11.66
-14.11
-15.86
-16.54
-16.04
-14.46
-12.07
-9.19
-6.09
-3.03
-0.16
2.30
4.23
5.48
6.04
6.01
5.60
5.05
4.59
4.38
4.45
4.83
5.42
6.13
6.79
7.17
7.10
6.51
5.53
4.52
3.90
4.11
5.33
7.48
10.20
13.05
15.63
17.71
19.19
20.05
20.27
19.82
18.68
16.87
14.56
11.94
9.26
6.75
4.58
2.84
1.55
0.67
0.10
-0.25
-0.45
-0.51
-0.40
-0.13
0.23
0.50
0.44
-0.16
-1.33
-2.92
-4.60
-5.95
-6.61
-6.42
-5.45
-3.99
-2.43
-1.05
0.01
0.79
1.42
2.05
2.75
3.55
4.45
5.49
6.74
8.22
9.86
11.46
12.74
13.40
13.18
11.98
9.85
7.05
3.99
1.24
-0.58
-0.97
0.36
3.25
7.13
11.15
14.41
16.27
16.48
15.24
12.96
10.10
6.97
3.71
0.37
-2.98
-6.16
-8.94
-11.07
-12.45
-13.11
-13.22
-12.98
-12.62
-12.32
-12.20
-12.34
-12.69
-13.19
-13.68
-13.98
-13.86
-13.10
-11.47
-8.83
-5.20
-0.78
4.04
8.83
13.20
16.89
19.90
22.37
24.57
26.74
28.97
31.11
32.72
33.23
32.06
28.93
24.01
18.05
12.06
7.04
3.68
2.10
1.99
2.75
3.84
4.88
5.80
6.70
7.74
9.02
10.52
12.17
13.85
15.43
16.78
17.74
18.11
17.63
16.05
13.19
9.10
4.08
-1.39
-6.71
-11.38
-15.05
-17.65
-19.27
-20.13
-20.34
-20.04
-19.28
-18.17
-16.88
-15.59
-14.48
-13.59
-12.88
-12.19
-11.39
-10.40
-9.23
-7.96
-6.69
-5.54
-4.57
-3.83
-3.31
-3.01
-2.86
-2.74
-2.51
-1.97
-1.02
0.33
1.92
3.52
4.87
5.77
6.18
6.12
5.73
5.10
4.30
3.33
2.15
0.73
-0.94
-2.78
-4.59
-6.03
-6.71
-6.29
-4.67
-2.09
0.93
3.74
5.89
7.27
8.22
9.28
10.98
13.58
17.03
21.13
25.69
30.68
36.07
41.74
47.12
51.27
53.08
51.74
47.34
40.99
34.74
30.90
31.22
36.19
44.97
55.84
66.92
76.64
83.81
87.18
85.12
75.98
58.67
33.52
2.45
-31.98
-67.95
-105.67
-147.12
-194.32
-246.95
-300.89
-348.86
-383.19
-399.14
-396.94
-381.42
-359.51
-337.01
-316.56
-297.38
-276.92
-252.86
-224.33
-191.73
-155.92
-117.31
-75.68
-30.66
17.68
68.64
120.85
172.60
222.66
270.59
316.84
362.27
407.08
449.88
487.09
513.07
522.05
510.91
480.97
438.02
390.32
345.55
308.37
279.46
255.73
232.71
207.05
177.71
145.49
111.65
76.71
40.26
1.17
-42.31
-91.40
-145.47
-201.80
-256.46
-305.75
-347.54
-381.36
-401.45
-402.45
-381.83
-341.87
-289.01
-230.76
-172.99
-119.58
-73.02
-36.97
-13.10
-3.43
-9.33
-30.42
-64.22
-106.44
-151.56
-189.28
-209.61
-207.29
-184.71
-150.99
-117.51
-92.89
-80.30
-77.75
-80.48
-84.69
-89.25
-94.89
-102.41
-111.37
-118.96
-122.20
-119.49
-111.29
-100.14
-89.48
-81.61
-77.04
-74.32
-70.96
-64.78
-54.78
-41.11
-24.58
-8.71
5.06
17.00
28.69
42.08
58.30
77.23
97.71
117.97
136.53
153.31
169.04
185.22
203.53
225.39
251.44
280.98
311.51
338.72
357.81
364.61
357.41
337.83
310.30
280.30
252.03
227.08
204.46
182.35
159.56
136.61
115.47
98.32
86.38
79.49
76.69
77.01
80.07
85.58
92.42
97.83
97.47
86.80
62.86
25.98
-19.83
-67.78
-110.34
-141.32
-157.36
-158.29
-146.57
-126.38
-102.47
-79.24
-60.16
-47.29
-41.13
-40.67
-43.83
-47.90
-50.43
-49.81
-45.60
-38.63
-30.47
-22.86
-17.15
-14.43
-16.02
-23.76
-39.35
-62.73
-90.55
-115.61
-128.55
-120.74
-87.74
-31.27
40.84
116.87
184.50
233.70
258.79
258.86
237.27
200.07
154.42
106.54
60.26
16.49
-25.94
-68.17
-109.56
-146.74
-174.42
-187.04
-181.02
-155.91
-115.02
-64.66
-12.57
33.18
65.26
78.04
69.22
41.53
3.45
-32.26
-52.07
-46.37
-13.49
39.26
97.51
144.66
167.43
159.81
124.29
70.81
14.42
-28.65
-45.56
-31.69
8.01
60.86
111.82
147.61
160.96
151.98
126.31
90.89
48.96
1.00
-52.10
-103.95
-145.75
-168.78
-168.90
-148.68
-117.76
-92.07
-85.90
-106.06
-146.51
-196.82
-246.32
-288.25
-319.07
-338.16
-349.63
-357.96
-366.59
-373.28
-378.78
-385.86
-398.47
-417.53
-421.04
-390.81
-318.46
-238.43
-167.12
-113.16
-71.85
-44.99
-34.27
-38.87
-56.90
-82.28
-105.88
-114.28
-101.76
-70.95
-31.38
7.53
40.01
62.67
75.81
81.88
87.52
96.28
109.60
126.98
148.21
171.73
191.58
199.18
186.53
152.35
101.20
43.67
-6.81
-37.61
-41.45
-19.24
22.39
75.02
133.00
192.27
248.70
295.94
326.53
334.96
321.59
294.91
269.44
259.65
272.42
303.56
339.82
365.50
369.55
349.62
311.26
263.46
213.78
165.51
117.95
68.71
16.36
-37.66
-88.65
-130.40
-157.68
-168.95
-167.07
-157.78
-146.21
-133.54
-116.18
-87.92
-44.55
11.93
72.42
124.00
155.51
162.34
147.68
119.82
87.34
55.60
26.54
1.22
-17.72
-25.63
-18.21
4.89
38.05
70.67
91.59
93.51
75.61
42.50
0.65
-45.71
-96.63
-155.33
-224.85
-304.34
-387.57
-464.25
-523.85
-559.64
-571.00
-563.33
-545.00
-523.76
-503.83
-485.63
-467.41
-447.70
-426.93
-407.13
-390.47
-377.41
-366.18
-353.55
-336.56
-313.96
-286.67
-257.42
-229.19
-203.95
-181.77
-161.07
-139.44
-114.99
-87.24
-57.39
-27.79
-0.79
22.29
41.76
59.35
77.39
97.73
120.94
146.18
171.64
195.55
216.99
236.37
255.16
275.23
298.21
324.92
355.27
388.16
421.67
453.12
479.49
497.88
506.30
504.32
493.37
476.57
457.78
440.52
426.89
417.18
410.24
404.38
398.43
392.07
385.59
378.93
370.97
359.45
341.74
316.16
283.22
245.83
207.99
172.95
141.70
112.96
84.95
57.70
34.49
20.93
22.20
39.36
67.37
96.08
113.81
112.38
90.12
51.87
6.18
-38.57
-77.61
-110.61
-140.76
-173.19
-212.08
-259.30
-313.28
-369.02
-418.08
-451.15
-460.81
-444.01
-403.81
-346.72
-280.67
-213.05
-149.14
-91.01
-38.44
10.70
59.02
106.82
152.94
193.31
221.07
228.51
210.86
168.12
106.41
36.70
-29.56
-80.77
-108.75
-110.96
-97.32
-81.04
-76.06
-90.85
-115.71
-144.13
-169.83
-186.97
-194.00
-189.24
-171.02
-139.33
-95.82
-44.35
7.18
50.97
80.63
94.24
96.23
97.75
110.26
139.69
182.40
225.10
253.64
260.44
249.89
236.50
238.56
266.42
316.79
374.33
418.95
436.79
425.24
392.74
343.68
286.57
228.84
175.26
127.89
87.39
57.66
39.28
32.13
33.77
39.95
43.94
39.50
23.09
-5.19
-41.59
-81.32
-119.85
-154.83
-185.23
-212.06
-236.90
-260.57
-282.47
-300.72
-313.61
-320.08
-320.82
-317.30
-311.90
-306.79
-303.15
-301.13
-300.64
-303.00
-310.80
-326.94
-352.01
-382.41
-409.96
-423.98
-414.87
-377.48
-312.84
-227.26
-130.31
-32.80
54.54
121.69
160.53
166.75
142.29
96.17
42.96
-1.57
-25.85
-26.03
-6.38
23.90
54.80
79.35
94.88
102.02
102.75
98.74
90.89
79.90
67.12
54.72
44.95
38.99
36.31
34.88
32.20
26.64
18.11
8.21
-0.62
-6.23
-7.62
-5.38
-1.32
2.24
3.54
1.93
-1.95
-6.65
-10.70
-13.28
-14.52
-15.23
-16.34
-18.35
-21.11
-23.94
-25.99
-26.46
-24.74
-20.54
-13.85
-5.11
4.84
14.82
23.62
30.39
34.79
37.09
37.78
37.36
36.08
34.00
31.05
27.22
22.60
17.37
11.81
6.19
0.93
-3.43
-6.13
-6.36
-3.56
2.36
10.60
19.64
27.42
31.94
31.95
27.33
19.36
10.27
2.72
-1.02
0.44
7.20
18.18
31.57
45.15
56.99
65.66
70.50
71.49
69.21
64.50
58.32
51.46
44.17
36.12
26.41
14.08
-1.41
-19.56
-38.67
-56.15
-69.19
-75.74
-75.00
-67.80
-56.26
-43.31
-31.83
-23.94
-20.39
-20.39
-22.05
-22.95
-21.14
-15.68
-6.76
4.57
16.99
29.31
40.65
50.30
57.76
62.74
65.49
66.92
68.24
70.30
72.67
73.15
68.11
53.85
28.32
-7.33
-48.50
-88.54
-121.11
-142.77
-153.99
-158.38
-160.38
-162.82
-165.64
-166.30
-161.68
-149.92
-131.47
-108.45
-83.31
-57.54
-31.40
-4.70
22.08
47.00
67.11
79.39
82.27
76.22
63.66
47.91
32.04
17.95
6.19
-3.50
-11.57
-18.17
-23.15
-26.29
-27.57
-27.26
-25.76
-23.36
-20.15
-16.20
-11.72
-7.23
-3.40
-0.73
0.65
1.15
1.47
2.30
3.96
6.25
8.61
10.36
11.16
11.10
10.70
10.62
11.39
13.11
15.54
18.20
20.55
22.21
22.91
22.63
21.47
19.71
17.77
16.05
14.77
13.88
13.18
12.40
11.51
10.57
9.75
9.00
7.97
6.10
2.94
-1.48
-6.63
-11.43
-14.81
-15.95
-14.66
-11.34
-6.84
-2.12
2.06
5.20
7.10
7.65
6.85
4.85
2.03
-0.85
-2.88
-3.20
-1.44
2.23
7.18
12.58
17.75
22.17
25.47
27.23
27.04
24.65
20.19
14.29
7.91
2.01
-2.79
-6.27
-8.58
-9.86
-10.11
-9.16
-6.87
-3.47
0.41
3.75
5.67
5.64
3.79
0.78
-2.53
-5.42
-7.61
-9.22
-10.62
-12.08
-13.63
-15.04
-15.85
-15.65
-14.18
-11.50
-7.88
-3.80
0.23
3.75
6.45
8.25
9.25
9.79
10.21
10.93
12.34
14.75
18.42
23.48
29.83
36.99
44.17
50.22
54.01
54.66
51.91
46.24
38.67
30.53
22.88
16.34
10.89
6.10
1.42
-3.49
-8.70
-14.01
-19.08
-23.69
-27.62
-30.73
-32.81
-33.61
-32.99
-31.03
-28.18
-25.13
-22.69
-21.37
-21.22
-21.75
-22.05
-21.19
-18.50
-13.81
-7.51
-0.47
6.26
11.63
14.86
15.58
13.83
10.08
5.07
-0.30
-5.18
-8.95
-11.27
-12.23
-12.09
-11.31
-10.29
-9.35
-8.64
-8.13
-7.69
-7.07
-6.08
-4.59
-2.73
-0.79
0.77
1.59
1.58
0.90
0.06
-0.46
-0.22
0.94
3.00
5.81
9.22
13.10
17.22
21.28
24.84
27.48
28.95
29.33
28.90
28.09
27.25
26.48
25.83
25.23
24.75
24.43
24.21
23.71
22.29
19.25
14.23
7.49
-0.15
-7.52
-13.58
-17.76
-20.08
-20.95
-20.82
-20.11
-19.03
-17.76
-16.54
-15.62
-15.23
-15.35
-15.77
-16.10
-16.05
-15.47
-14.42
-13.05
-11.50
-9.82
-7.96
-5.96
-3.86
-1.86
-0.12
1.14
1.75
1.61
0.62
-1.13
-3.39
-5.64
-7.20
-7.33
-5.53
-1.73
3.61
9.49
14.74
18.20
19.19
17.67
14.26
9.98
5.92
2.92
1.31
0.96
1.36
1.90
2.04
1.47
0.23
-1.45
-3.17
-4.56
-5.30
-5.23
-4.34
-2.69
-0.42
2.28
5.10
7.64
9.43
10.04
9.29
7.30
4.53
1.60
-0.86
-2.51
-3.34
-3.67
-4.00
-4.67
-5.80
-7.17
-8.41
-9.16
-9.28
-8.91
-8.39
-8.13
-8.44
-9.45
-11.03
-12.91
-14.69
-16.01
-16.61
-16.40
-15.49
-14.02
-12.20
-10.13
-7.95
-5.73
-3.60
-1.68
-0.04
1.28
2.39
3.37
4.31
5.22
6.13
7.03
7.94
8.94
10.05
11.28
12.54
13.75
14.82
15.75
16.56
17.27
17.94
18.48
18.78
18.65
17.94
16.56
14.59
12.27
9.88
7.70
5.86
4.34
3.04
1.83
0.70
-0.39
-1.39
-2.40
-3.49
-4.84
-6.49
-8.36
-10.26
-11.93
-13.21
-14.06
-14.67
-15.19
-15.76
-16.26
-16.37
-15.74
-14.11
-11.55
-8.36
-5.04
-2.02
0.47
2.43
4.00
5.32
6.49
7.47
8.30
9.01
9.71
10.54
11.56
12.75
13.98
15.11
15.89
16.18
15.88
15.01
13.69
12.09
10.40
8.73
7.18
5.79
4.61
3.67
2.99
2.52
2.13
1.71
1.16
0.49
-0.25
-0.99
-1.68
-2.37
-3.11
-4.02
-5.11
-6.42
-7.87
-9.37
-10.76
-11.88
-12.66
-13.03
-13.10
-12.96
-12.75
-12.46
-11.99
-11.18
-9.93
-8.29
-6.49
-4.87
-3.66
-2.99
-2.71
-2.56
-2.29
-1.79
-1.11
-0.36
0.31
0.91
1.44
1.97
2.54
3.07
3.55
3.98
4.48
5.18
6.26
7.75
9.64
11.81
14.08
16.32
18.31
19.90
20.92
21.27
21.02
20.40
19.78
19.49
19.73
20.34
20.94
21.04
20.26
18.50
15.94
12.90
9.66
6.39
3.12
-0.15
-3.34
-6.31
-8.83
-10.72
-11.84
-12.13
-11.54
-10.14
-8.03
-5.49
-2.88
-0.53
1.32
2.70
3.82
4.98
6.35
7.78
8.85
8.99
7.80
5.20
1.49
-2.83
-7.24
-11.39
-15.11
-18.35
-21.04
-23.06
-24.38
-25.08
-25.46
-25.87
-26.48
-27.18
-27.53
-27.00
-25.21
-22.12
-18.06
-13.58
-9.24
-5.43
-2.40
-0.12
1.44
2.46
3.10
3.56
4.03
4.56
5.14
5.63
5.89
5.88
5.69
5.55
5.71
6.35
7.46
8.90
10.38
11.68
12.63
13.19
13.39
13.31
13.03
12.59
12.06
11.51
11.07
10.86
11.03
11.71
12.93
14.68
16.78
18.99
21.01
22.58
23.53
23.76
23.27
22.07
20.18
17.63
14.51
11.02
7.44
4.12
1.33
-0.80
-2.38
-3.62
-4.82
-6.18
-7.81
-9.86
-12.61
-16.52
-22.05
-29.31
-37.70
-45.98
-52.50
-55.91
-55.67
-52.21
-46.67
-40.15
-33.36
-26.32
-18.79
-10.72
-2.59
4.63
10.03
13.08
14.00
13.52
12.63
12.16
12.64
14.21
16.72
19.86
23.13
25.96
27.76
28.03
26.62
23.63
19.54
14.93
10.43
6.54
3.53
1.46
0.25
-0.31
-0.54
-0.71
-1.10
-1.88
-3.08
-4.51
-5.88
-6.87
-7.34
-7.41
-7.39
-7.66
-8.38
-9.36
-10.17
-10.33
-9.61
-8.07
-6.04
-3.93
-1.98
-0.25
1.30
2.61
3.59
4.03
3.89
3.29
2.59
2.13
2.09
2.49
3.14
3.91
4.65
5.33
5.89
6.24
6.30
6.02
5.59
5.31
5.56
6.57
8.35
10.63
12.98
14.97
16.26
16.75
16.47
15.60
14.35
13.00
11.83
11.07
10.80
10.85
10.90
10.42
9.03
6.59
3.29
-0.39
-3.94
-6.90
-9.08
-10.48
-11.29
-11.70
-11.84
-11.77
-11.49
-11.05
-10.52
-10.10
-9.91
-10.07
-10.48
-10.92
-11.14
-10.95
-10.43
-9.79
-9.39
-9.42
-9.95
-10.79
-11.68
-12.42
-12.89
-13.15
-13.24
-13.21
-13.03
-12.62
-11.93
-10.96
-9.84
-8.69
-7.66
-6.73
-5.80
-4.68
-3.25
-1.54
0.27
1.84
2.96
3.58
3.89
4.24
4.93
6.11
7.66
9.37
10.94
12.20
13.08
13.61
13.83
13.77
13.47
12.94
12.27
11.52
10.80
10.08
9.33
8.46
7.36
5.99
4.34
2.52
0.63
-1.18
-2.79
-4.14
-5.20
-6.05
-6.79
-7.53
-8.30
-9.01
-9.46
-9.45
-8.85
-7.72
-6.34
-5.04
-4.14
-3.76
-3.77
-3.85
-3.67
-3.04
-2.00
-0.79
0.34
1.21
1.82
2.32
2.85
3.48
4.10
4.59
4.85
4.99
5.18
5.57
6.17
6.77
7.11
6.93
6.32
5.54
5.04
5.21
6.15
7.69
9.37
10.78
11.58
11.69
11.17
10.12
8.61
6.65
4.29
1.68
-0.90
-3.21
-5.11
-6.65
-8.01
-9.29
-10.46
-11.34
-11.71
-11.41
-10.45
-8.94
-7.08
-5.10
-3.13
-1.35
0.12
1.27
2.16
2.95
3.74
4.51
5.05
5.15
4.68
3.78
2.81
2.18
2.15
2.67
3.37
3.77
3.52
2.57
1.21
-0.02
-0.62
-0.30
0.85
2.50
4.14
5.25
5.48
4.68
2.99
0.79
-1.35
-2.94
-3.72
-3.87
-3.93
-4.66
-6.72
-10.34
-15.23
-20.59
-25.49
-29.02
-30.69
-30.44
-28.61
-25.78
-22.52
-19.29
-16.16
-12.98
-9.47
-5.55
-1.46
2.17
4.55
5.18
4.03
1.67
-0.96
-2.90
-3.62
-3.06
-1.59
0.23
1.99
3.45
4.49
5.06
5.07
4.51
3.53
2.50
1.81
1.90
2.88
4.68
6.98
9.43
11.75
13.75
15.43
16.75
17.76
18.45
18.78
18.72
18.29
17.62
16.96
16.59
16.69
17.25
18.00
18.56
18.64
18.15
17.34
16.54
16.12
16.18
16.62
17.18
17.61
17.75
17.42
16.42
14.42
11.09
6.39
0.70
-5.07
-9.91
-12.96
-14.10
-13.89
-13.33
-13.40
-14.59
-16.78
-19.39
-21.80
-23.57
-24.65
-25.09
-24.94
-24.08
-22.36
-19.81
-16.79
-13.97
-11.97
-11.16
-11.39
-12.07
-12.47
-12.03
-10.67
-8.66
-6.51
-4.54
-2.85
-1.29
0.30
1.93
3.43
4.53
5.10
5.22
5.21
5.40
5.92
6.68
7.41
7.93
8.23
8.59
9.25
10.31
11.60
12.76
13.47
13.60
13.41
13.21
13.36
13.98
15.00
16.18
17.27
18.13
18.62
18.65
18.06
16.72
14.53
11.60
8.23
4.84
1.87
-0.42
-1.98
-2.92
-3.43
-3.72
-3.92
-4.08
-4.28
-4.55
-5.03
-5.76
-6.74
-7.83
-8.72
-9.10
-8.62
-7.20
-5.05
-2.75
-0.94
-0.16
-0.62
-2.15
-4.31
-6.63
-8.77
-10.48
-11.67
-12.17
-11.79
-10.40
-7.98
-4.77
-1.23
2.10
4.78
6.52
7.28
7.25
6.71
5.95
5.18
4.50
3.85
3.17
2.38
1.38
0.22
-1.12
-2.57
-4.11
-5.72
-7.36
-8.95
-10.24
-10.99
-10.90
-9.90
-8.08
-5.75
-3.32
-1.13
0.63
1.95
2.92
3.67
4.31
4.92
5.55
6.21
6.92
7.54
7.95
7.98
7.60
6.89
6.09
5.40
4.93
4.69
4.50
4.24
3.87
3.51
3.37
3.63
4.42
5.65
7.19
8.79
10.24
11.35
12.00
12.15
11.83
11.19
10.36
9.47
8.56
7.55
6.29
4.65
2.63
0.31
-2.08
-4.32
-6.20
-7.68
-8.76
-9.58
-10.24
-10.84
-11.40
-11.90
-12.35
-12.76
-13.17
-13.61
-14.07
-14.54
-14.95
-15.30
-15.54
-15.64
-15.55
-15.19
-14.55
-13.64
-12.59
-11.53
-10.58
-9.76
-8.99
-8.13
-7.05
-5.79
-4.43
-3.15
-2.01
-1.05
-0.16
0.73
1.65
2.69
3.96
5.71
8.17
11.46
15.38
19.40
22.80
24.94
25.49
24.46
22.13
18.79
14.70
10.07
5.17
0.44
-3.60
-6.48
-8.03
-8.41
-8.10
-7.69
-7.58
-7.99
-8.85
-10.00
-11.23
-12.48
-13.75
-15.06
-16.31
-17.28
-17.66
-17.13
-15.60
-13.20
-10.31
-7.40
-4.89
-3.01
-1.77
-1.09
-0.77
-0.65
-0.51
-0.15
0.61
1.82
3.33
4.90
6.22
7.15
7.67
7.99
8.30
8.71
9.26
9.82
10.30
10.61
10.69
10.49
9.97
9.18
8.26
7.44
6.89
6.67
6.64
6.55
6.19
5.51
4.67
3.93
3.43
3.10
2.71
1.99
0.80
-0.77
-2.47
-4.02
-5.32
-6.39
-7.39
-8.34
-9.09
-9.24
-8.37
-6.30
-3.20
0.31
3.47
5.51
6.15
5.55
4.29
3.12
2.56
2.81
3.69
4.86
5.96
6.76
7.18
7.16
6.64
5.56
3.99
2.13
0.40
-0.72
-0.83
0.18
2.16
4.71
7.33
9.52
10.91
11.27
10.63
9.19
7.38
5.67
4.52
4.15
4.52
5.34
6.22
6.80
6.88
6.46
5.59
4.44
3.12
1.72
0.38
-0.78
-1.59
-2.01
-2.08
-2.04
-2.12
-2.55
-3.39
-4.50
-5.71
-6.79
-7.65
-8.29
-8.76
-9.11
-9.33
-9.40
-9.28
-9.02
-8.67
-8.27
-7.79
-7.16
-6.24
-4.95
-3.33
-1.53
0.11
1.33
1.91
1.85
1.33
0.66
0.18
0.11
0.55
1.30
2.08
2.49
2.24
1.25
-0.38
-2.36
-4.44
-6.40
-8.27
-10.12
-12.04
-14.01
-15.90
-17.52
-18.62
-19.04
-18.54
-16.95
-14.18
-10.31
-5.76
-1.13
2.85
5.72
7.34
7.99
8.16
8.30
8.72
9.45
10.38
11.31
12.10
12.55
12.48
11.64
9.84
7.04
3.47
-0.31
-3.61
-5.74
-6.36
-5.55
-3.79
-1.75
0.01
1.24
2.06
2.72
3.52
4.58
5.83
7.17
8.48
9.75
11.02
12.32
13.60
14.77
15.64
16.00
15.69
14.56
12.68
10.26
7.68
5.32
3.48
2.19
1.24
0.32
-0.85
-2.34
-3.99
-5.45
-6.42
-6.73
-6.46
-5.85
-5.14
-4.44
-3.66
-2.68
-1.42
0.00
1.28
2.14
2.41
2.23
1.91
1.77
1.97
2.36
2.59
2.27
1.21
-0.50
-2.46
-4.19
-5.33
-5.77
-5.71
-5.46
-5.33
-5.45
-5.75
-6.10
-6.36
-6.51
-6.61
-6.69
-6.72
-6.62
-6.30
-5.75
-5.06
-4.27
-3.39
-2.33
-1.03
0.55
2.28
3.95
5.29
6.09
6.24
5.72
4.61
3.00
1.04
-1.11
-3.24
-5.13
-6.58
-7.42
-7.59
-7.08
-6.10
-4.91
-3.85
-3.15
-2.90
-3.00
-3.22
-3.33
-3.12
-2.55
-1.64
-0.52
0.69
1.79
2.57
2.85
2.45
1.39
-0.13
-1.73
-3.00
-3.67
-3.65
-3.15
-2.42
-1.76
-1.26
-0.92
-0.63
-0.29
0.06
0.36
0.48
0.36
0.01
-0.44
-0.81
-0.93
-0.59
0.28
1.73
3.61
5.73
7.80
9.58
10.89
11.62
11.81
11.48
10.71
9.55
8.07
6.38
4.58
2.81
1.16
-0.25
-1.36
-2.09
-2.42
-2.43
-2.29
-2.34
-2.90
-4.21
-6.26
-8.75
-11.18
-13.02
-13.99
-14.12
-13.76
-13.36
-13.32
-13.72
-14.42
-15.11
-15.47
-15.35
-14.76
-13.89
-12.82
-11.65
-10.35
-8.87
-7.16
-5.12
-2.64
0.44
4.10
8.15
12.08
15.21
17.00
17.22
16.21
14.71
13.62
13.53
14.64
16.63
18.93
21.00
22.44
23.11
22.97
22.06
20.40
18.03
15.14
12.00
9.07
6.68
5.06
4.12
3.61
3.18
2.51
1.50
0.18
-1.21
-2.48
-3.49
-4.30
-5.06
-5.99
-7.24
-8.80
-10.52
-12.14
-13.48
-14.43
-15.04
-15.37
-15.43
-15.12
-14.25
-12.77
-10.74
-8.49
-6.37
-4.64
-3.34
-2.30
-1.30
-0.18
1.04
2.28
3.41
4.39
5.27
6.02
6.59
6.78
6.51
5.75
4.72
3.73
3.05
2.84
3.03
3.49
4.01
4.53
5.02
5.53
6.10
6.72
7.34
7.83
8.09
7.99
7.53
6.76
5.81
4.89
4.07
3.41
2.80
2.17
1.46
0.73
0.10
-0.37
-0.63
-0.76
-0.80
-0.86
-0.93
-1.04
-1.13
-1.16
-1.14
-1.00
-0.79
-0.54
-0.36
-0.32
-0.46
-0.74
-1.05
-1.35
-1.59
-1.81
-2.08
-2.39
-2.67
-2.78
-2.59
-2.03
-1.24
-0.36
0.42
1.03
1.48
1.87
2.35
2.96
3.72
4.53
5.36
6.12
6.75
7.14
7.11
6.49
5.14
3.10
0.54
-2.19
-4.70
-6.63
-7.72
-7.87
-7.14
-5.78
-4.14
-2.60
-1.44
-0.79
-0.62
-0.74
-1.02
-1.33
-1.71
-2.18
-2.72
-3.27
-3.70
-3.96
-4.09
-4.26
-4.59
-5.10
-5.62
-5.88
-5.66
-4.83
-3.52
-1.98
-0.51
0.65
1.41
1.86
2.14
2.41
2.79
3.28
3.85
4.40
4.88
5.29
5.64
5.97
6.24
6.39
6.28
5.84
5.03
3.93
2.65
1.29
-0.07
-1.42
-2.76
-4.12
-5.51
-6.92
-8.33
-9.66
-10.83
-11.74
-12.33
-12.58
-12.59
-12.49
-12.40
-12.39
-12.36
-12.20
-11.74
-10.90
-9.70
-8.28
-6.80
-5.34
-3.99
-2.67
-1.31
0.11
1.52
2.79
3.82
4.59
5.24
5.89
6.65
7.46
8.10
8.33
8.03
7.32
6.46
5.77
5.34
5.10
4.78
4.15
3.11
1.72
0.18
-1.33
-2.66
-3.73
-4.47
-4.82
-4.78
-4.39
-3.88
-3.50
-3.48
-3.91
-4.71
-5.66
-6.53
-7.15
-7.44
-7.44
-7.15
-6.52
-5.49
-4.03
-2.20
-0.12
2.07
4.31
6.59
8.98
11.42
13.72
15.56
16.59
16.64
15.74
14.21
12.42
10.75
9.34
8.12
6.82
5.12
2.84
-0.03
-3.26
-6.42
-9.05
-10.69
-11.13
-10.36
-8.66
-6.46
-4.25
-2.37
-0.94
0.17
1.26
2.58
4.35
6.51
8.93
11.37
13.59
15.40
16.61
17.13
16.89
15.95
14.35
12.21
9.63
6.79
3.88
1.16
-1.04
-2.53
-3.21
-3.23
-2.87
-2.43
-2.21
-2.32
-2.85
-3.71
-4.79
-5.87
-6.73
-7.20
-7.16
-6.67
-5.88
-5.04
-4.35
-3.95
-3.86
-4.01
-4.32
-4.64
-4.92
-5.06
-5.06
-4.90
-4.64
-4.26
-3.75
-3.07
-2.13
-0.99
0.29
1.45
2.32
2.77
2.85
2.77
2.77
3.06
3.60
4.27
4.82
5.11
5.09
4.78
4.24
3.49
2.64
1.78
1.16
1.00
1.45
2.48
3.86
5.31
6.56
7.48
8.04
8.26
8.11
7.54
6.54
5.13
3.51
1.89
0.45
-0.76
-1.73
-2.53
-3.21
-3.78
-4.30
-4.85
-5.50
-6.32
-7.32
-8.39
-9.43
-10.34
-11.02
-11.49
-11.73
-11.75
-11.56
-11.15
-10.57
-9.94
-9.46
-9.28
-9.52
-10.13
-10.96
-11.77
-12.33
-12.53
-12.27
-11.57
-10.41
-8.78
-6.73
-4.40
-2.07
-0.04
1.44
2.36
2.86
3.26
3.86
4.94
6.59
8.75
11.23
13.74
15.99
17.73
18.79
19.12
18.82
18.15
17.43
17.03
17.22
18.05
19.28
20.41
20.84
20.02
17.74
14.13
9.75
5.32
1.46
-1.44
-3.40
-4.64
-5.50
-6.11
-6.45
-6.30
-5.50
-4.09
-2.33
-0.70
0.37
0.55
-0.19
-1.71
-3.69
-5.80
-7.77
-9.33
-10.35
-10.78
-10.71
-10.30
-9.70
-9.05
-8.36
-7.64
-6.90
-6.28
-5.90
-5.87
-6.13
-6.49
-6.72
-6.54
-5.85
-4.63
-3.02
-1.21
0.61
2.29
3.73
4.89
5.88
6.83
7.92
9.19
10.61
12.01
13.13
13.78
13.78
13.19
12.23
11.47
11.63
13.36
16.99
22.20
28.03
32.99
35.48
34.23
28.82
19.83
8.79
-2.03
-10.32
-14.18
-12.77
-6.47
3.22
14.21
24.46
32.38
37.20
38.70
37.12
32.85
26.55
19.14
11.72
5.31
0.40
-3.12
-5.99
-9.04
-13.00
-18.17
-24.54
-31.93
-40.01
-48.25
-55.73
-61.38
-64.07
-63.28
-59.47
-54.10
-49.19
-46.33
-46.02
-47.16
-47.61
-44.99
-37.71
-25.72
-10.32
6.35
22.14
35.18
43.96
47.02
43.30
32.79
17.15
-0.23
-15.36
-25.39
-30.20
-32.36
-35.46
-41.40
-48.56
-52.27
-47.30
-31.38
-7.07
18.89
38.74
47.32
44.15
32.98
19.25
7.23
-1.55
-7.93
-13.33
-18.17
-21.30
-21.11
-16.73
-9.15
-0.95
4.83
6.07
2.57
-4.10
-11.49
-17.71
-22.11
-25.50
-29.30
-34.58
-41.35
-48.44
-54.28
-57.52
-57.89
-56.09
-53.59
-51.97
-52.33
-55.04
-59.52
-64.48
-68.07
-68.49
-64.34
-55.14
-41.52
-25.02
-7.72
8.47
22.17
32.90
40.76
46.16
49.40
50.46
49.23
45.66
40.38
34.55
29.85
27.81
29.23
33.98
41.03
49.26
57.96
67.43
78.52
91.87
107.03
121.94
133.55
138.73
135.77
124.96
108.69
90.47
73.85
61.51
54.74
53.65
57.24
63.66
70.31
74.50
74.33
69.73
62.77
56.62
54.01
55.40
58.64
59.95
56.11
46.13
31.40
14.62
-2.13
-18.14
-33.71
-48.74
-61.74
-70.28
-72.34
-68.20
-60.73
-54.50
-53.45
-58.96
-69.02
-78.99
-83.68
-79.46
-66.01
-46.43
-26.34
-11.77
-7.28
-14.54
-31.85
-55.13
-78.76
-97.17
-105.76
-102.04
-86.49
-63.28
-40.16
-26.33
-29.02
-49.38
-80.70
-110.24
-124.54
-115.91
-86.38
-47.15
-13.37
2.63
-3.38
-26.69
-56.78
-82.22
-94.86
-91.12
-71.38
-38.49
3.03
47.31
87.26
115.66
127.02
119.23
94.67
59.55
22.40
-8.20
-25.55
-26.23
-10.78
16.55
48.63
77.25
95.21
98.37
86.79
64.54
38.22
14.78
-0.43
-5.05
0.50
13.88
32.34
53.87
77.73
104.21
133.50
164.85
195.94
223.47
244.18
255.84
257.68
249.73
232.33
205.66
170.60
129.42
86.18
45.95
12.85
-11.67
-29.78
-46.23
-66.60
-95.08
-132.99
-178.45
-226.57
-270.58
-302.97
-317.83
-312.50
-288.71
-251.93
-209.25
-167.12
-129.62
-98.79
-75.41
-59.83
-51.16
-46.26
-39.65
-25.56
-1.84
27.64
53.96
68.49
68.46
59.77
53.91
60.88
82.58
110.60
130.25
127.73
96.78
40.94
-28.85
-99.15
-158.70
-200.19
-220.20
-217.82
-193.93
-151.40
-95.60
-34.59
22.03
64.93
87.86
89.52
74.41
51.02
28.58
13.65
8.15
10.06
15.96
23.76
33.69
47.97
69.38
99.79
139.41
186.14
235.36
280.03
312.20
325.34
316.86
289.58
250.48
207.60
166.25
127.06
86.59
40.43
-13.41
-72.48
-130.18
-178.32
-210.12
-222.57
-217.41
-200.67
-180.78
-165.71
-159.99
-162.87
-168.35
-167.87
-154.45
-126.55
-89.76
-55.17
-35.14
-38.36
-65.81
-109.84
-156.24
-189.09
-196.78
-176.69
-136.71
-92.44
-60.85
-52.95
-69.29
-100.15
-130.69
-148.15
-146.87
-128.80
-99.66
-64.06
-22.94
24.84
78.54
132.53
176.78
201.07
200.51
178.65
146.26
116.51
99.10
96.78
105.90
119.85
133.52
145.97
160.26
181.19
212.15
252.91
298.94
342.54
374.91
388.95
381.36
353.71
311.95
264.14
217.75
177.10
142.46
110.83
78.18
41.52
-0.08
-45.44
-91.98
-136.34
-174.88
-204.04
-221.76
-228.46
-227.56
-224.32
-223.81
-228.94
-239.72
-253.69
-266.90
-275.13
-275.13
-265.80
-249.04
-229.12
-210.66
-195.72
-182.05
-164.24
-137.71
-103.58
-70.39
-50.88
-54.87
-82.70
-123.39
-159.35
-174.96
-163.52
-128.58
-79.73
-26.44
26.22
77.17
126.12
170.37
204.32
222.16
221.44
204.97
179.37
151.68
125.73
100.84
73.19
38.64
-4.78
-56.19
-112.80
-170.82
-225.98
-273.71
-310.03
-333.01
-344.00
-347.39
-348.56
-350.84
-353.53
-352.47
-342.92
-323.00
-295.36
-265.98
-240.92
-223.00
-211.07
-201.45
-190.70
-177.62
-163.15
-149.00
-136.14
-124.05
-110.82
-94.35
-73.43
-48.62
-22.00
3.86
26.97
46.74
64.05
81.13
100.13
122.17
146.94
173.06
199.58
226.18
252.76
278.51
302.19
321.34
333.16
335.73
328.01
311.84
290.11
264.99
237.31
208.60
180.54
155.32
135.25
120.13
110.29
105.06
102.23
99.52
98.30
101.44
112.39
133.07
160.02
190.86
223.29
255.03
285.48
319.31
362.47
419.22
488.82
560.86
625.15
672.78
698.00
677.33
598.79
464.49
291.90
130.15
-4.92
-110.16
-184.66
-231.53
-248.55
-232.40
-186.07
-120.28
-51.30
0.59
24.68
19.75
-8.43
-50.18
-93.43
-128.35
-148.88
-153.23
-145.76
-129.30
-106.20
-79.34
-52.21
-27.49
-7.61
5.43
10.48
5.89
-6.55
-23.43
-41.23
-57.70
-71.46
-82.02
-89.97
-96.21
-102.24
-108.22
-113.97
-118.98
-123.83
-129.28
-135.63
-143.63
-153.74
-165.85
-178.28
-188.36
-192.02
-187.19
-173.98
-154.89
-136.14
-125.42
-128.89
-148.92
-183.75
-226.83
-272.00
-313.90
-338.99
-336.73
-302.70
-240.63
-161.11
-86.88
-26.70
14.88
35.49
35.41
19.27
-6.53
-32.99
-46.79
-38.77
-6.59
41.15
90.58
130.27
155.00
166.42
170.69
174.10
180.85
193.32
210.54
230.12
249.15
263.53
268.65
261.07
238.56
202.15
156.54
107.10
58.94
15.74
-20.98
-52.03
-79.73
-107.25
-137.96
-174.46
-218.62
-270.50
-327.70
-385.42
-437.16
-475.69
-494.99
-491.97
-467.16
-424.69
-370.27
-309.36
-246.08
-183.25
-122.99
-67.20
-17.74
24.16
58.31
85.98
109.77
133.08
159.40
191.10
227.84
265.07
294.84
309.02
303.76
282.71
256.10
235.74
228.37
231.55
234.26
222.54
186.60
125.97
50.05
-25.43
-84.15
-114.74
-114.02
-87.65
-48.07
-9.84
15.76
25.28
23.25
18.09
15.81
15.94
12.40
-1.85
-28.86
-63.38
-95.07
-113.63
-113.24
-93.38
-57.09
-7.87
51.28
116.74
182.59
240.56
281.99
301.18
297.60
276.18
245.45
214.62
190.93
177.59
172.74
170.26
162.25
143.47
114.09
80.81
54.10
43.12
50.83
71.97
95.54
109.51
106.50
85.62
51.49
10.81
-30.78
-69.94
-105.16
-134.57
-154.80
-161.08
-150.26
-123.31
-86.56
-50.17
-24.75
-17.21
-28.09
-51.85
-77.03
-91.41
-86.44
-61.23
-22.72
18.96
56.06
85.99
108.88
128.58
146.87
162.43
171.80
171.46
159.61
136.81
107.07
75.06
44.93
18.71
-3.62
-23.52
-42.55
-61.67
-81.39
-102.34
-125.52
-150.74
-175.74
-195.50
-204.10
-197.53
-176.81
-148.53
-122.54
-107.87
-108.87
-124.59
-150.76
-182.66
-216.80
-250.35
-279.00
-295.52
-290.98
-258.09
-195.91
-112.04
-21.44
58.14
111.97
132.89
122.56
89.19
43.65
-4.07
-46.21
-76.91
-91.79
-88.71
-69.77
-42.11
-16.54
-2.92
-5.11
-17.99
-29.57
-26.60
-1.37
44.20
99.44
149.31
180.35
184.70
161.58
116.68
60.14
3.58
-43.57
-76.84
-97.86
-112.48
-126.47
-141.76
-155.17
-160.20
-151.13
-126.39
-88.91
-43.77
5.32
57.71
114.30
174.08
231.72
278.28
304.96
307.67
288.93
256.77
220.85
187.94
159.24
130.79
96.68
53.12
1.42
-51.23
-93.71
-114.92
-108.31
-75.09
-24.48
29.18
71.23
91.07
84.42
52.96
1.92
-61.79
-131.18
-198.45
-254.28
-288.76
-294.43
-269.06
-217.82
-153.21
-91.66
-50.13
-39.95
-62.18
-107.35
-159.25
-200.88
-220.33
-213.84
-184.16
-139.23
-86.58
-30.01
29.48
89.26
143.01
181.26
195.48
183.78
149.89
103.27
56.25
26.40
25.98
56.99
109.78
160.18
198.51
222.47
232.49
231.15
218.40
193.35
157.32
115.24
74.94
44.99
27.76
19.13
11.32
-3.30
-29.30
-67.02
-113.91
-166.17
-219.06
-268.97
-311.36
-340.09
-349.21
-335.92
-301.91
-252.91
-196.30
-138.47
-85.97
-45.36
-22.97
-23.87
-49.30
-94.01
-146.08
-189.87
-210.98
-202.11
-164.62
-106.38
-37.34
34.40
104.00
168.40
223.32
262.49
278.99
269.12
235.80
189.15
143.30
110.92
98.99
107.10
129.25
156.68
180.76
194.31
191.42
167.85
122.41
58.53
-14.50
-82.78
-131.44
-149.27
-132.93
-89.09
-33.11
15.79
40.98
34.42
-0.60
-51.48
-101.83
-137.24
-149.90
-139.00
-108.17
-62.90
-8.55
48.97
101.81
139.65
152.37
133.91
85.54
17.17
-55.74
-116.20
-151.21
-155.53
-132.37
-91.26
-44.02
-1.14
31.55
48.57
46.99
27.76
-4.47
-43.88
-85.73
-124.40
-158.70
-186.75
-206.66
-217.07
-218.24
-213.04
-205.02
-196.96
-189.47
-181.25
-169.17
-150.70
-124.91
-93.32
-59.61
-28.08
-1.88
18.52
35.09
51.58
71.05
94.32
119.48
142.50
159.24
167.54
168.66
166.99
168.85
180.20
204.65
241.75
286.44
329.91
361.14
369.91
349.49
299.49
226.65
144.19
68.72
15.62
-5.82
3.92
34.57
69.70
93.40
96.57
79.69
50.43
17.63
-14.63
-48.80
-90.45
-142.07
-198.46
-247.42
-275.26
-273.70
-243.84
-195.13
-140.01
-88.17
-43.71
-6.10
26.89
55.88
79.04
93.15
95.77
87.20
71.37
54.65
43.65
42.80
52.55
69.92
90.87
113.24
138.29
169.52
209.24
255.13
299.22
330.39
339.19
321.96
282.35
229.37
173.24
121.41
76.71
37.85
1.50
-35.13
-72.81
-109.58
-140.99
-161.14
-164.19
-146.60
-109.36
-58.93
-6.08
36.98
60.32
58.96
33.22
-12.89
-73.81
-143.49
-215.17
-280.28
-328.74
-350.91
-341.03
-299.98
-235.72
-160.91
-88.67
-28.41
16.29
47.04
67.94
82.38
91.18
92.60
83.90
63.45
32.18
-5.90
-44.41
-75.94
-93.51
-91.76
-68.04
-23.53
36.12
101.02
158.79
197.58
209.19
191.30
147.60
86.43
18.43
-45.66
-96.96
-129.75
-142.08
-135.75
-115.18
-85.65
-51.22
-13.68
26.88
69.97
112.76
149.54
173.23
178.36
163.23
130.17
83.76
28.35
-32.99
-97.29
-159.29
-210.13
-238.94
-237.27
-203.93
-147.18
-82.51
-26.70
8.62
20.69
14.93
1.24
-11.00
-15.77
-10.45
5.62
32.51
69.29
112.81
157.02
194.10
217.12
222.94
213.25
192.97
167.49
139.98
110.71
78.53
42.90
4.85
-33.75
-71.58
-108.59
-144.65
-177.71
-202.36
-210.96
-196.74
-157.23
-95.92
-20.78
58.73
134.77
202.33
258.68
302.16
331.38
345.42
344.38
329.90
305.03
273.45
238.91
204.54
173.05
146.42
125.47
108.94
93.47
74.20
45.97
4.84
-50.47
-117.42
-189.05
-255.15
-305.43
-332.84
-335.99
-319.22
-290.55
-258.91
-232.05
-214.04
-204.50
-200.49
-199.46
-200.81
-205.28
-213.17
-222.26
-230.20
-234.27
-232.55
-224.77
-212.63
-198.66
-185.20
-173.11
-162.75
-153.15
-142.31
-128.49
-110.66
-88.34
-60.94
-27.85
10.40
50.84
87.87
115.37
129.46
131.18
126.68
124.84
133.19
154.98
188.75
230.45
276.03
322.34
365.94
401.56
422.09
420.99
395.82
350.45
293.79
235.94
183.99
140.80
106.76
82.60
70.79
73.74
90.59
115.73
140.73
158.73
168.23
173.41
180.36
192.14
205.72
213.28
206.85
183.12
145.23
100.52
56.14
15.40
-22.68
-61.00
-101.24
-142.00
-179.39
-209.41
-230.44
-244.43
-256.12
-270.87
-292.27
-320.72
-353.85
-388.40
-422.26
-455.40
-488.89
-522.72
-553.87
-576.21
-582.50
-567.64
-531.16
-477.73
-415.17
-351.42
-291.94
-238.64
-190.80
-146.65
-104.59
-63.43
-21.66
23.04
73.78
133.25
202.01
277.10
351.59
415.43
457.96
471.05
452.03
405.40
341.99
275.91
220.11
182.41
163.94
160.25
164.56
170.96
176.46
180.79
184.96
189.55
193.66
195.55
193.77
188.30
180.51
172.44
165.53
159.77
153.90
145.74
134.39
121.12
109.28
102.59
102.81
108.18
113.85
114.14
104.26
83.30
54.09
21.68
-9.21
-36.07
-58.78
-78.41
-95.56
-111.54
-126.80
-142.00
-157.81
-174.92
-193.88
-214.71
-236.56
-257.72
-278.88
-301.26
-327.62
-360.81
-402.87
-454.92
-517.39
-590.28
-657.91
-705.87
-722.38
-703.34
-651.37
-573.00
-476.90
-373.44
-273.77
-187.30
-125.09
-85.30
-62.38
-49.26
-39.48
-28.65
-14.78
3.06
26.13
54.86
88.15
123.66
158.94
191.87
220.66
244.31
262.91
277.76
289.78
300.31
309.93
319.15
328.67
339.27
351.52
365.26
379.21
390.36
395.26
390.83
375.91
351.91
322.19
290.77
260.96
234.58
211.64
191.17
171.96
153.28
135.14
118.02
102.42
88.53
76.16
64.86
54.13
43.68
33.39
23.17
12.78
1.80
-10.03
-22.54
-34.81
-45.46
-53.03
-56.65
-56.41
-53.29
-48.78
-44.29
-40.81
-38.71
-37.87
-37.84
-38.11
-38.27
-38.10
-37.55
-36.69
-35.64
-34.55
-33.60
-32.91
-32.54
-32.47
-32.62
-32.85
-33.05
-33.12
-32.87
-32.10
-30.53
-28.01
-24.50
-20.09
-14.96
-9.26
-3.15
3.10
9.02
13.93
17.09
17.95
16.48
13.13
8.72
4.14
0.12
-2.90
-4.79
-5.64
-5.65
-5.10
-4.30
-3.55
-3.08
-2.98
-3.22
-3.68
-4.18
-4.58
-4.79
-4.83
-4.78
-4.79
-4.96
-5.33
-5.86
-6.51
-7.24
-8.05
-8.94
-9.90
-10.86
-11.74
-12.49
-13.19
-13.94
-14.84
-15.90
-16.99
-17.88
-18.42
-18.60
-18.55
-18.48
-18.55
-18.78
-19.02
-19.05
-18.72
-17.96
-16.79
-15.27
-13.47
-11.38
-9.01
-6.42
-3.72
-1.06
1.48
3.85
6.07
8.19
10.23
12.18
14.00
15.62
16.98
18.02
18.66
18.85
18.54
17.65
16.17
14.10
11.54
8.62
5.51
2.32
-0.86
-4.02
-7.14
-10.19
-13.12
-15.83
-18.24
-20.28
-21.90
-23.06
-23.73
-23.96
-23.86
-23.60
-23.33
-23.11
-22.84
-22.35
-21.40
-19.87
-17.80
-15.40
-12.93
-10.58
-8.39
-6.28
-4.14
-1.91
0.39
2.59
4.54
6.08
7.19
7.91
8.34
8.61
8.79
8.95
9.11
9.29
9.46
9.51
9.27
8.47
6.91
4.50
1.38
-2.11
-5.54
-8.55
-10.92
-12.67
-13.93
-14.84
-15.50
-15.89
-16.00
-15.80
-15.35
-14.73
-14.04
-13.36
-12.64
-11.81
-10.71
-9.23
-7.37
-5.22
-3.02
-0.98
0.74
2.08
3.07
3.76
4.16
4.30
4.24
4.08
3.97
4.05
4.40
4.99
5.78
6.69
7.70
8.77
9.91
11.09
12.25
13.30
14.09
14.54
14.54
14.09
13.31
12.37
11.47
10.80
10.52
10.67
11.16
11.72
11.90
11.20
9.21
5.80
1.22
-3.91
-8.82
-12.85
-15.60
-17.05
-17.39
-16.94
-15.89
-14.31
-12.12
-9.24
-5.73
-1.81
2.09
5.55
8.19
9.89
10.78
11.15
11.33
11.57
11.88
12.12
12.00
11.18
9.38
6.39
2.18
-3.06
-8.86
-14.50
-19.19
-22.27
-23.44
-22.87
-21.08
-18.73
-16.43
-14.51
-13.05
-11.96
-11.07
-10.26
-9.46
-8.70
-8.05
-7.58
-7.37
-7.47
-7.89
-8.55
-9.32
-10.05
-10.49
-10.47
-9.86
-8.65
-7.00
-5.18
-3.48
-2.12
-1.17
-0.54
-0.07
0.40
0.95
1.57
2.18
2.71
3.10
3.34
3.49
3.58
3.70
3.91
4.25
4.68
5.10
5.41
5.45
5.16
4.54
3.63
2.56
1.44
0.40
-0.46
-1.05
-1.39
-1.49
-1.42
-1.27
-1.15
-1.17
-1.39
-1.80
-2.33
-2.86
-3.22
-3.29
-2.99
-2.25
-1.07
0.50
2.34
4.25
5.94
7.14
7.66
7.41
6.49
5.09
3.45
1.77
0.20
-1.15
-2.26
-3.12
-3.83
-4.47
-5.17
-6.09
-7.34
-8.94
-10.78
-12.62
-14.09
-14.81
-14.46
-12.97
-10.49
-7.42
-4.32
-1.67
0.19
1.18
1.45
1.25
0.84
0.41
0.04
-0.22
-0.35
-0.36
-0.29
-0.24
-0.30
-0.55
-0.93
-1.28
-1.42
-1.22
-0.72
-0.08
0.49
0.88
1.10
1.26
1.47
1.77
2.09
2.26
2.15
1.73
1.08
0.41
-0.04
-0.14
0.06
0.34
0.41
0.12
-0.52
-1.33
-2.02
-2.42
-2.53
-2.53
-2.66
-3.02
-3.50
-3.85
-3.83
-3.37
-2.65
-2.03
-1.89
-2.47
-3.78
-5.59
-7.52
-9.24
-10.50
-11.29
-11.72
-12.00
-12.38
-13.04
-14.07
-15.43
-16.98
-18.33
-18.85
-17.73
-14.20
-7.97
0.50
9.99
18.85
25.64
29.74
31.49
31.98
32.35
33.26
34.55
35.53
35.44
33.89
31.09
27.59
23.95
20.48
17.14
13.76
10.23
6.63
3.22
0.31
-1.95
-3.58
-4.75
-5.69
-6.51
-7.28
-7.88
-8.20
-8.10
-7.56
-6.73
-5.88
-5.42
-5.63
-6.59
-8.07
-9.62
-10.75
-11.12
-10.65
-9.51
-8.00
-6.41
-4.90
-3.47
-2.09
-0.69
0.68
1.93
2.92
3.51
3.65
3.34
2.60
1.54
0.25
-1.06
-2.20
-2.90
-2.99
-2.40
-1.26
0.18
1.57
2.57
2.95
2.64
1.70
0.34
-1.15
-2.46
-3.40
-3.81
-3.71
-3.20
-2.46
-1.75
-1.32
-1.38
-1.97
-3.01
-4.25
-5.42
-6.31
-6.88
-7.23
-7.51
-7.85
-8.32
-8.85
-9.31
-9.55
-9.40
-8.77
-7.66
-6.13
-4.35
-2.50
-0.80
0.64
1.72
2.45
2.82
2.86
2.63
2.21
1.74
1.33
1.09
1.02
1.06
1.12
1.11
0.96
0.65
0.17
-0.46
-1.24
-2.16
-3.20
-4.32
-5.43
-6.36
-6.98
-7.14
-6.76
-5.88
-4.66
-3.31
-2.11
-1.27
-0.88
-0.92
-1.31
-1.94
-2.75
-3.69
-4.68
-5.62
-6.34
-6.65
-6.42
-5.58
-4.20
-2.45
-0.54
1.36
3.07
4.51
5.64
6.46
6.99
7.24
7.23
6.97
6.51
5.90
5.21
4.49
3.77
3.11
2.51
2.00
1.62
1.39
1.35
1.56
2.06
2.82
3.76
4.72
5.46
5.82
5.64
4.94
3.81
2.47
1.18
0.16
-0.46
-0.70
-0.71
-0.71
-0.90
-1.38
-2.15
-3.07
-3.98
-4.74
-5.27
-5.53
-5.57
-5.43
-5.15
-4.77
-4.27
-3.63
-2.86
-2.03
-1.30
-0.87
-0.84
-1.17
-1.65
-2.01
-2.04
-1.67
-1.03
-0.35
0.14
0.32
0.22
-0.09
-0.46
-0.75
-0.78
-0.46
0.28
1.39
2.69
3.96
4.96
5.59
5.83
5.71
5.32
4.68
3.80
2.72
1.52
0.31
-0.79
-1.71
-2.46
-3.06
-3.51
-3.81
-3.97
-4.03
-4.10
-4.32
-4.78
-5.48
-6.26
-6.88
-7.05
-6.55
-5.29
-3.31
-0.85
1.82
4.32
6.33
7.65
8.28
8.42
8.38
8.46
8.84
9.52
10.33
11.06
11.56
11.74
11.60
11.22
10.69
10.10
9.52
8.98
8.51
8.10
7.74
7.40
7.06
6.64
6.06
5.24
4.16
2.90
1.63
0.58
-0.07
-0.28
-0.15
0.11
0.27
0.18
-0.24
-0.97
-1.98
-3.21
-4.62
-6.18
-7.79
-9.32
-10.61
-11.53
-12.01
-12.05
-11.72
-11.16
-10.46
-9.73
-9.04
-8.44
-7.92
-7.45
-6.94
-6.34
-5.62
-4.86
-4.13
-3.52
-3.05
-2.67
-2.28
-1.80
-1.16
-0.39
0.46
1.33
2.16
2.92
3.60
4.22
4.84
5.45
6.05
6.57
6.91
7.01
6.85
6.48
5.95
5.33
4.66
3.94
3.23
2.58
2.08
1.78
1.67
1.68
1.71
1.62
1.29
0.67
-0.18
-1.15
-2.05
-2.65
-2.81
-2.47
-1.72
-0.71
0.36
1.35
2.24
3.07
3.88
4.65
5.30
5.69
5.74
5.47
5.00
4.48
4.08
3.89
3.93
4.19
4.59
5.06
5.52
5.91
6.22
6.44
6.58
6.63
6.58
6.45
6.31
6.27
6.38
6.58
6.68
6.49
5.93
5.08
4.19
3.49
3.10
3.00
3.08
3.19
3.27
3.33
3.35
3.31
3.10
2.60
1.74
0.57
-0.77
-2.04
-3.04
-3.59
-3.60
-3.17
-2.44
-1.65
-0.98
-0.52
-0.28
-0.14
0.03
0.32
0.74
1.22
1.66
2.00
2.28
2.56
2.91
3.39
3.94
4.49
4.97
5.38
5.71
6.03
6.34
6.59
6.75
6.80
6.77
6.72
6.73
6.79
6.88
6.93
6.89
6.77
6.59
6.35
5.97
5.29
4.19
2.70
1.09
-0.17
-0.57
0.19
2.04
4.53
7.01
8.92
10.08
10.79
11.73
13.69
17.21
22.41
28.83
35.65
42.00
47.36
51.82
56.08
61.14
67.71
75.73
84.18
91.30
95.06
93.84
86.93
74.76
58.88
41.48
24.77
10.17
-2.14
-13.41
-25.85
-41.88
-63.14
-89.84
-120.48
-152.26
-181.84
-206.47
-225.03
-238.35
-248.93
-259.48
-271.06
-281.86
-287.29
-281.77
-261.36
-226.07
-180.20
-131.14
-86.41
-50.82
-25.18
-6.80
8.56
24.45
42.65
63.87
88.30
116.40
148.72
184.79
222.04
255.64
279.78
289.87
285.61
270.67
251.34
234.07
223.01
219.08
220.49
224.04
226.55
227.20
225.98
223.25
219.65
215.79
212.69
211.79
214.31
220.43
230.80
244.33
258.24
269.11
273.19
267.86
252.59
228.84
189.62
133.82
65.02
-8.94
-78.00
-135.00
-177.03
-204.58
-218.95
-224.91
-225.41
-223.84
-224.61
-231.93
-250.00
-280.76
-319.05
-354.07
-372.90
-364.17
-324.57
-264.54
-194.63
-125.63
-66.92
-25.06
-3.63
-3.70
-21.59
-50.25
-80.43
-102.38
-109.98
-102.40
-83.69
-61.36
-43.76
-36.97
-43.76
-63.18
-89.60
-115.48
-133.44
-138.48
-129.93
-110.64
-84.43
-54.97
-25.42
0.06
18.08
24.57
16.23
-8.11
-46.39
-93.31
-141.51
-180.10
-199.55
-195.64
-172.23
-139.20
-107.87
-85.76
-74.05
-68.79
-64.46
-57.97
-49.97
-43.71
-41.52
-42.96
-44.58
-41.75
-31.10
-11.94
13.26
40.55
64.89
84.31
100.23
116.63
137.91
167.03
204.37
247.50
292.24
333.74
367.81
390.99
400.88
396.07
376.34
342.71
297.25
242.45
180.55
113.70
44.25
-24.16
-86.22
-135.15
-164.17
-168.57
-147.56
-105.28
-50.25
6.64
55.66
90.69
111.65
123.57
133.56
146.59
162.65
177.01
183.28
178.10
162.13
140.62
120.03
103.95
90.86
75.05
50.23
13.16
-33.83
-86.42
-139.51
-189.87
-236.76
-281.24
-324.42
-365.90
-403.64
-425.64
-422.49
-390.02
-332.49
-260.78
-187.34
-121.32
-66.48
-25.99
4.70
28.16
44.73
52.68
50.30
37.25
14.95
-12.05
-39.24
-62.14
-79.61
-88.52
-87.75
-77.82
-60.75
-39.35
-16.04
7.45
30.54
51.70
69.47
82.40
90.03
93.32
94.28
95.25
97.44
100.74
103.22
102.27
95.47
81.56
60.44
32.46
-1.77
-39.25
-75.55
-104.96
-120.93
-118.55
-97.18
-61.30
-18.85
22.50
57.20
85.40
107.91
123.94
130.66
124.76
105.44
76.29
45.71
24.32
19.51
31.86
55.23
80.97
101.04
112.56
115.49
111.14
100.31
83.63
61.74
35.52
7.28
-20.36
-45.63
-69.27
-94.60
-126.32
-167.47
-212.41
-252.96
-279.01
-282.59
-260.96
-217.88
-161.82
-103.36
-50.62
-8.13
21.28
36.96
39.34
30.26
15.08
0.96
-11.68
-25.07
-39.92
-58.03
-78.83
-98.54
-111.09
-111.23
-93.17
-59.19
-18.89
14.92
32.63
33.59
25.43
18.67
20.95
35.21
57.47
79.25
92.22
90.04
71.41
41.65
12.09
-3.62
4.35
36.53
84.09
130.73
158.41
155.62
122.33
69.89
15.87
-22.58
-34.96
-19.13
19.79
71.48
123.19
161.84
176.19
160.05
115.20
51.35
-15.58
-67.64
-90.45
-77.80
-33.56
29.74
95.41
148.70
179.70
185.06
167.80
134.62
93.55
51.92
15.22
-12.80
-29.72
-36.33
-37.05
-38.78
-49.64
-76.33
-122.09
-186.30
-265.10
-351.81
-432.60
-491.65
-515.09
-498.02
-447.28
-377.46
-304.31
-244.97
-197.87
-156.61
-115.32
-70.71
-22.91
26.12
73.83
117.85
157.23
193.52
227.76
260.81
293.57
326.48
358.70
387.60
408.43
415.53
405.11
375.34
327.85
267.27
198.88
126.31
50.67
-28.14
-108.86
-186.41
-253.17
-301.06
-325.45
-327.86
-315.74
-299.15
-286.36
-280.72
-280.24
-280.38
-277.46
-270.78
-262.76
-257.16
-256.42
-260.47
-267.16
-272.99
-274.80
-270.87
-261.25
-247.11
-229.87
-210.29
-188.36
-163.87
-136.55
-106.65
-75.40
-44.99
-17.97
3.33
17.79
25.35
26.24
21.87
14.58
6.61
-0.41
-5.89
-10.17
-12.89
-13.73
-13.78
-12.55
-7.30
4.79
25.48
54.45
89.15
127.93
168.70
206.16
237.86
265.78
292.66
320.90
352.01
386.66
428.74
480.15
533.60
580.14
613.49
628.63
625.04
608.09
587.54
578.27
589.93
617.22
650.71
684.61
715.20
743.01
771.79
772.56
724.03
666.58
618.89
566.02
502.96
429.92
351.73
274.94
204.75
147.78
88.89
11.22
-91.51
-209.55
-326.74
-427.76
-504.03
-554.98
-581.76
-588.04
-581.77
-568.24
-547.26
-519.08
-485.31
-449.40
-415.56
-385.32
-359.13
-338.45
-323.17
-310.84
-300.70
-293.85
-291.91
-294.81
-298.29
-295.84
-281.67
-252.28
-207.25
-150.61
-89.57
-32.66
12.08
37.83
40.27
18.32
-25.57
-84.80
-149.73
-208.88
-251.52
-269.97
-261.42
-228.33
-176.93
-115.86
-53.31
4.84
55.94
99.48
134.24
158.65
171.71
174.15
168.16
157.31
146.08
140.29
142.86
153.88
170.32
186.43
195.48
191.47
171.68
137.35
94.94
55.56
30.14
24.42
33.66
49.04
61.96
66.49
61.76
49.34
31.97
11.92
-9.70
-32.52
-56.88
-83.42
-113.08
-146.81
-185.12
-227.45
-271.64
-312.67
-342.01
-350.38
-331.71
-287.06
-225.64
-162.00
-110.97
-83.14
-80.89
-91.79
-98.92
-87.63
-52.37
1.31
62.39
121.26
171.96
210.60
239.36
259.96
270.79
269.06
252.97
223.86
185.09
140.34
92.31
43.29
-3.92
-48.23
-88.66
-123.91
-150.99
-157.45
-136.20
-88.34
-35.68
10.17
42.53
62.26
68.93
63.22
46.57
19.31
-18.28
-65.41
-119.29
-178.78
-242.94
-309.72
-373.64
-426.44
-460.37
-470.02
-454.50
-416.61
-364.29
-306.87
-251.55
-200.60
-152.09
-103.39
-53.52
-4.52
40.54
77.91
105.92
125.80
141.11
155.48
170.75
187.26
205.13
226.01
251.42
281.22
311.82
336.15
345.39
332.11
293.43
232.71
158.83
83.51
18.42
-27.29
-48.62
-44.91
-19.02
23.98
78.17
136.92
192.86
237.97
264.56
267.52
246.66
207.60
159.94
113.89
76.45
49.34
29.42
10.84
-12.86
-47.02
-95.23
-158.45
-234.10
-315.39
-392.27
-454.10
-493.50
-508.89
-504.83
-489.41
-469.93
-449.62
-426.71
-396.71
-355.96
-304.63
-247.29
-190.95
-141.94
-102.77
-71.54
-42.61
-9.16
34.37
90.20
156.07
225.15
286.70
328.91
342.67
325.87
285.57
237.01
198.71
185.37
202.03
241.72
288.41
323.27
331.85
309.33
261.38
201.63
146.58
110.32
99.79
112.99
140.02
167.60
185.27
190.35
189.08
192.41
209.67
242.18
281.78
314.57
327.71
315.67
281.46
233.82
181.95
131.53
83.58
36.93
-8.69
-51.11
-86.22
-110.25
-122.12
-124.52
-123.35
-125.77
-138.00
-164.03
-204.51
-256.61
-314.79
-371.85
-420.79
-456.49
-477.05
-483.59
-479.24
-467.15
-449.08
-425.47
-396.41
-362.94
-327.82
-295.02
-267.08
-243.81
-220.62
-191.03
-149.92
-96.23
-33.67
30.85
89.38
137.43
174.49
205.82
238.90
280.64
334.36
398.39
466.13
526.35
567.99
581.74
565.97
525.92
472.96
420.78
381.72
363.22
364.96
382.62
391.41
371.08
310.98
215.93
101.97
-12.61
-105.63
-177.41
-231.75
-271.22
-293.09
-294.29
-275.95
-243.06
-202.94
-163.09
-130.01
-105.28
-92.23
-90.11
-96.85
-102.80
-104.73
-102.67
-99.99
-97.76
-92.64
-79.36
-50.82
-2.59
64.55
142.35
218.11
278.43
313.28
320.01
302.58
270.03
231.54
193.07
155.45
116.75
74.59
28.01
-21.66
-71.64
-118.23
-158.23
-189.53
-211.93
-226.18
-233.81
-236.42
-235.24
-231.02
-223.72
-213.22
-199.68
-184.13
-167.83
-151.94
-136.83
-121.84
-105.50
-86.08
-62.67
-35.69
-7.00
21.12
46.81
69.29
89.09
107.23
124.58
141.14
156.37
169.81
181.69
192.43
201.66
207.47
206.57
195.50
172.20
137.86
97.26
57.46
24.10
-0.97
-19.97
-37.12
-55.66
-76.67
-98.37
-117.31
-129.35
-132.80
-128.45
-118.96
-107.66
-98.48
-96.74
-106.80
-129.28
-157.58
-182.10
-193.68
-188.34
-168.59
-142.56
-121.51
-113.68
-121.14
-137.94
-157.89
-177.57
-197.95
-220.77
-236.32
-234.25
-207.27
-171.33
-136.45
-110.44
-92.16
-79.97
-68.00
-47.84
-13.63
35.78
95.96
160.99
222.16
271.71
304.42
320.44
324.07
320.35
313.74
306.36
299.31
289.70
272.75
243.61
201.63
150.85
97.65
48.49
7.49
-23.19
-45.20
-62.04
-79.04
-99.99
-125.90
-154.88
-182.16
-200.96
-203.23
-183.90
-142.73
-87.43
-30.29
15.34
39.17
36.73
9.80
-34.25
-86.85
-140.78
-194.31
-248.47
-304.09
-359.27
-408.75
-445.62
-463.64
-461.46
-430.14
-371.43
-297.02
-223.48
-163.02
-118.02
-86.97
-61.92
-39.40
-19.75
-6.26
0.42
3.88
10.18
24.99
50.72
86.22
126.47
166.02
199.46
224.64
243.18
259.45
278.19
302.38
332.89
367.77
404.01
437.11
463.06
479.28
485.21
482.36
473.60
462.49
451.41
440.77
428.04
409.02
379.76
338.46
286.56
228.34
169.41
114.47
65.79
22.72
-17.37
-57.27
-98.26
-139.40
-178.02
-210.92
-236.12
-253.81
-265.98
-275.70
-286.01
-299.58
-318.18
-342.31
-370.60
-399.18
-422.01
-432.56
-426.69
-405.10
-373.74
-341.62
-316.71
-302.40
-296.34
-292.44
-284.53
-269.56
-248.48
-224.53
-200.51
-176.77
-151.31
-121.51
-86.33
-47.40
-8.64
25.91
54.12
76.73
97.02
119.18
146.78
181.52
223.36
270.90
321.57
371.33
414.53
444.76
456.72
448.68
423.78
389.00
352.26
318.82
289.23
259.86
225.69
183.33
132.69
76.65
19.67
-33.43
-78.34
-111.41
-130.12
-133.64
-123.27
-101.81
-72.73
-39.45
-5.02
27.51
54.82
73.89
83.27
83.91
78.72
70.92
62.17
52.02
38.72
20.86
-1.42
-26.92
-54.76
-85.36
-119.93
-158.77
-199.58
-237.33
-266.14
-282.09
-284.94
-277.54
-263.44
-244.15
-218.13
-182.25
-134.89
-78.44
-19.84
31.04
64.59
74.92
61.96
31.77
-4.85
-34.93
-46.71
-33.13
5.31
59.84
115.13
154.09
164.42
143.65
100.55
51.63
14.57
1.46
14.80
48.04
89.66
128.24
156.13
170.48
172.23
164.59
152.15
140.08
133.12
133.68
140.24
147.05
146.19
131.09
99.83
56.12
7.63
-37.35
-73.00
-97.54
-112.51
-120.78
-125.10
-127.72
-130.78
-136.65
-147.65
-165.36
-189.93
-219.90
-252.43
-283.94
-310.63
-328.78
-335.23
-327.95
-306.81
-273.68
-231.78
-184.70
-135.43
-86.30
-39.67
1.36
33.29
53.57
62.41
63.47
62.70
65.66
74.99
89.53
105.41
118.53
126.69
130.17
130.66
129.33
125.86
118.65
106.51
89.94
71.54
55.06
43.50
37.56
35.28
33.28
28.52
20.08
9.63
1.01
-1.03
7.81
30.35
67.02
115.64
171.33
227.52
276.76
312.78
332.54
337.43
332.50
323.94
316.11
309.66
302.39
290.92
273.52
251.64
229.60
212.33
202.64
199.54
198.58
194.39
182.32
160.16
128.46
90.17
49.22
9.39
-26.46
-59.81
-89.40
-112.65
-126.84
-131.03
-126.12
-115.04
-101.52
-88.92
-79.76
-74.70
-73.81
-76.14
-81.82
-90.71
-102.30
-115.55
-129.39
-143.40
-156.84
-169.48
-181.61
-195.14
-211.40
-231.24
-255.71
-286.88
-327.57
-378.07
-434.67
-489.31
-533.15
-557.15
-555.03
-525.04
-469.73
-394.55
-304.50
-204.13
-90.80
26.38
130.57
204.98
243.11
255.31
256.47
259.20
268.59
283.77
298.09
305.12
302.09
290.58
274.33
256.10
237.09
216.85
194.04
166.33
133.40
97.52
62.65
32.86
10.64
-2.66
-6.93
-3.94
1.09
0.92
-11.80
-41.56
-86.92
-139.71
-186.16
-212.19
-209.61
-180.50
-135.77
-90.27
-56.61
-41.05
-43.14
-57.89
-78.60
-98.76
-112.95
-116.86
-108.43
-89.80
-68.55
-56.26
-63.91
-96.48
-149.63
-210.44
-262.61
-293.02
-296.44
-276.28
-241.49
-201.63
-163.19
-128.49
-96.97
-67.56
-40.00
-14.87
7.61
28.56
50.74
77.23
109.75
147.60
187.48
224.63
254.72
275.23
285.95
288.29
284.30
275.86
264.57
251.96
240.12
231.57
228.52
231.76
239.73
248.53
253.08
249.26
235.90
215.91
195.38
180.92
176.53
181.46
190.45
196.19
193.02
179.34
158.02
134.29
112.79
95.57
81.75
69.03
55.46
40.57
25.16
10.03
-5.12
-22.10
-43.52
-71.84
-108.27
-152.46
-202.77
-256.78
-311.72
-364.22
-410.11
-444.38
-462.00
-459.27
-435.22
-392.28
-335.78
-272.45
-208.32
-147.47
-91.50
-40.40
6.40
49.07
87.13
119.84
146.37
165.85
176.88
177.37
165.21
139.66
102.84
60.32
20.16
-9.78
-24.54
-24.07
-12.75
2.70
16.21
24.69
28.33
29.58
31.41
36.16
45.10
58.65
76.42
96.98
117.84
135.71
147.69
152.34
150.35
143.90
135.36
126.15
116.33
105.60
94.24
83.80
76.36
73.05
72.75
71.99
66.31
52.00
27.63
-5.76
-45.16
-86.44
-125.16
-156.90
-177.88
-185.80
-181.37
-169.13
-156.77
-152.27
-159.91
-177.27
-195.14
-201.45
-187.25
-151.73
-103.31
-55.76
-21.82
-7.49
-10.47
-22.86
-36.32
-46.27
-52.78
-58.33
-64.57
-70.48
-73.18
-70.33
-62.05
-51.14
-41.44
-35.31
-32.31
-29.57
-23.61
-12.22
4.26
23.18
40.71
53.32
58.89
57.18
49.76
39.49
29.78
23.74
23.18
28.10
36.58
45.54
51.68
52.71
47.83
37.82
24.52
10.21
-2.85
-12.49
-16.67
-13.84
-3.40
13.52
34.06
54.30
70.66
81.31
86.78
89.57
92.67
98.20
106.50
116.38
125.98
133.52
137.64
137.02
130.18
115.56
92.17
60.35
22.13
-19.17
-59.84
-96.78
-128.13
-153.18
-171.68
-183.14
-186.72
-181.51
-167.43
-145.71
-118.90
-90.14
-62.06
-35.91
-11.39
12.79
37.85
63.94
89.65
112.12
127.79
133.38
126.86
107.79
77.40
37.88
-8.25
-58.64
-111.10
-163.13
-211.38
-251.59
-279.23
-290.68
-284.61
-262.82
-230.01
-192.61
-156.78
-126.43
-102.09
-81.06
-58.84
-31.06
5.01
50.09
103.31
162.61
224.72
284.58
335.20
368.76
378.80
362.75
323.19
266.76
201.55
134.14
68.08
4.37
-56.77
-113.95
-163.78
-201.43
-222.33
-223.90
-206.82
-175.22
-135.68
-95.54
-60.65
-33.99
-15.18
-1.48
10.53
23.27
37.25
51.43
64.05
73.73
79.80
82.25
81.26
77.08
70.03
60.84
51.29
44.00
41.67
45.40
53.58
62.14
66.52
64.55
58.20
53.07
55.36
68.13
89.18
111.88
128.69
134.78
129.83
116.75
98.77
77.04
50.56
18.23
-18.88
-56.92
-90.72
-116.30
-132.42
-140.31
-141.92
-138.16
-128.21
-110.82
-86.01
-56.15
-25.39
1.96
23.11
37.38
45.33
47.45
43.18
31.33
11.38
-15.55
-46.10
-75.63
-99.54
-114.71
-120.19
-117.14
-108.39
-97.50
-87.72
-80.75
-75.78
-69.11
-55.06
-28.14
13.97
68.21
125.96
175.21
204.82
208.24
185.44
141.97
85.72
23.18
-42.80
-112.44
-186.23
-261.52
-331.04
-384.25
-411.20
-407.14
-374.91
-324.11
-267.26
-215.13
-173.48
-142.32
-118.09
-96.54
-75.20
-53.87
-33.91
-16.94
-4.16
3.70
6.12
2.61
-6.75
-20.90
-37.22
-51.68
-59.67
-57.31
-42.89
-17.73
13.95
46.46
74.67
95.69
109.55
118.21
123.51
125.39
121.44
107.92
81.86
43.06
-4.97
-55.60
-100.80
-133.12
-147.54
-142.32
-118.89
-80.98
-33.16
20.84
79.25
141.98
209.19
279.08
346.39
402.69
438.81
448.21
429.72
388.01
331.56
269.35
207.86
149.65
94.16
39.44
-16.21
-73.52
-132.20
-191.19
-248.47
-300.80
-343.78
-372.75
-384.36
-377.60
-354.32
-318.41
-274.43
-226.37
-177.05
-128.11
-80.27
-33.50
12.77
58.99
104.55
146.91
181.59
203.30
207.89
194.05
163.98
122.35
74.73
26.38
-17.87
-53.13
-73.79
-74.32
-51.29
-6.17
53.28
113.69
159.69
178.91
166.25
125.85
69.29
11.49
-34.40
-60.75
-66.66
-56.70
-38.26
-19.04
-5.39
-1.89
-11.11
-33.29
-65.71
-102.36
-135.07
-155.32
-156.60
-136.24
-96.00
-41.34
19.64
77.61
124.06
153.04
163.39
159.97
153.40
157.07
182.34
233.37
304.49
381.87
448.46
490.59
502.58
487.23
452.86
408.28
359.44
308.64
256.55
204.65
156.45
116.14
85.82
63.52
43.43
19.14
-12.52
-48.90
-82.45
-104.24
-108.84
-97.62
-78.23
-61.30
-55.72
-65.42
-89.14
-122.95
-163.47
-209.47
-260.95
-316.32
-370.15
-413.16
-435.15
-429.41
-396.13
-342.89
-281.99
-226.00
-183.68
-158.09
-147.01
-145.35
-147.73
-150.46
-152.25
-153.63
-155.79
-159.15
-162.57
-163.29
-158.04
-144.58
-122.76
-94.85
-64.48
-35.11
-8.51
15.59
38.72
62.23
86.23
109.60
130.85
149.44
166.42
183.93
203.66
225.19
245.26
258.67
260.41
248.11
223.37
191.19
157.96
128.91
106.35
89.55
75.94
62.94
49.30
35.48
23.10
13.92
9.07
8.67
12.11
18.28
25.94
33.79
40.54
45.00
46.24
43.95
38.52
31.17
23.60
17.57
14.35
14.36
17.08
21.30
25.57
28.71
30.12
29.97
29.01
28.27
28.58
30.35
33.25
36.36
38.35
37.90
34.17
27.03
17.20
5.88
-5.57
-16.09
-25.22
-33.04
-39.90
-46.09
-51.59
-56.01
-58.83
-59.71
-58.71
-56.34
-53.42
-50.74
-48.72
-47.17
-45.34
-42.14
-36.53
-27.91
-16.36
-2.67
11.92
26.07
38.76
49.50
58.40
66.04
73.22
80.72
89.12
98.69
109.39
120.75
131.93
141.70
148.65
151.44
149.14
141.40
128.41
110.64
88.51
62.33
32.42
-0.39
-34.58
-67.88
-97.79
-122.29
-140.38
-152.30
-159.06
-161.88
-161.56
-158.49
-153.05
-146.05
-138.87
-133.14
-129.93
-129.23
-129.84
-129.87
-127.67
-122.51
-114.81
-105.73
-96.52
-87.87
-79.65
-71.22
-61.83
-51.09
-39.15
-26.60
-14.25
-2.91
6.84
14.71
20.62
24.79
27.71
30.05
32.67
36.28
41.28
47.51
54.31
60.63
65.48
68.19
68.65
67.27
64.76
61.86
59.03
56.43
53.90
51.11
47.67
43.33
37.99
31.74
24.90
17.96
11.51
6.08
2.10
-0.35
-1.38
-1.29
-0.47
0.76
2.08
3.19
3.87
4.05
3.82
3.46
3.29
3.48
3.94
4.40
4.55
4.31
3.91
3.83
4.62
6.61
9.79
13.74
17.73
20.88
22.35
21.56
18.32
12.96
6.24
-0.86
-7.34
-12.50
-16.05
-18.08
-18.89
-18.81
-18.13
-16.98
-15.46
-13.56
-11.28
-8.59
-5.51
-2.12
1.40
4.83
7.93
10.56
12.72
14.47
15.97
17.39
19.02
21.23
24.53
29.43
36.18
44.63
54.05
63.38
71.37
77.08
80.05
80.55
79.36
77.46
75.68
74.49
73.92
73.75
73.65
73.35
72.49
70.67
67.17
61.34
52.72
41.41
28.07
13.75
-0.52
-14.04
-26.43
-37.50
-47.11
-55.22
-62.05
-68.26
-74.81
-82.44
-91.11
-99.75
-106.57
-109.74
-108.19
-101.91
-91.77
-78.95
-64.26
-47.96
-29.85
-9.81
11.78
33.94
55.24
74.31
90.14
102.33
110.88
115.91
117.31
114.77
107.91
96.65
81.46
63.34
43.50
22.96
2.28
-18.43
-39.28
-60.21
-80.71
-99.79
-116.18
-128.71
-136.67
-140.15
-139.95
-137.44
-134.12
-131.29
-129.71
-129.55
-130.41
-131.38
-131.48
-129.89
-126.29
-121.03
-114.99
-109.31
-104.95
-102.38
-101.47
-101.57
-101.70
-100.70
-97.39
-90.66
-79.64
-63.90
-43.68
-19.97
5.59
31.09
54.71
75.14
91.75
104.63
114.35
121.68
127.29
131.60
134.72
136.64
137.22
136.50
134.65
132.07
129.31
126.91
125.22
124.28
123.66
122.50
119.72
114.30
105.52
93.28
78.03
60.75
42.67
25.08
9.10
-4.41
-14.98
-22.60
-27.72
-31.15
-33.89
-36.84
-40.59
-45.33
-50.91
-56.96
-62.93
-68.19
-72.11
-74.28
-74.73
-74.04
-73.20
-73.22
-74.71
-77.56
-81.00
-83.98
-85.51
-84.86
-81.57
-75.26
-65.62
-52.54
-36.33
-17.93
1.10
18.95
33.92
44.87
51.46
54.18
54.11
52.67
51.18
50.59
51.20
52.69
54.26
54.89
53.73
50.28
44.52
36.89
28.08
18.84
9.80
1.41
-6.12
-12.72
-18.36
-22.99
-26.51
-28.82
-29.92
-29.88
-28.87
-27.07
-24.69
-21.81
-18.47
-14.68
-10.54
-6.24
-2.06
1.62
4.54
6.61
7.93
8.73
9.26
9.63
9.79
9.54
8.62
6.89
4.41
1.42
-1.64
-4.35
-6.46
-8.00
-9.25
-10.66
-12.64
-15.44
-19.13
-23.65
-28.80
-34.20
-39.19
-42.90
-44.39
-43.08
-39.04
-33.05
-26.40
-20.40
-16.00
-13.59
-13.06
-14.04
-16.07
-18.61
-20.97
-22.20
-21.19
-16.86
-8.54
3.74
19.23
36.50
53.71
68.94
80.51
87.27
88.75
85.26
77.70
67.35
55.50
43.22
31.11
19.33
7.79
-3.66
-15.10
-26.58
-38.21
-50.18
-62.60
-75.28
-87.52
-98.32
-106.70
-112.17
-114.96
-115.86
-115.77
-115.22
-114.19
-112.28
-109.26
-105.49
-102.06
-100.63
-103.01
-110.77
-124.93
-145.68
-172.04
-201.41
-229.64
-251.47
-261.73
-256.67
-235.10
-198.43
-149.85
-93.11
-31.58
31.86
94.09
151.17
198.48
231.86
249.31
252.26
245.37
235.16
227.86
227.63
235.83
251.48
272.10
294.62
315.76
332.24
341.12
340.38
329.20
308.02
277.91
240.16
196.14
147.82
98.26
51.62
12.28
-16.46
-33.60
-40.68
-41.13
-38.99
-37.71
-39.61
-45.76
-56.24
-70.27
-86.23
-101.79
-114.38
-121.94
-123.58
-120.01
-113.41
-106.83
-103.32
-104.89
-111.85
-122.54
-133.84
-142.21
-145.00
-141.35
-132.37
-120.68
-109.23
-100.25
-94.71
-92.24
-91.75
-92.01
-92.10
-91.46
-89.89
-87.30
-83.93
-80.53
-78.43
-79.31
-84.61
-94.84
-109.14
-125.48
-141.19
-153.93
-162.19
-165.46
-163.82
-157.31
-145.54
-127.82
-103.64
-73.42
-38.90
-3.32
29.08
53.68
66.47
65.09
49.63
23.11
-8.76
-38.74
-59.82
-67.22
-59.91
-40.89
-16.33
6.16
19.39
18.23
0.62
-31.74
-73.41
-116.08
-150.31
-168.11
-165.23
-142.36
-104.57
-59.03
-12.45
30.83
69.14
102.68
132.18
158.08
180.67
200.46
218.53
236.12
253.93
271.68
288.41
303.04
314.73
322.62
325.32
320.62
306.04
280.25
244.66
203.67
163.81
131.42
110.26
100.44
99.15
101.79
103.69
101.50
94.04
82.69
70.86
62.17
58.49
58.95
58.91
51.37
30.46
-4.85
-49.01
-91.61
-122.32
-136.51
-137.05
-134.27
-141.00
-165.74
-207.55
-255.85
-295.32
-313.33
-305.47
-274.44
-228.73
-177.40
-126.34
-76.66
-26.33
26.39
80.74
133.84
185.94
239.43
297.69
361.84
428.85
491.22
539.12
563.84
544.26
473.13
360.81
232.47
115.03
24.73
-36.41
-75.15
-100.22
-118.40
-130.52
-135.65
-133.45
-125.66
-114.89
-104.08
-95.50
-90.47
-89.80
-91.46
-93.48
-94.87
-96.73
-101.10
-110.73
-127.78
-151.43
-180.27
-211.04
-240.92
-267.15
-290.19
-306.13
-310.74
-301.25
-278.45
-248.16
-218.97
-200.49
-199.03
-215.25
-243.41
-274.49
-299.02
-309.90
-304.26
-278.45
-234.74
-178.93
-118.72
-61.41
-13.31
22.09
44.54
56.40
62.05
66.63
75.71
93.87
122.95
159.73
195.78
218.91
216.81
182.31
116.84
31.93
-54.27
-123.43
-163.96
-174.14
-161.34
-137.21
-111.96
-91.07
-74.74
-60.46
-46.23
-32.22
-19.54
-9.26
-0.90
8.23
21.38
41.00
67.32
97.90
128.82
157.55
182.89
205.32
226.78
249.20
273.70
299.93
326.26
351.97
379.68
412.31
450.91
492.87
531.12
556.47
561.01
540.57
497.44
440.38
378.11
316.61
258.84
206.49
162.55
131.45
116.03
99.63
68.25
11.42
-72.07
-173.30
-278.10
-372.90
-443.13
-490.83
-521.20
-537.09
-540.77
-533.70
-516.92
-493.20
-464.88
-434.14
-404.02
-375.55
-347.11
-317.18
-284.73
-249.53
-212.32
-174.20
-136.52
-101.40
-69.61
-40.25
-12.44
14.46
40.76
66.21
90.53
113.68
135.63
157.49
180.84
206.11
231.83
254.69
270.55
276.03
269.90
253.15
229.11
201.98
175.40
151.71
132.00
116.56
105.26
97.71
93.02
90.04
87.40
83.90
78.89
72.33
64.73
56.77
49.05
41.72
34.63
27.41
19.79
11.82
3.88
-3.41
-9.57
-14.37
-17.99
-20.90
-23.54
-26.26
-29.08
-31.78
-34.01
-35.46
-35.98
-35.63
-34.71
-33.64
-32.86
-32.68
-33.15
-34.12
-35.19
-35.95
-35.99
-35.11
-33.23
-30.51
-27.22
-23.77
-20.54
-17.88
-15.99
-14.87
-14.40
-14.32
-14.38
-14.35
-14.14
-13.74
-13.22
-12.75
-12.49
-12.57
-12.94
-13.35
-13.41
-12.68
-10.97
-8.39
-5.47
-2.83
-1.08
-0.46
-0.95
-2.25
-4.05
-6.16
-8.49
-10.96
-13.38
-15.39
-16.54
-16.55
-15.40
-13.40
-11.10
-9.04
-7.60
-6.86
-6.66
-6.73
-6.77
-6.63
-6.14
-5.12
-3.30
-0.38
3.85
9.25
15.26
20.99
25.34
27.39
26.57
22.95
17.15
10.17
3.11
-3.15
-8.09
-11.69
-14.22
-16.09
-17.62
-18.93
-19.91
-20.34
-19.96
-18.62
-16.42
-13.58
-10.49
-7.52
-4.90
-2.71
-0.86
0.70
1.99
2.92
3.43
3.54
3.39
3.15
2.84
2.32
1.31
-0.33
-2.48
-4.76
-6.65
-7.81
-8.13
-7.86
-7.30
-6.76
-6.41
-6.30
-6.50
-7.04
-7.95
-9.11
-10.33
-11.34
-11.90
-11.86
-11.17
-9.87
-8.03
-5.78
-3.25
-0.62
1.92
4.25
6.23
7.76
8.73
9.11
8.93
8.36
7.62
6.96
6.56
6.47
6.66
6.99
7.27
7.35
7.07
6.42
5.52
4.59
3.86
3.48
3.42
3.49
3.43
3.02
2.18
0.93
-0.56
-2.15
-3.64
-4.86
-5.63
-5.81
-5.37
-4.40
-3.07
-1.66
-0.47
0.30
0.58
0.39
-0.11
-0.80
-1.54
-2.25
-2.87
-3.40
-3.81
-4.08
-4.20
-4.18
-4.03
-3.72
-3.21
-2.47
-1.58
-0.72
-0.10
0.08
-0.20
-0.77
-1.36
-1.74
-1.86
-1.86
-1.96
-2.35
-3.11
-4.12
-5.10
-5.69
-5.63
-4.76
-3.11
-0.82
1.89
4.76
7.56
10.27
12.92
15.55
18.09
20.52
22.74
24.77
26.66
28.48
30.68
33.55
37.11
41.02
44.79
47.98
50.42
52.27
53.79
56.06
59.83
65.26
71.81
78.60
84.77
89.91
94.02
97.31
101.31
107.15
115.15
124.59
134.14
142.44
148.70
152.80
155.06
157.82
163.09
171.79
183.22
195.25
205.28
211.30
212.64
199.18
166.02
113.79
49.29
-17.37
-77.36
-126.02
-162.60
-188.53
-205.92
-215.15
-216.74
-211.92
-202.80
-191.92
-181.48
-172.66
-165.68
-160.31
-154.75
-147.64
-138.46
-127.74
-116.64
-106.39
-97.76
-90.94
-85.83
-81.24
-76.17
-70.04
-62.88
-55.21
-47.65
-40.66
-34.44
-29.04
-23.92
-18.53
-12.58
-6.10
0.47
6.46
11.23
14.65
16.32
16.45
15.35
13.33
10.58
7.20
3.35
-0.73
-4.66
-8.09
-10.69
-12.31
-12.99
-12.98
-12.51
-11.81
-10.97
-9.99
-8.87
-7.66
-6.46
-5.33
-4.03
-2.06
1.15
5.84
11.59
17.37
21.96
24.51
24.90
23.83
22.36
21.46
21.56
22.56
24.25
26.64
30.10
34.94
41.14
48.04
54.25
58.68
60.04
57.44
50.93
41.52
30.81
20.42
11.44
4.07
-2.57
-9.80
-19.22
-31.73
-46.87
-62.82
-76.88
-86.51
-90.24
-88.74
-83.86
-78.71
-75.97
-76.80
-80.43
-84.07
-83.88
-76.48
-61.10
-38.80
-13.94
7.22
18.45
14.97
-4.18
-35.76
-74.53
-116.35
-148.62
-160.00
-146.07
-112.73
-72.28
-33.68
-4.15
20.79
43.33
62.65
73.82
70.46
49.69
10.22
-43.80
-102.21
-153.24
-187.37
-197.72
-183.75
-150.97
-99.81
-40.35
5.73
35.90
57.98
78.00
100.67
127.28
156.40
185.01
207.94
221.12
218.58
195.42
153.21
103.01
57.97
26.21
8.55
-0.20
-5.14
-7.48
-6.26
-0.38
10.07
22.38
32.42
37.00
34.73
27.50
19.77
15.89
18.04
25.94
37.08
48.10
56.42
60.62
61.18
60.01
59.13
59.99
62.47
65.39
67.04
66.07
61.74
54.39
45.28
36.32
29.54
25.93
25.87
28.84
33.63
38.57
42.15
43.47
42.65
41.04
39.56
39.40
40.85
43.21
44.70
42.98
35.17
17.60
-7.34
-38.98
-74.75
-109.58
-136.19
-147.29
-138.53
-111.10
-72.39
-33.16
-4.62
6.37
-1.62
-25.57
-60.45
-101.32
-143.91
-184.61
-218.28
-239.06
-241.63
-224.63
-192.10
-152.34
-114.98
-87.40
-73.79
-72.33
-76.93
-80.18
-77.46
-68.11
-54.28
-38.96
-24.35
-13.64
-7.69
-5.07
-3.58
-2.58
-2.87
-5.28
-10.40
-19.32
-37.44
-69.21
-114.72
-168.77
-222.95
-267.22
-292.52
-293.93
-252.79
-171.51
-74.56
8.45
62.08
86.19
87.39
72.98
50.34
25.46
1.57
-16.83
-24.47
-18.39
-0.20
25.63
53.98
81.44
