1515719478.00
64.000000
-0.00
-0.00
-0.00
-0.00
-0.00
-0.00
-0.00
-0.00
-0.00
-0.00
0.00
0.01
0.01
-0.00
-0.03
-0.05
-0.05
0.00
0.13
0.36
0.66
1.01
1.37
1.72
2.06
2.40
2.79
3.24
3.80
4.42
5.06
5.66
6.20
6.68
7.15
7.68
8.31
9.14
10.09
11.04
11.88
12.56
13.14
13.76
14.65
15.96
17.91
20.32
22.90
25.38
27.58
29.57
31.68
34.32
37.81
42.54
48.15
54.10
59.83
64.97
69.58
74.14
79.34
85.71
93.76
103.00
112.62
121.73
129.77
136.75
143.30
150.75
157.77
166.64
177.95
191.79
206.97
220.57
228.25
225.36
208.53
176.87
132.76
80.05
23.07
-34.94
-92.44
-149.16
-205.23
-260.37
-313.74
-363.87
-409.83
-450.91
-486.50
-515.74
-537.23
-549.22
-549.96
-538.37
-514.21
-478.67
-433.88
-382.45
-327.02
-269.84
-212.63
-156.66
-102.95
-52.37
-5.90
35.58
71.43
101.35
125.50
144.38
158.69
169.15
176.37
180.75
182.57
182.07
179.51
175.23
169.65
163.18
156.15
148.81
141.30
133.69
126.02
118.33
110.69
103.16
95.80
88.68
81.83
75.25
68.95
62.95
57.25
51.86
46.78
42.03
37.59
33.45
29.61
26.07
22.81
19.83
17.11
14.67
12.48
10.54
8.83
7.35
6.07
4.97
4.05
3.27
2.62
2.09
1.65
1.30
1.01
0.79
0.61
0.47
0.37
0.29
0.23
0.19
0.16
0.15
0.14
0.15
0.17
0.19
0.21
0.24
0.27
0.32
0.38
0.44
0.50
0.53
0.53
0.50
0.44
0.38
0.35
0.38
0.45
0.55
0.64
0.70
0.72
0.72
0.73
0.80
0.94
1.16
1.41
1.63
1.78
1.84
1.86
1.91
2.09
2.45
2.98
3.55
4.03
4.29
4.30
4.14
4.02
4.19
4.76
5.70
6.77
7.62
7.99
7.80
7.25
6.75
6.74
7.48
8.87
10.45
11.57
11.65
10.46
8.18
5.31
2.41
-0.22
-2.67
-5.36
-8.89
-13.64
-19.83
-27.51
-36.44
-45.92
-54.47
-59.94
-60.05
-53.47
-40.64
-24.04
-7.38
5.85
13.76
16.59
16.17
14.74
13.71
13.26
12.80
11.71
10.05
8.47
7.79
8.29
9.55
10.68
10.78
9.55
7.40
5.23
3.92
3.79
4.55
5.49
5.88
5.38
4.16
2.68
1.53
0.98
1.02
1.41
1.83
2.09
2.11
1.96
1.63
1.08
0.24
-0.89
-2.04
-2.84
-2.83
-1.75
0.32
2.93
5.36
6.98
7.43
6.81
5.47
3.88
2.27
0.85
-0.32
-1.21
-1.82
-2.14
-2.12
-1.76
-1.14
-0.41
0.18
0.33
-0.17
-1.35
-2.96
-4.48
-5.36
-5.16
-3.79
-1.56
0.83
2.57
3.10
2.24
0.34
-1.90
-3.71
-4.57
-4.32
-3.25
-1.88
-0.78
-0.34
-0.77
-2.07
-4.05
-6.35
-8.37
-9.43
-8.95
-6.72
-3.05
1.27
5.22
7.94
9.05
8.64
7.21
5.36
3.66
2.48
2.03
2.23
2.79
3.18
2.89
1.69
-0.24
-2.36
-4.11
-5.22
-5.92
-6.76
-8.35
-11.00
-14.66
-19.09
-23.91
-28.65
-32.47
-34.13
-32.18
-25.58
-14.32
0.30
15.97
30.21
41.17
48.16
51.50
51.98
50.32
46.84
41.52
34.31
25.42
15.44
5.28
-3.98
-11.42
-16.46
-19.06
-19.65
-18.88
-17.41
-15.63
-13.70
-11.61
-9.39
-7.24
-5.44
-4.21
-3.55
-3.23
-2.90
-2.36
-1.59
-0.90
-0.60
-0.92
-1.79
-2.86
-3.68
-3.90
-3.48
-2.62
-1.75
-1.19
-1.15
-1.61
-2.42
-3.33
-4.09
-4.51
-4.51
-4.13
-3.63
-3.29
-3.38
-3.97
-4.86
-5.68
-6.04
-5.81
-5.21
-4.73
-4.80
-5.51
-6.42
-6.80
-6.01
-3.82
-0.63
2.76
5.54
7.23
7.81
7.55
6.76
5.63
4.26
2.77
1.50
0.89
1.32
2.75
4.70
6.39
7.12
6.63
5.21
3.51
2.23
1.71
1.84
2.25
2.55
2.53
2.24
1.90
1.68
1.64
1.72
1.82
1.92
2.02
2.14
2.27
2.38
2.44
2.45
2.55
2.94
3.77
4.90
5.95
6.50
6.39
5.97
6.06
7.67
11.46
17.14
23.39
28.31
30.34
29.05
25.61
22.32
21.72
25.74
34.67
46.97
59.86
70.35
76.07
75.60
67.99
52.81
30.78
3.94
-23.99
-48.13
-64.23
-71.12
-71.80
-72.46
-78.57
-90.33
-102.74
-108.32
-100.59
-77.33
-40.97
3.98
53.26
104.67
158.30
211.62
257.40
286.43
291.71
272.18
233.66
185.33
136.00
92.86
57.98
28.93
2.81
-21.65
-44.02
-57.25
-55.74
-50.32
-49.26
-53.32
-63.91
-80.98
-103.04
-128.09
-154.43
-182.11
-211.96
-242.75
-273.54
-304.53
-335.64
-366.06
-393.56
-414.04
-422.82
-415.56
-388.50
-342.04
-281.61
-215.04
-150.15
-92.55
-44.66
-6.64
23.02
48.02
72.44
99.71
131.86
167.93
203.37
231.44
245.79
243.28
225.76
198.39
167.07
136.85
111.53
94.50
88.90
96.35
115.18
139.79
162.20
175.92
179.60
177.56
176.54
180.52
187.42
190.20
181.43
158.40
125.07
89.83
60.72
41.32
29.60
19.97
6.84
-12.42
-36.72
-62.30
-84.79
-101.22
-111.26
-116.88
-121.09
-126.08
-131.73
-135.25
-132.59
-120.86
-100.47
-75.43
-51.72
-34.30
-24.77
-20.85
-17.90
-11.40
0.93
18.37
37.92
55.83
69.05
75.97
76.50
71.33
61.33
47.09
28.99
7.57
-16.02
-39.72
-60.78
-76.35
-84.44
-84.51
-77.67
-66.22
-52.81
-39.61
-27.81
-17.67
-8.95
-1.52
4.41
8.24
9.36
7.63
3.59
-1.53
-6.22
-9.21
-9.85
-8.25
-5.17
-1.76
0.90
1.88
0.60
-3.06
-8.84
-16.25
-24.89
-34.68
-45.93
-58.97
-73.75
-89.52
-104.96
-118.75
-129.98
-138.46
-144.46
-148.32
-150.47
-151.73
-153.66
-158.34
-167.44
-180.82
-195.72
-207.15
-209.55
-198.98
-174.64
-138.99
-96.44
-51.64
-8.00
32.90
71.02
107.40
143.89
183.07
227.82
280.22
339.72
401.83
458.05
497.75
511.37
493.85
446.79
378.30
300.71
226.89
166.68
124.59
99.62
86.81
79.82
73.37
64.56
52.91
39.38
25.13
10.82
-3.30
-16.74
-28.28
-36.35
-39.88
-39.08
-35.70
-32.24
-30.94
-32.87
-37.61
-43.84
-49.96
-54.89
-58.19
-60.10
-61.20
-62.27
-63.94
-66.57
-70.03
-73.60
-76.26
-76.96
-75.08
-70.79
-64.92
-58.57
-52.63
-47.44
-42.70
-37.89
-32.56
-26.71
-20.69
-15.09
-10.43
-6.95
-4.56
-2.91
-1.64
-0.59
0.16
0.26
-0.57
-2.45
-5.15
-8.19
-11.00
-13.15
-14.40
-14.78
-14.45
-13.56
-12.32
-10.94
-9.75
-9.01
-8.82
-8.94
-8.93
-8.31
-6.78
-4.45
-1.79
0.58
2.13
2.62
2.18
1.20
0.09
-0.81
-1.40
-1.65
-1.63
-1.33
-0.73
0.16
1.27
2.40
3.35
3.91
4.01
3.68
3.06
2.29
1.45
0.60
-0.26
-1.05
-1.64
-1.85
-1.57
-0.82
0.24
1.33
2.18
2.64
2.78
2.76
2.76
2.82
2.76
2.28
1.06
-1.00
-3.73
-6.60
-8.94
-10.03
-9.50
-7.40
-4.29
-0.96
1.82
3.55
4.13
3.79
2.92
1.89
1.00
0.40
0.11
0.16
0.47
0.94
1.47
1.96
2.38
2.72
3.02
3.27
3.48
3.61
3.64
3.57
3.41
3.12
2.68
2.11
1.47
0.87
0.43
0.24
0.23
0.23
-0.01
-0.68
-1.75
-3.00
-4.05
-4.55
-4.30
-3.41
-2.25
-1.31
-1.08
-1.79
-3.38
-5.44
-7.39
-8.65
-8.84
-7.91
-6.11
-3.86
-1.59
0.41
1.94
2.96
3.47
3.59
3.48
3.29
3.15
3.14
3.30
3.68
4.33
5.21
6.07
6.52
6.17
4.80
2.66
0.39
-1.25
-1.65
-0.75
1.02
2.90
4.17
4.48
3.91
2.81
1.57
0.40
-0.78
-2.13
-3.70
-5.27
-6.40
-6.63
-5.82
-4.26
-2.60
-1.56
-1.53
-2.56
-4.30
-6.23
-7.91
-9.02
-9.40
-8.93
-7.52
-5.22
-2.27
0.85
3.50
5.19
5.67
5.07
3.83
2.48
1.41
0.76
0.42
0.19
-0.09
-0.43
-0.81
-1.18
-1.64
-2.30
-3.27
-4.47
-5.70
-6.67
-7.17
-7.18
-6.88
-6.51
-6.29
-6.37
-6.70
-7.13
-7.40
-7.33
-6.92
-6.38
-6.07
-6.32
-7.22
-8.55
-9.87
-10.81
-11.31
-11.77
-12.75
-14.75
-17.94
-22.12
-26.84
-31.63
-36.09
-39.93
-42.85
-44.52
-44.74
-43.45
-40.91
-37.68
-34.41
-31.81
-30.39
-30.31
-31.13
-31.70
-30.11
-24.14
-12.07
6.73
31.40
59.99
90.30
120.80
151.04
181.41
212.44
244.32
276.84
309.55
341.79
372.32
398.81
417.79
425.35
418.57
396.63
361.23
315.65
263.33
206.57
146.38
83.20
17.73
-48.40
-113.13
-174.79
-232.84
-288.06
-342.40
-398.43
-458.43
-523.08
-590.01
-653.16
-703.59
-731.94
-731.88
-702.73
-649.95
-583.07
-512.03
-443.81
-380.91
-322.11
-264.66
-206.58
-147.85
-90.14
-35.61
14.40
60.03
102.38
142.67
181.38
218.01
251.75
282.29
310.30
336.70
361.27
381.59
393.29
391.85
375.30
346.16
310.99
277.83
252.90
238.17
231.37
228.26
225.78
224.32
227.67
240.72
266.17
302.02
341.49
375.27
395.34
397.95
384.73
361.19
333.64
306.12
279.00
249.75
215.05
173.14
124.97
73.71
22.98
-24.93
-69.91
-113.76
-159.52
-210.22
-267.86
-333.25
-405.66
-482.46
-558.71
-627.01
-678.24
-704.41
-701.69
-672.53
-625.68
-573.16
-525.74
-489.07
-461.75
-436.63
-405.70
-364.07
-311.26
-250.42
-185.46
-118.56
-50.15
21.36
99.22
184.60
275.88
369.61
460.84
543.22
609.68
652.04
665.33
651.99
617.26
567.35
509.00
447.51
386.22
327.19
269.80
214.86
168.54
133.48
107.31
86.02
65.13
40.77
10.20
-31.72
-87.28
-149.68
-212.14
-268.59
-311.19
-333.09
-331.07
-285.69
-195.33
-105.18
-35.48
15.05
45.04
55.08
47.71
27.37
-0.36
-32.89
-66.99
-93.69
-108.28
-110.96
-103.06
-87.69
-69.68
-54.63
-49.63
-57.55
-72.20
-87.58
-101.66
-115.42
-132.42
-155.81
-185.07
-216.76
-244.69
-261.50
-266.52
-265.67
-265.61
-269.03
-272.29
-267.25
-246.94
-209.29
-157.94
-102.71
-55.45
-24.33
-11.23
-12.31
-20.72
-30.35
-37.99
-43.43
-48.72
-55.94
-64.88
-73.05
-77.51
-77.04
-73.22
-69.39
-68.34
-70.45
-73.62
-74.96
-72.94
-68.18
-62.55
-57.35
-52.35
-46.37
-38.82
-30.79
-24.49
-21.47
-20.98
-20.16
-15.90
-7.23
3.71
12.78
16.21
13.05
5.61
-1.82
-5.12
-2.25
6.33
18.42
31.69
44.80
57.89
72.20
89.36
110.67
136.49
166.19
198.19
230.28
259.98
285.07
303.86
315.22
318.38
312.83
298.40
275.58
246.27
214.09
183.87
160.33
146.29
141.21
141.24
140.84
135.68
124.93
111.67
101.37
98.92
106.37
122.62
144.98
171.00
199.24
228.32
255.40
275.46
282.74
273.65
249.18
215.00
178.92
146.93
120.32
95.51
66.95
31.01
-11.33
-54.41
-90.16
-111.80
-116.71
-107.45
-90.67
-74.61
-66.40
-69.76
-83.99
-104.26
-123.39
-134.47
-133.69
-121.98
-104.55
-88.32
-78.18
-74.42
-72.67
-66.94
-53.56
-34.09
-15.03
-4.64
-8.82
-28.43
-59.35
-94.71
-127.60
-152.51
-165.68
-164.81
-149.33
-121.25
-85.72
-50.42
-23.31
-9.68
-10.05
-20.04
-32.29
-39.34
-36.35
-22.35
-0.29
24.27
45.04
56.99
57.92
49.21
35.16
21.36
12.68
11.83
18.99
32.33
49.13
66.50
81.58
91.77
94.75
89.28
76.02
57.98
39.78
25.87
18.51
16.62
16.18
12.16
1.01
-17.61
-40.74
-63.63
-81.94
-93.48
-98.64
-99.51
-98.44
-96.87
-95.38
-94.42
-95.02
-98.63
-105.98
-115.58
-123.25
-123.40
-111.63
-87.43
-55.21
-22.61
2.99
17.93
23.61
25.01
27.23
32.56
39.48
44.20
43.39
36.23
24.61
11.69
0.14
-8.87
-15.28
-19.22
-20.48
-18.71
-14.30
-8.68
-3.99
-1.93
-2.92
-5.97
-9.40
-11.84
-12.65
-11.90
-9.85
-6.75
-3.13
-0.13
0.43
-3.22
-11.72
-23.72
-36.22
-45.73
-49.88
-48.42
-42.97
-35.97
-29.41
-24.36
-21.06
-19.62
-20.24
-22.94
-27.04
-30.84
-32.16
-29.15
-21.37
-10.11
2.03
12.20
18.42
20.09
17.97
13.29
6.69
-2.64
-17.06
-39.55
-71.95
-113.20
-158.54
-200.30
-230.27
-242.61
-235.96
-213.86
-183.39
-152.56
-127.73
-111.99
-104.85
-103.21
-102.78
-99.77
-91.59
-77.04
-55.92
-28.55
4.19
40.72
78.30
113.41
142.46
163.04
174.60
178.42
176.88
172.11
165.31
156.44
144.75
129.40
110.25
88.14
65.05
43.75
27.13
17.46
15.81
22.08
35.47
54.98
79.57
107.82
137.32
164.48
185.27
196.48
197.06
188.61
174.69
159.16
144.73
132.22
120.86
109.48
97.36
84.67
72.06
60.00
48.48
37.20
26.02
15.24
5.51
-2.79
-10.04
-17.37
-26.02
-36.49
-48.01
-58.71
-66.59
-70.37
-70.13
-67.17
-63.28
-60.06
-58.39
-58.53
-60.40
-64.02
-69.49
-77.07
-86.77
-98.12
-110.17
-121.69
-131.65
-139.77
-146.74
-154.06
-163.34
-175.33
-188.96
-201.07
-206.86
-201.26
-180.64
-144.18
-94.38
-36.38
23.50
79.53
127.59
165.73
193.96
213.76
227.53
237.97
247.42
257.16
266.99
275.26
279.54
277.54
267.95
250.85
227.57
200.26
171.47
143.82
119.54
100.18
86.03
76.04
68.20
60.27
50.74
39.30
26.81
14.59
3.72
-5.68
-14.43
-23.83
-34.84
-47.35
-59.94
-70.16
-75.61
-75.01
-69.00
-60.10
-51.59
-46.15
-44.59
-45.59
-46.53
-44.93
-39.68
-31.51
-22.39
-14.45
-8.95
-5.84
-4.19
-2.90
-1.41
0.06
0.64
-0.63
-4.19
-9.79
-16.49
-23.16
-28.96
-33.81
-38.27
-43.13
-48.84
-55.05
-60.68
-64.37
-65.17
-62.96
-58.54
-53.15
-47.96
-43.64
-40.26
-37.47
-34.69
-31.35
-26.78
-20.45
-12.10
-2.09
8.36
17.36
23.01
24.27
21.54
16.82
13.07
13.15
18.92
30.66
47.19
66.21
84.99
100.72
110.99
114.02
109.10
96.87
79.28
59.07
38.82
20.11
3.23
-12.45
-27.59
-42.14
-55.14
-65.24
-71.38
-73.62
-73.00
-71.00
-68.85
-67.08
-65.61
-64.24
-63.08
-62.48
-62.63
-63.15
-63.03
-60.99
-56.08
-48.35
-38.88
-29.64
-22.63
-19.36
-20.23
-24.54
-30.78
-37.18
-42.28
-45.18
-45.67
-43.89
-40.11
-34.56
-27.56
-19.70
-11.98
-5.70
-1.90
-0.91
-2.06
-3.87
-4.66
-3.28
0.43
5.61
10.83
14.74
16.61
16.50
15.08
13.21
11.51
10.23
9.14
7.81
5.83
3.07
-0.22
-3.53
-6.22
-7.74
-7.80
-6.39
-3.77
-0.43
2.92
5.46
6.44
5.46
2.70
-1.11
-4.85
-7.52
-8.52
-7.86
-6.00
-3.55
-1.06
1.15
2.87
3.98
4.38
4.13
3.37
2.39
1.44
0.62
-0.06
-0.73
-1.33
-1.73
-1.63
-0.81
0.70
2.56
4.19
5.03
4.88
4.02
3.08
2.67
2.96
3.48
3.44
2.18
-0.33
-3.34
-5.67
-6.42
-5.40
-3.17
-0.77
0.89
1.34
0.66
-0.88
-2.96
-5.48
-8.49
-12.00
-15.96
-20.03
-23.75
-26.42
-27.45
-26.67
-24.65
-22.80
-22.85
-26.19
-33.12
-42.70
-53.20
-62.73
-69.66
-72.58
-70.11
-60.88
-44.13
-20.48
7.36
35.06
58.12
73.89
82.77
87.83
93.01
100.82
111.12
121.47
129.02
132.10
130.99
127.13
121.68
114.88
106.55
97.46
90.16
88.76
96.85
114.96
139.19
161.85
173.59
166.31
135.76
83.13
15.53
-54.81
-112.81
-144.31
-140.79
-102.97
-41.62
25.65
80.40
109.53
108.56
81.16
35.65
-19.00
-75.57
-129.02
-175.64
-212.56
-238.16
-252.85
-259.11
-260.30
-259.06
-255.82
-248.94
-236.12
-216.18
-189.66
-158.58
-125.34
-91.84
-59.59
-29.99
-4.65
15.14
29.07
38.39
45.59
53.19
62.35
72.00
79.13
80.10
72.48
56.43
35.12
13.93
-1.05
-4.64
6.41
33.30
75.83
133.14
203.85
285.32
372.48
457.34
530.01
581.13
604.83
600.56
572.86
529.13
476.73
420.93
364.34
307.90
252.14
197.83
145.89
96.58
49.08
1.90
-46.21
-95.47
-144.81
-192.27
-236.10
-275.62
-311.77
-346.99
-384.84
-429.07
-482.37
-544.78
-612.43
-677.60
-730.30
-761.44
-766.03
-744.99
-704.60
-653.75
-600.44
-549.29
-501.21
-454.81
-408.60
-362.33
-317.01
-273.93
-233.53
-194.90
-156.35
-116.23
-73.81
-29.59
15.08
58.94
101.51
143.17
184.59
225.88
265.78
301.83
331.19
351.99
364.02
368.52
366.93
359.93
347.56
330.27
310.00
290.41
275.86
269.35
270.82
276.46
280.08
275.09
256.68
222.93
175.53
119.92
64.43
18.65
-9.51
-16.26
-3.19
22.95
52.18
74.42
82.59
74.03
50.47
16.63
-20.76
-54.10
-76.90
-86.58
-85.93
-81.96
-83.03
-95.15
-120.17
-155.23
-194.15
-226.44
-242.46
-239.23
-222.01
-199.92
-179.56
-164.50
-156.84
-158.07
-168.35
-185.39
-204.87
-219.79
-223.35
-211.54
-186.13
-153.72
-122.44
-98.22
-83.13
-75.19
-69.31
-64.39
-58.20
-50.01
-40.24
-29.35
-17.08
-2.93
13.25
31.17
50.03
69.31
88.23
106.38
124.19
142.86
163.73
187.56
214.45
243.89
275.69
309.35
343.84
377.28
406.77
428.91
441.06
442.78
436.05
424.57
411.13
395.84
376.07
348.27
310.66
265.07
216.69
171.64
134.27
105.13
81.36
58.82
34.39
7.03
-22.66
-53.65
-85.32
-117.11
-147.50
-173.26
-190.10
-194.52
-185.74
-166.34
-141.20
-115.20
-91.37
-70.52
-52.47
-37.72
-28.12
-25.93
-31.96
-44.28
-58.67
-70.53
-76.97
-77.93
-75.47
-71.95
-68.44
-64.28
-57.86
-48.11
-35.67
-23.14
-14.38
-13.11
-21.29
-38.25
-60.88
-84.76
-105.80
-121.43
-131.08
-135.86
-138.26
-141.60
-149.58
-165.08
-188.49
-216.32
-241.40
-255.24
-251.91
-231.25
-199.53
-166.55
-140.96
-126.32
-120.43
-117.84
-113.73
-106.49
-97.75
-90.15
-84.80
-80.04
-72.31
-58.17
-36.21
-7.83
23.60
54.40
82.04
105.72
125.86
143.22
157.96
169.50
176.95
179.74
178.26
174.04
169.23
165.78
164.55
164.75
164.02
159.36
148.27
130.17
107.04
83.03
63.05
51.15
48.97
55.40
67.21
80.49
91.95
99.95
104.55
107.04
109.00
111.48
114.62
117.65
119.39
118.68
114.82
107.70
97.82
86.09
73.65
61.51
50.10
39.11
27.41
13.53
-3.68
-23.99
-45.49
-64.77
-77.98
-82.27
-76.82
-63.25
-44.84
-25.31
-7.53
7.21
18.89
28.06
34.78
38.53
38.57
34.78
28.14
20.48
13.64
8.56
4.98
1.81
-2.20
-7.92
-15.51
-24.48
-33.67
-41.39
-45.88
-46.09
-42.69
-38.38
-37.08
-41.99
-53.55
-68.67
-81.83
-87.83
-84.49
-73.85
-60.92
-50.97
-46.90
-48.10
-51.59
-54.16
-54.31
-52.75
-51.24
-50.96
-51.24
-49.87
-44.48
-34.49
-21.91
-10.91
-5.83
-8.88
-18.86
-31.57
-41.97
-46.61
-45.29
-40.72
-36.87
-36.91
-41.96
-51.08
-62.24
-73.28
-82.47
-88.68
-91.33
-90.60
-87.87
-85.42
-85.70
-89.98
-97.46
-105.31
-109.84
-108.29
-99.84
-85.89
-69.00
-51.75
-35.80
-21.79
-9.74
0.19
7.38
10.79
9.72
4.51
-3.16
-10.70
-15.59
-16.30
-12.75
-6.01
2.31
10.61
17.40
21.35
21.52
18.15
13.38
11.31
16.76
33.23
60.70
95.03
129.19
155.90
170.63
173.09
166.95
157.98
151.69
151.43
157.83
169.29
183.20
197.03
208.99
218.19
224.30
227.17
226.48
221.78
212.56
198.53
179.55
155.58
126.55
92.45
53.77
12.08
-29.50
-66.54
-94.29
-109.29
-110.77
-101.02
-84.63
-66.76
-51.34
-40.25
-33.50
-30.11
-28.82
-28.30
-27.05
-23.48
-16.74
-7.58
1.19
5.68
2.76
-7.96
-23.45
-38.51
-48.34
-50.95
-48.01
-43.69
-42.27
-46.09
-54.89
-66.61
-78.67
-88.97
-95.99
-98.52
-95.62
-87.06
-74.08
-59.64
-47.82
-42.38
-45.23
-55.53
-70.02
-84.36
-95.01
-100.37
-101.18
-99.70
-98.14
-97.43
-96.71
-93.94
-87.29
-76.37
-62.52
-48.06
-35.12
-24.68
-16.52
-9.88
-4.31
-0.03
2.40
2.62
1.02
-1.20
-2.31
-0.46
5.86
17.50
34.32
54.94
76.84
96.78
111.55
118.92
118.23
110.55
98.21
84.01
70.40
58.83
49.74
42.76
37.13
31.84
25.79
18.14
8.70
-1.83
-12.06
-20.67
-27.33
-33.12
-39.93
-49.08
-59.94
-69.70
-74.54
-71.88
-62.10
-48.62
-36.20
-28.43
-26.13
-27.45
-29.53
-30.29
-29.18
-26.67
-23.13
-18.17
-10.92
-0.99
10.83
22.72
32.75
39.70
43.29
43.82
41.51
36.45
28.87
19.52
9.57
0.01
-9.08
-18.52
-29.19
-40.88
-51.80
-59.06
-60.21
-54.62
-43.89
-31.12
-19.49
-11.15
-6.72
-5.62
-6.63
-8.38
-9.60
-9.24
-6.80
-2.45
2.76
7.34
9.97
10.21
8.69
6.65
5.17
4.59
4.62
4.98
6.03
8.67
13.61
20.29
26.72
30.23
29.12
23.89
17.20
12.51
11.99
15.29
19.77
22.18
20.68
15.91
10.53
7.62
9.08
14.73
22.83
31.02
37.57
41.74
43.62
43.65
42.31
40.25
38.39
37.99
40.15
45.30
52.62
60.25
65.87
67.31
63.22
53.20
37.90
18.92
-1.25
-19.64
-33.38
-40.63
-41.28
-36.99
-30.47
-24.33
-20.14
-18.29
-18.56
-20.86
-25.48
-32.76
-42.28
-52.47
-60.89
-65.36
-65.07
-61.11
-56.00
-52.28
-51.24
-52.23
-53.35
-52.60
-49.12
-43.57
-37.64
-33.22
-31.64
-33.38
-38.06
-44.51
-50.73
-53.95
-51.15
-40.16
-20.85
4.28
30.75
53.84
70.40
80.07
84.90
87.97
91.74
96.99
102.84
107.33
108.37
104.51
95.75
83.86
72.26
64.93
64.56
70.77
79.42
83.93
78.33
60.39
33.27
4.49
-17.10
-24.94
-16.99
4.21
33.30
64.12
90.97
109.08
114.96
107.12
86.96
58.83
28.91
3.05
-15.03
-24.22
-25.03
-18.08
-3.66
17.26
41.71
64.18
78.28
79.66
68.47
49.32
28.50
10.57
-3.21
-13.60
-20.55
-21.48
-12.57
7.64
35.23
61.21
75.65
73.04
55.28
30.23
6.46
-11.88
-27.30
-46.77
-77.08
-120.72
-174.64
-232.16
-286.26
-331.89
-366.51
-388.95
-398.22
-392.88
-371.73
-334.84
-284.40
-224.65
-161.07
-98.63
-39.86
15.87
71.39
129.25
189.14
246.51
293.62
322.41
327.90
310.30
274.61
228.14
177.65
127.38
78.70
31.13
-16.37
-64.88
-115.06
-167.96
-224.64
-284.90
-345.62
-400.32
-440.79
-459.97
-454.69
-426.13
-379.85
-323.78
-265.78
-211.35
-162.82
-120.22
-82.42
-47.87
-13.41
24.06
66.97
116.36
172.13
233.17
296.35
355.70
403.45
434.43
447.19
444.89
434.05
421.79
413.10
408.37
403.57
382.44
336.70
271.64
204.39
151.36
118.30
101.20
91.90
83.60
73.46
64.15
58.66
58.89
63.57
68.72
70.67
67.12
57.65
43.28
27.18
11.88
-2.61
-14.69
-26.29
-39.75
-56.69
-77.61
-101.87
-127.01
-150.60
-171.17
-188.86
-205.60
-223.29
-243.46
-267.38
-296.42
-331.55
-373.05
-419.28
-465.77
-505.64
-530.56
-533.70
-512.56
-469.84
-411.83
-345.93
-278.06
-211.91
-149.77
-93.23
-43.75
-2.17
32.22
61.94
90.29
119.60
149.80
178.36
201.89
217.91
226.13
228.39
227.59
226.24
225.53
225.20
223.92
220.10
212.55
201.03
186.41
170.61
156.16
145.48
139.83
138.47
138.38
134.55
121.08
92.75
47.06
-14.13
-83.97
-151.71
-205.26
-234.78
-235.61
-209.58
-164.13
-109.70
-56.43
-11.64
21.41
42.99
55.53
61.79
63.78
62.26
57.22
48.52
36.64
22.87
9.14
-2.80
-11.99
-18.38
-22.63
-25.54
-27.66
-29.33
-30.81
-32.54
-35.06
-38.75
-43.58
-49.16
-54.96
-60.76
-66.81
-73.78
-82.30
-92.59
-104.33
-116.70
-128.92
-140.65
-152.32
-164.86
-178.95
-194.23
-208.70
-219.06
-221.72
-214.46
-197.46
-173.57
-147.14
-122.09
-100.34
-80.89
-60.48
-35.03
-1.17
42.73
96.12
156.03
217.06
272.05
313.84
337.98
345.40
342.99
341.57
351.34
377.15
415.93
457.89
490.69
504.48
495.36
465.94
423.44
376.56
332.59
295.80
267.17
245.15
227.03
210.40
194.06
177.61
160.64
141.42
116.66
82.43
36.13
-21.67
-86.47
-150.83
-206.57
-247.34
-270.57
-278.16
-275.79
-271.18
-271.59
-281.27
-299.87
-322.47
-341.33
-348.97
-341.30
-319.26
-288.26
-255.90
-228.81
-210.07
-198.36
-189.09
-176.99
-158.94
-135.68
-111.66
-92.83
-83.46
-83.71
-89.10
-92.32
-86.58
-68.39
-38.50
-0.30
42.84
89.40
139.45
192.73
246.44
294.55
329.44
344.81
338.24
312.06
272.31
226.57
181.62
142.38
111.19
88.11
71.40
58.34
46.35
33.79
20.61
7.97
-2.60
-10.39
-15.82
-20.24
-25.04
-30.74
-36.77
-41.72
-44.25
-43.72
-40.54
-35.85
-31.06
-27.25
-24.92
-24.03
-24.14
-24.71
-25.20
-25.16
-24.31
-22.59
-20.18
-17.40
-14.59
-11.97
-9.68
-7.76
-6.36
-5.57
-5.41
-5.69
-5.97
-5.75
-4.68
-2.81
-0.56
1.45
2.71
2.95
2.19
0.68
-1.28
-3.44
-5.68
-7.93
-10.14
-12.22
-14.02
-15.37
-16.20
-16.58
-16.71
-16.78
-16.82
-16.66
-15.97
-14.50
-12.30
-9.70
-7.18
-5.09
-3.53
-2.27
-1.04
0.26
1.44
2.08
1.77
0.35
-1.86
-4.27
-6.17
-7.14
-7.12
-6.38
-5.33
-4.20
-3.01
-1.66
-0.09
1.51
2.78
3.38
3.23
2.58
1.91
1.62
1.81
2.29
2.67
2.63
2.05
1.00
-0.36
-1.88
-3.41
-4.83
-6.00
-6.75
-6.96
-6.54
-5.50
-3.93
-1.98
0.09
1.99
3.40
4.02
3.76
2.79
1.55
0.57
0.35
1.02
2.36
3.87
4.98
5.33
4.84
3.79
2.56
1.51
0.79
0.40
0.26
0.25
0.33
0.45
0.65
0.97
1.51
2.32
3.35
4.49
5.48
6.17
6.46
6.39
6.00
5.17
3.60
0.95
-2.99
-8.07
-13.64
-18.75
-22.43
-24.06
-23.49
-21.22
-18.14
-15.29
-13.54
-13.23
-14.06
-15.18
-15.56
-14.40
-11.54
-7.56
-3.44
-0.30
1.21
1.00
-0.48
-2.45
-4.13
-4.97
-4.79
-3.69
-1.99
-0.04
1.88
3.66
5.25
6.67
7.89
8.86
9.55
9.96
10.22
10.41
10.54
10.42
9.88
8.84
7.48
6.15
5.14
4.56
4.18
3.68
2.87
1.91
1.21
1.21
2.06
3.46
4.82
5.52
5.30
4.28
2.87
1.45
0.21
-0.90
-2.02
-3.13
-4.03
-4.32
-3.71
-2.10
0.28
2.90
5.17
6.60
6.95
6.26
4.85
3.04
1.20
-0.51
-2.08
-3.58
-5.12
-6.73
-8.32
-9.68
-10.64
-11.06
-10.88
-10.20
-9.18
-8.16
-7.52
-7.66
-8.83
-10.97
-13.62
-16.02
-17.39
-17.14
-15.25
-12.14
-8.55
-5.20
-2.57
-0.83
0.11
0.44
0.43
0.32
0.33
0.58
1.09
1.74
2.33
2.74
2.90
2.91
2.86
2.84
2.88
3.02
3.38
4.05
5.07
6.18
6.95
6.87
5.81
4.06
2.24
1.05
0.79
1.28
1.98
2.32
2.03
1.25
0.34
-0.49
-1.26
-2.26
-3.73
-5.66
-7.65
-9.12
-9.53
-8.63
-6.58
-3.74
-0.69
2.11
4.32
5.85
6.76
7.19
7.28
7.09
6.67
6.07
5.36
4.67
4.10
3.71
3.42
3.12
2.62
1.80
0.61
-0.88
-2.48
-3.97
-5.08
-5.57
-5.29
-4.30
-2.81
-1.21
0.08
0.75
0.70
-0.03
-1.20
-2.50
-3.64
-4.41
-4.72
-4.68
-4.53
-4.65
-5.32
-6.65
-8.34
-9.85
-10.53
-9.91
-7.97
-5.18
-2.27
-0.01
1.15
1.19
0.47
-0.40
-0.92
-0.81
-0.13
0.84
1.74
2.29
2.41
2.20
1.92
1.78
1.87
2.11
2.31
2.30
1.98
1.54
1.25
1.40
2.12
3.25
4.47
5.42
5.92
5.97
5.79
5.49
5.10
4.48
3.44
1.74
-0.81
-4.35
-8.96
-14.46
-20.38
-25.87
-29.91
-31.68
-30.87
-27.84
-23.48
-18.91
-14.96
-12.03
-10.17
-9.24
-9.21
-10.19
-12.40
-15.94
-20.83
-26.86
-33.64
-40.34
-45.50
-47.02
-42.53
-30.33
-10.17
16.03
44.64
71.39
92.84
107.51
116.02
120.37
122.75
124.63
126.53
128.48
130.50
132.93
136.25
140.65
145.81
151.03
155.69
159.66
163.46
167.94
173.75
180.99
188.99
196.47
201.86
203.47
199.76
189.61
172.61
149.35
121.40
90.87
59.92
30.05
1.80
-25.17
-51.81
-79.46
-109.64
-143.78
-182.75
-226.13
-271.55
-314.58
-349.55
-371.06
-375.70
-363.07
-335.82
-298.75
-257.27
-216.22
-178.93
-147.12
-121.05
-100.08
-83.20
-69.42
-58.22
-49.47
-43.22
-39.29
-37.02
-35.32
-33.02
-29.31
-23.99
-17.55
-10.75
-4.29
1.48
6.67
11.65
16.85
22.36
27.85
32.56
35.64
36.53
35.14
32.03
28.16
24.58
22.04
20.91
21.17
22.63
25.03
28.00
31.05
33.47
34.36
32.80
28.23
20.54
10.30
-1.38
-13.00
-23.01
-30.10
-33.48
-33.02
-29.29
-23.26
-16.07
-8.64
-1.51
5.20
11.56
17.55
22.89
27.09
29.49
29.62
27.38
23.07
17.34
10.88
4.29
-2.07
-7.94
-13.02
-16.89
-18.96
-18.80
-16.32
-12.11
-7.29
-3.23
-1.04
-1.25
-3.60
-7.33
-11.56
-15.68
-19.54
-23.30
-27.25
-31.39
-35.46
-38.89
-41.09
-41.67
-40.59
-38.15
-34.78
-30.93
-26.85
-22.66
-18.52
-14.92
-12.82
-13.50
-17.98
-26.38
-37.60
-49.43
-59.31
-65.20
-66.19
-62.63
-55.82
-47.53
-39.54
-33.28
-29.48
-28.06
-27.98
-27.56
-25.02
-19.28
-10.81
-1.98
3.33
1.00
-11.54
-33.61
-60.67
-85.35
-99.84
-99.06
-82.72
-55.60
-25.65
-0.89
13.37
15.74
8.31
-5.00
-20.05
-33.53
-43.43
-49.17
-51.63
-52.90
-55.49
-61.13
-69.66
-78.72
-84.61
-83.85
-74.37
-56.39
-32.14
-5.37
19.33
37.66
46.99
47.81
44.09
41.78
46.07
58.60
76.34
92.80
101.29
97.99
83.62
62.57
40.60
22.55
11.22
7.60
11.59
22.63
39.61
60.70
83.41
105.03
123.25
136.66
144.97
148.92
150.28
151.08
152.85
155.98
159.55
162.02
162.31
160.66
158.79
159.02
162.70
169.17
175.67
178.54
175.05
164.85
150.30
135.46
124.34
119.18
119.84
124.01
128.09
128.05
120.31
102.59
74.97
40.71
6.12
-20.98
-33.95
-30.36
-13.32
9.32
27.95
34.96
27.17
6.27
-22.90
-54.82
-85.16
-111.34
-132.09
-146.76
-155.04
-157.27
-154.72
-149.81
-145.56
-144.79
-149.44
-160.15
-176.24
-195.75
-215.68
-232.19
-241.29
-239.96
-227.46
-206.19
-181.08
-157.58
-138.93
-124.36
-109.13
-86.76
-52.37
-5.29
50.26
106.95
157.27
196.31
222.82
238.61
246.59
248.74
244.97
233.10
209.91
172.57
120.24
55.63
-14.33
-79.32
-128.64
-155.07
-158.30
-145.24
-126.86
-112.84
-107.22
-107.67
-108.48
-104.99
-96.15
-84.60
-73.99
-66.32
-61.30
-57.58
-54.65
-53.44
-55.42
-61.14
-69.87
-79.92
-89.54
-97.31
-101.26
-98.45
-85.50
-60.11
-22.47
24.55
76.95
131.59
186.90
242.11
295.35
342.46
377.49
394.74
391.56
370.36
338.34
305.15
279.67
266.98
266.94
275.24
285.78
293.35
295.15
290.75
281.17
267.71
251.45
233.15
213.61
193.23
171.89
148.59
121.81
90.49
54.83
16.64
-21.61
-57.98
-92.04
-125.13
-159.74
-198.58
-243.26
-293.28
-345.32
-393.08
-428.56
-444.42
-436.54
-406.06
-359.84
-308.87
-265.14
-238.01
-231.00
-240.49
-257.00
-268.26
-263.40
-236.15
-186.53
-120.45
-47.86
19.93
72.60
102.77
106.66
84.53
40.73
-16.37
-75.15
-122.90
-149.46
-151.30
-133.49
-108.60
-91.82
-94.05
-116.89
-151.97
-185.33
-204.86
-206.68
-196.38
-185.02
-182.13
-190.11
-203.10
-210.56
-203.00
-176.21
-132.18
-76.69
-15.68
47.16
110.82
174.91
237.71
295.49
343.92
380.60
406.80
426.94
446.17
467.13
488.14
503.80
507.47
494.27
463.12
416.89
361.01
301.80
244.91
194.33
151.70
115.86
82.52
44.73
-4.98
-71.39
-153.50
-243.12
-326.50
-388.63
-418.45
-412.46
-375.30
-317.62
-252.65
-192.95
-148.01
-122.74
-116.46
-122.69
-130.66
-129.19
-111.85
-80.87
-46.85
-23.38
-19.27
-32.76
-51.92
-61.25
-50.65
-21.57
13.64
38.38
40.12
15.59
-29.60
-85.37
-142.50
-195.26
-240.38
-274.51
-292.58
-288.70
-258.74
-203.58
-130.45
-51.69
19.04
71.32
101.48
113.62
117.63
124.93
143.48
174.13
210.10
240.34
254.44
247.42
221.48
183.99
143.52
105.87
72.68
42.80
14.82
-11.48
-35.62
-57.69
-79.52
-103.80
-131.60
-159.95
-181.62
-187.39
-170.24
-128.15
-64.74
12.37
94.53
174.07
245.45
304.79
349.04
375.03
380.07
363.40
327.86
281.20
234.59
200.23
186.84
195.57
218.22
241.10
251.38
242.86
218.06
184.28
150.16
121.40
99.10
78.32
53.59
22.90
-11.11
-43.02
-70.77
-94.23
-114.93
-134.77
-160.06
-196.99
-248.92
-314.32
-386.92
-461.10
-526.79
-570.74
-578.97
-549.82
-491.44
-419.57
-352.69
-307.77
-301.08
-336.24
-401.96
-474.42
-535.80
-574.67
-587.40
-576.36
-512.96
-396.13
-252.60
-139.25
-57.84
-0.48
44.03
79.61
109.82
138.60
164.41
187.60
211.48
242.89
279.97
318.49
355.60
392.51
433.05
477.05
524.09
572.85
620.70
656.45
668.50
650.43
604.26
538.59
462.60
386.31
318.43
264.09
220.69
183.44
148.67
115.20
82.81
50.62
19.06
-9.22
-31.48
-45.87
-49.51
-39.48
-15.20
18.14
50.32
70.30
70.34
45.50
-4.31
-73.56
-153.24
-234.19
-311.79
-385.47
-456.76
-507.10
-520.18
-494.17
-443.98
-387.99
-335.81
-289.94
-249.48
-213.59
-182.61
-160.48
-149.62
-147.11
-149.25
-143.00
-119.78
-77.85
-20.99
44.41
109.76
168.27
216.40
247.76
257.81
244.30
210.22
164.61
120.00
85.69
64.51
52.43
41.56
27.66
11.90
-0.80
-4.40
3.65
18.23
28.09
21.10
-9.97
-61.26
-120.12
-170.41
-199.01
-200.87
-180.07
-145.73
-102.65
-55.76
-5.25
50.86
112.45
174.29
226.39
258.40
265.29
250.47
223.73
197.16
177.93
165.13
151.37
128.02
90.53
40.51
-16.66
-76.65
-138.15
-202.59
-270.71
-339.00
-399.07
-440.77
-456.96
-447.29
-418.48
-380.08
-340.02
-301.09
-261.01
-215.09
-159.72
-94.32
-20.98
56.87
135.73
211.52
278.75
330.30
359.49
363.24
344.17
310.23
271.16
234.40
202.26
172.67
142.44
111.00
81.91
61.17
53.73
60.31
76.71
95.89
111.46
120.42
123.85
125.61
129.59
137.50
148.19
158.74
166.39
170.13
171.08
171.72
174.24
179.28
185.64
190.55
190.57
182.50
164.60
137.68
105.38
73.56
48.19
32.57
25.84
23.64
20.75
14.26
4.95
-4.21
-10.78
-14.78
-18.58
-24.76
-34.07
-44.85
-54.87
-63.77
-74.59
-91.66
-117.00
-147.77
-176.96
-197.09
-203.54
-196.01
-177.14
-151.08
-120.47
-85.59
-46.14
-4.19
33.67
58.55
63.51
47.38
12.90
-33.84
-85.78
-137.29
-185.14
-229.29
-269.65
-303.32
-324.01
-328.34
-316.21
-290.08
-253.97
-212.61
-172.67
-140.49
-120.44
-113.42
-121.45
-143.88
-174.44
-201.97
-203.76
-167.47
-103.89
-49.87
-20.76
-19.12
-38.55
-67.68
-92.61
-102.50
-95.04
-73.75
-42.82
-2.88
43.59
91.99
135.20
164.47
172.22
154.77
116.52
70.36
33.71
17.62
24.09
47.50
78.58
109.00
133.54
151.58
166.59
184.39
208.29
238.65
273.36
308.44
338.78
359.37
367.39
363.39
351.17
335.01
318.56
304.53
294.73
290.13
290.32
293.18
294.85
290.50
275.55
247.76
208.33
161.27
111.53
62.88
16.76
-27.63
-72.52
-120.67
-175.03
-238.36
-311.99
-394.17
-478.83
-556.07
-614.81
-646.32
-647.54
-622.10
-578.67
-527.19
-475.38
-426.75
-381.00
-336.09
-289.75
-240.28
-186.49
-127.59
-63.75
2.97
67.84
124.46
166.84
193.23
207.68
218.38
233.86
259.44
295.45
337.73
379.93
414.81
437.45
445.67
439.06
418.62
387.47
351.35
316.97
288.99
265.99
243.67
217.08
182.63
138.94
86.93
29.09
-32.95
-99.21
-172.35
-250.73
-327.44
-392.75
-438.46
-460.86
-460.30
-441.51
-396.35
-329.24
-254.60
-187.91
-135.75
-97.08
-69.15
-47.83
-29.89
-12.97
3.80
25.23
57.07
102.97
157.81
212.50
259.51
293.64
313.54
307.74
276.61
231.56
186.95
159.08
142.43
131.09
123.08
116.45
112.42
114.75
125.36
142.53
161.28
175.15
181.40
179.99
173.07
164.03
157.68
156.52
159.01
159.85
152.01
132.10
100.52
60.87
18.40
-21.69
-57.44
-90.65
-125.42
-166.02
-213.80
-268.14
-327.05
-387.29
-443.73
-489.41
-516.44
-518.47
-494.18
-449.06
-395.44
-348.53
-320.05
-313.40
-322.73
-336.52
-343.56
-337.91
-319.44
-291.55
-257.08
-216.02
-166.34
-106.66
-38.96
30.77
93.84
142.11
170.77
179.39
171.25
151.55
126.42
101.77
82.64
71.99
71.00
79.43
96.62
121.98
153.96
190.37
227.64
261.26
286.14
299.99
304.74
305.75
308.49
313.74
319.20
320.96
316.70
304.71
285.88
262.34
235.71
206.07
169.88
126.04
77.13
28.77
-17.77
-64.66
-116.59
-177.26
-246.54
-322.12
-394.42
-449.88
-475.38
-468.56
-435.09
-385.89
-332.48
-262.27
-178.29
-94.73
-37.59
-0.44
27.01
57.13
95.74
143.88
197.30
244.18
274.24
282.64
272.41
247.52
214.04
177.93
144.31
116.89
96.16
84.47
85.67
103.32
133.48
167.39
194.33
206.30
200.60
178.60
146.39
111.74
81.22
55.67
32.69
8.86
-17.96
-48.19
-81.92
-118.65
-158.25
-200.97
-248.11
-299.23
-350.40
-393.86
-420.18
-421.91
-396.12
-345.44
-276.58
-197.88
-116.15
-35.76
40.38
108.61
163.38
198.48
209.85
198.35
170.25
134.76
99.79
68.29
37.70
2.52
-41.04
-91.67
-142.55
-184.15
-208.40
-211.96
-196.92
-169.06
-135.15
-100.73
-69.34
-42.70
-21.32
-4.63
8.89
21.54
35.79
53.50
75.25
100.10
125.85
149.57
168.33
179.88
183.37
179.61
170.66
158.77
145.35
130.11
111.47
87.78
58.83
26.81
-4.03
-28.79
-43.77
-47.94
-43.19
-33.41
-22.92
-14.91
-10.46
-8.47
-6.53
-2.24
5.39
15.23
24.26
28.73
25.52
13.29
-7.45
-34.89
-66.85
-101.27
-136.14
-169.08
-197.11
-217.13
-226.98
-226.23
-216.23
-199.33
-177.53
-151.75
-121.87
-87.67
-49.69
-9.64
30.00
66.84
99.30
126.71
148.91
165.83
177.27
183.14
184.07
181.56
177.83
175.05
174.49
176.07
178.31
178.84
175.27
166.03
150.98
131.31
109.25
87.24
67.20
50.06
35.69
23.21
11.48
-0.39
-12.90
-26.00
-39.28
-52.22
-64.21
-74.77
-83.47
-89.99
-94.15
-96.00
-95.86
-94.20
-91.59
-88.48
-85.24
-82.05
-79.14
-76.75
-75.18
-74.72
-75.37
-76.77
-78.13
-78.47
-76.89
-72.91
-66.57
-58.40
-49.24
-39.97
-31.39
-24.08
-18.38
-14.31
-11.66
-10.01
-8.83
-7.74
-6.56
-5.38
-4.31
-3.40
-2.47
-1.28
0.37
2.44
4.72
7.04
9.34
11.68
14.17
16.73
19.06
20.77
21.65
21.66
21.04
20.08
18.88
17.36
15.35
12.69
9.38
5.49
1.11
-3.68
-8.71
-13.65
-18.00
-21.19
-22.78
-22.49
-20.32
-16.46
-11.22
-5.11
1.26
7.19
12.00
15.20
16.64
16.55
15.37
13.60
11.58
9.40
6.99
4.26
1.18
-2.12
-5.35
-8.19
-10.35
-11.63
-11.97
-11.41
-10.06
-8.11
-5.76
-3.27
-0.89
1.27
3.19
4.93
6.52
7.96
9.17
10.06
10.55
10.66
10.43
9.95
9.28
8.47
7.54
6.46
5.19
3.63
1.66
-0.77
-3.64
-6.76
-9.76
-12.18
-13.52
-13.36
-11.49
-8.08
-3.60
1.15
5.35
8.44
10.23
10.97
11.06
10.87
10.56
10.16
9.69
9.31
9.29
9.91
11.20
12.87
14.46
15.50
15.83
15.58
15.11
14.78
14.80
15.22
15.89
16.61
17.10
17.13
16.55
15.36
13.72
11.88
10.13
8.59
7.21
5.82
4.29
2.65
1.08
-0.31
-1.66
-3.41
-6.06
-9.92
-14.78
-20.06
-25.18
-29.80
-34.03
-38.27
-42.98
-48.51
-55.11
-62.99
-72.32
-83.05
-94.61
-105.89
-115.42
-121.87
-124.46
-123.08
-118.12
-110.36
-100.76
-90.69
-81.83
-76.05
-74.81
-78.58
-86.72
-97.79
-110.21
-122.87
-135.31
-147.66
-160.20
-173.00
-185.56
-196.61
-204.09
-205.36
-197.81
-179.61
-150.49
-111.87
-66.42
-17.16
33.53
84.29
134.88
185.63
237.13
289.81
343.57
397.30
448.56
493.62
528.16
548.32
551.72
537.94
508.25
464.97
410.95
349.41
284.03
218.99
158.56
106.23
63.90
31.49
7.27
-11.30
-26.55
-40.06
-52.46
-63.63
-73.11
-80.42
-85.33
-87.86
-88.31
-87.04
-84.50
-81.06
-77.16
-73.30
-69.99
-67.65
-66.48
-66.23
-66.29
-65.87
-64.24
-61.05
-56.53
-51.46
-46.91
-43.90
-43.02
-44.26
-46.95
-49.96
-52.04
-52.23
-50.11
-46.03
-40.87
-35.76
-31.58
-28.68
-26.64
-24.62
-21.74
-17.58
-12.39
-7.04
-2.56
0.24
1.15
0.60
-0.62
-1.68
-2.02
-1.48
-0.19
1.56
3.55
5.65
7.82
10.05
12.30
14.48
16.52
18.33
19.85
21.03
21.77
21.87
21.07
19.11
15.85
11.31
5.77
-0.21
-5.96
-10.83
-14.45
-16.88
-18.63
-20.45
-23.10
-26.86
-31.46
-36.12
-39.89
-42.10
-42.61
-41.84
-40.52
-39.38
-38.93
-39.41
-40.93
-43.58
-47.48
-52.60
-58.73
-65.37
-71.92
-77.90
-83.15
-87.94
-92.85
-98.51
-105.35
-113.40
-122.36
-131.71
-141.00
-150.05
-159.06
-168.45
-178.79
-190.47
-203.66
-218.31
-234.14
-250.65
-266.92
-281.35
-291.55
-294.64
-287.80
-269.12
-238.04
-195.39
-142.87
-82.46
-16.34
52.75
121.10
184.20
237.73
278.99
308.05
327.76
342.46
356.11
370.70
385.72
398.86
407.19
408.41
401.33
385.80
362.35
331.90
295.63
254.96
211.54
167.15
123.79
83.63
48.85
21.42
2.63
-7.32
-9.48
-6.02
0.28
6.72
11.29
13.00
11.87
8.65
4.44
0.27
-3.17
-5.62
-7.21
-8.31
-9.27
-10.23
-11.10
-11.79
-12.21
-12.45
-12.69
-13.00
-13.32
-13.48
-13.36
-13.02
-12.69
-12.56
-12.61
-12.51
-11.69
-9.69
-6.36
-2.02
2.63
6.79
9.86
11.57
11.99
11.48
10.47
9.37
8.53
8.13
8.27
8.90
9.78
10.54
10.73
9.76
7.11
2.36
-4.49
-12.78
-21.17
-27.92
-31.46
-31.09
-27.35
-21.70
-15.76
-10.47
-5.66
-0.31
6.51
14.85
23.60
30.85
35.00
35.52
33.24
29.87
27.13
25.98
26.31
27.24
27.58
26.43
23.35
18.28
11.46
3.20
-6.04
-15.50
-24.20
-31.16
-35.72
-37.89
-38.34
-38.12
-38.19
-39.05
-40.61
-42.34
-43.57
-43.76
-42.58
-39.93
-35.81
-30.47
-24.36
-18.18
-12.64
-8.25
-5.07
-2.72
-0.68
1.42
3.37
4.30
2.84
-2.55
-12.94
-28.47
-48.11
-69.73
-90.58
-108.02
-120.17
-126.21
-126.18
-120.61
-110.10
-95.24
-76.81
-56.02
-34.59
-14.33
3.25
17.49
28.56
37.19
44.17
49.97
54.64
58.02
59.99
60.64
60.24
59.12
57.47
55.35
52.67
49.36
45.41
40.95
36.24
31.58
27.30
23.59
20.50
17.91
15.60
13.39
11.32
9.57
8.43
8.08
8.34
8.82
9.03
8.68
7.85
6.90
6.25
6.08
6.27
6.47
6.37
5.84
4.99
4.03
3.14
2.36
1.60
0.81
-0.06
-0.98
-2.02
-3.32
-5.04
-7.21
-9.48
-11.24
-11.73
-10.42
-7.24
-2.74
2.14
6.41
9.43
11.05
11.55
11.41
11.01
10.51
9.97
9.40
8.94
8.77
9.02
9.58
10.15
10.39
10.07
9.20
7.96
6.53
4.89
2.92
0.52
-2.23
-5.01
-7.30
-8.66
-8.92
-8.28
-7.26
-6.49
-6.45
-7.32
-8.86
-10.52
-11.64
-11.76
-10.77
-9.06
-7.27
-6.13
-6.08
-7.19
-9.17
-11.50
-13.58
-14.88
-15.00
-13.78
-11.36
-8.22
-5.08
-2.74
-1.73
-2.19
-3.72
-5.65
-7.25
-8.01
-7.83
-6.96
-5.82
-4.83
-4.32
-4.40
-5.02
-5.93
-6.79
-7.26
-7.07
-6.18
-4.72
-2.98
-1.25
0.22
1.29
1.85
1.82
1.18
-0.04
-1.63
-3.28
-4.65
-5.54
-6.03
-6.41
-7.09
-8.35
-10.24
-12.45
-14.54
-16.07
-16.85
-17.06
-17.18
-17.76
-19.18
-21.42
-24.08
-26.46
-27.85
-27.82
-26.36
-23.91
-21.15
-18.66
-16.74
-15.34
-14.25
-13.23
-12.26
-11.54
-11.30
-11.63
-12.33
-12.95
-12.98
-12.11
-10.35
-8.07
-5.83
-4.10
-3.08
-2.65
-2.47
-2.20
-1.70
-1.07
-0.55
-0.33
-0.41
-0.57
-0.54
-0.21
0.33
0.79
0.86
0.42
-0.46
-1.52
-2.45
-3.04
-3.25
-3.19
-3.04
-2.94
-2.92
-2.95
-3.02
-3.23
-3.75
-4.81
-6.42
-8.29
-9.90
-10.67
-10.26
-8.76
-6.59
-4.24
-2.14
-0.42
0.90
1.90
2.56
2.90
2.96
2.91
2.95
3.16
3.49
3.77
3.85
3.73
3.54
3.43
3.42
3.41
3.22
2.78
2.19
1.69
1.51
1.71
2.12
2.46
2.52
2.25
1.81
1.37
1.01
0.65
0.11
-0.71
-1.77
-2.77
-3.38
-3.41
-2.96
-2.38
-2.10
-2.41
-3.27
-4.41
-5.53
-6.44
-7.19
-7.89
-8.63
-9.25
-9.43
-8.85
-7.41
-5.32
-3.06
-1.17
-0.00
0.37
0.18
-0.20
-0.42
-0.32
0.04
0.45
0.66
0.56
0.27
0.10
0.37
1.24
2.60
4.17
5.66
7.01
8.38
10.05
12.19
14.64
17.00
18.88
20.02
20.52
20.66
20.71
20.82
20.93
20.91
20.67
20.15
19.36
18.29
16.95
15.41
13.73
12.03
10.38
8.80
7.21
5.52
3.61
1.40
-1.15
-4.01
-7.01
-9.82
-12.08
-13.49
-13.97
-13.67
-12.91
-12.02
-11.17
-10.40
-9.67
-8.99
-8.43
-8.18
-8.36
-8.99
-9.95
-10.94
-11.64
-11.74
-11.15
-9.93
-8.34
-6.72
-5.35
-4.38
-3.76
-3.32
-2.85
-2.18
-1.24
-0.06
1.30
2.67
3.88
4.74
5.16
5.22
5.08
4.97
5.02
5.20
5.31
5.12
4.54
3.62
2.60
1.73
1.16
0.80
0.42
-0.28
-1.54
-3.39
-5.62
-7.83
-9.62
-10.66
-10.85
-10.30
-9.20
-7.75
-6.06
-4.24
-2.34
-0.58
0.81
1.61
1.78
1.50
1.03
0.72
0.78
1.26
2.02
2.87
3.57
3.93
3.90
3.53
2.98
2.44
2.04
1.81
1.68
1.58
1.45
1.29
1.16
1.10
1.06
0.99
0.78
0.41
-0.14
-0.87
-1.73
-2.66
-3.48
-3.98
-3.90
-3.15
-1.90
-0.59
0.18
-0.11
-1.69
-4.34
-7.54
-10.52
-12.57
-13.27
-12.49
-10.42
-7.51
-4.26
-1.22
1.18
2.71
3.33
3.21
2.67
2.01
1.54
1.43
1.74
2.37
3.08
3.56
3.58
3.10
2.31
1.57
1.24
1.44
2.04
2.70
3.06
2.96
2.53
2.07
1.91
2.19
2.82
3.57
4.20
4.61
4.81
4.87
4.83
4.60
4.04
3.16
2.11
1.27
1.04
1.61
2.80
4.05
4.72
4.35
2.99
1.19
-0.25
-0.69
0.05
1.63
3.36
4.58
4.92
4.48
3.61
2.71
1.99
1.41
0.73
-0.23
-1.53
-2.99
-4.34
-5.33
-5.84
-5.94
-5.82
-5.71
-5.76
-6.04
-6.48
-7.01
-7.56
-8.14
-8.82
-9.62
-10.49
-11.29
-11.93
-12.48
-13.19
-14.44
-16.41
-18.95
-21.52
-23.37
-24.00
-23.43
-22.28
-21.49
-21.93
-24.05
-27.74
-32.45
-37.38
-41.81
-45.19
-47.40
-48.71
-49.80
-51.49
-54.44
-58.91
-64.58
-70.78
-76.80
-82.25
-87.01
-91.15
-94.55
-96.89
-97.80
-97.14
-95.02
-91.55
-86.45
-78.74
-67.17
-50.90
-30.31
-7.04
16.58
38.59
58.07
75.23
90.79
105.16
118.13
129.03
137.29
142.92
146.51
148.81
150.38
151.27
151.25
150.03
147.50
143.67
138.65
132.53
125.52
117.91
110.08
102.32
94.65
86.92
78.86
70.43
61.88
53.72
46.50
40.37
35.05
29.86
24.05
17.13
9.16
0.61
-7.78
-15.36
-21.73
-26.72
-30.32
-32.60
-33.62
-33.55
-32.73
-31.61
-30.69
-30.39
-30.93
-32.25
-34.00
-35.59
-36.42
-36.02
-34.27
-31.56
-28.61
-26.25
-25.00
-24.96
-25.75
-26.87
-27.97
-28.97
-30.01
-31.18
-32.36
-33.28
-33.71
-33.74
-33.83
-34.53
-36.14
-38.46
-40.86
-42.52
-42.89
-41.93
-40.00
-37.68
-35.48
-33.70
-32.30
-31.08
-29.70
-27.85
-25.34
-22.17
-18.59
-15.00
-11.80
-9.26
-7.36
-5.83
-4.30
-2.42
0.02
3.01
6.43
10.04
13.74
17.59
21.89
27.10
33.63
41.65
50.90
60.64
69.80
77.15
81.61
82.48
79.57
73.30
64.65
54.98
45.73
38.11
32.83
30.05
29.42
30.39
32.37
34.88
37.52
39.97
41.85
42.66
41.83
38.93
33.82
26.90
19.05
11.29
4.39
-1.42
-6.54
-11.66
-17.26
-23.18
-28.45
-31.60
-31.20
-26.45
-17.53
-5.67
7.16
18.68
27.00
31.12
31.47
29.73
28.37
29.65
34.67
42.89
52.37
60.54
65.16
64.87
59.14
47.91
31.36
9.92
-15.20
-41.78
-66.66
-86.47
-98.47
-101.34
-95.49
-82.96
-66.89
-50.87
-38.18
-31.13
-30.60
-35.92
-45.17
-55.98
-66.22
-74.63
-80.82
-85.03
-87.88
-90.25
-93.37
-98.68
-107.29
-119.17
-132.59
-144.24
-150.29
-148.01
-137.05
-119.86
-100.85
-84.59
-74.27
-70.91
-73.80
-81.39
-92.04
-104.11
-115.43
-123.11
-124.04
-116.00
-98.87
-74.85
-47.72
-21.27
2.01
21.55
38.29
53.90
70.08
88.13
108.62
131.03
153.43
172.67
185.52
190.40
188.93
185.86
187.14
196.96
215.20
236.95
254.51
260.75
252.09
229.83
199.20
167.00
139.08
118.76
106.79
101.94
102.11
104.82
107.32
106.55
99.77
85.95
66.87
47.18
32.85
28.36
34.19
46.11
56.88
59.51
50.31
30.02
2.63
-27.17
-56.27
-83.90
-110.87
-138.18
-165.98
-193.54
-219.70
-243.14
-262.25
-275.05
-279.44
-273.81
-257.57
-231.37
-196.63
-154.87
-107.35
-55.49
-1.49
51.23
98.48
136.47
163.21
179.19
187.06
190.23
191.45
191.76
190.44
185.66
175.43
158.32
133.91
102.74
66.15
26.07
-15.15
-54.83
-90.17
-118.44
-137.49
-146.06
-144.03
-132.55
-113.82
-90.72
-66.27
-43.12
-23.05
-6.63
6.68
18.15
29.02
39.83
50.01
58.07
62.22
61.23
54.83
43.84
29.65
13.54
-3.81
-22.42
-42.57
-64.26
-86.61
-107.85
-125.71
-138.23
-144.60
-145.44
-142.69
-138.77
-135.72
-134.56
-135.08
-136.07
-135.94
-133.26
-127.17
-117.63
-105.25
-91.07
-76.21
-61.58
-47.80
-35.24
-24.07
-14.18
-5.22
3.53
12.94
23.70
35.95
49.00
61.59
72.31
80.22
85.20
88.00
89.80
91.68
94.23
97.33
100.28
102.10
101.88
99.02
93.36
85.19
75.08
63.84
52.33
41.47
32.00
24.36
18.54
14.08
10.28
6.52
2.57
-1.45
-5.19
-8.40
-11.14
-13.65
-16.12
-18.45
-20.17
-20.70
-19.73
-17.37
-14.22
-11.04
-8.45
-6.60
-5.24
-3.94
-2.29
-0.11
2.58
5.63
8.82
11.93
14.73
16.98
18.54
19.38
19.59
19.39
19.04
18.80
18.88
19.41
20.35
21.43
22.14
21.88
20.21
17.03
12.75
8.14
4.04
0.99
-0.88
-1.87
-2.47
-3.11
-4.05
-5.24
-6.54
-7.76
-8.75
-9.43
-9.82
-9.97
-9.93
-9.79
-9.61
-9.47
-9.46
-9.67
-10.12
-10.78
-11.52
-12.17
-12.59
-12.72
-12.64
-12.43
-12.12
-11.61
-10.71
-9.21
-7.11
-4.64
-2.22
-0.27
0.99
1.66
2.05
2.58
3.48
4.75
6.15
7.31
7.97
8.01
7.50
6.62
5.53
4.33
3.04
1.71
0.38
-0.88
-1.99
-2.88
-3.47
-3.70
-3.59
-3.20
-2.67
-2.13
-1.65
-1.16
-0.55
0.25
1.22
2.23
3.14
3.87
4.47
4.99
5.42
5.67
5.55
5.03
4.19
3.33
2.74
2.59
2.88
3.49
4.24
5.07
5.87
6.54
6.89
6.75
6.10
5.10
4.06
3.41
3.42
4.17
5.44
6.86
7.99
8.44
8.02
6.68
4.64
2.20
-0.21
-2.24
-3.64
-4.38
-4.62
-4.68
-4.99
-5.89
-7.61
-10.13
-13.23
-16.51
-19.62
-22.30
-24.56
-26.52
-28.40
-30.34
-32.38
-34.50
-36.65
-38.73
-40.61
-42.05
-42.80
-42.59
-41.27
-38.72
-34.80
-29.31
-21.97
-12.53
-0.95
12.44
26.97
41.81
56.02
68.80
79.45
87.43
92.46
94.51
93.84
90.90
86.13
79.89
72.53
64.55
56.64
49.67
44.40
41.14
39.57
38.82
37.77
35.52
31.65
26.23
19.69
12.62
5.54
-1.11
-7.01
-11.93
-15.80
-18.67
-20.72
-22.17
-23.21
-23.94
-24.36
-24.38
-23.95
-23.02
-21.65
-20.01
-18.33
-16.92
-16.06
-15.99
-16.88
-18.82
-21.80
-25.64
-29.97
-34.24
-37.78
-40.07
-40.87
-40.46
-39.40
-38.39
-37.84
-37.75
-37.75
-37.29
-35.99
-33.79
-30.90
-27.73
-24.63
-21.82
-19.37
-17.25
-15.44
-13.95
-12.82
-12.15
-12.12
-12.99
-15.12
-18.85
-24.33
-31.32
-39.17
-46.91
-53.61
-58.65
-61.91
-63.77
-64.81
-65.54
-66.25
-67.04
-68.03
-69.59
-72.32
-76.82
-83.46
-92.03
-101.75
-111.31
-119.24
-124.10
-124.72
-120.34
-110.66
-95.96
-77.06
-55.22
-31.86
-8.24
14.81
37.00
58.46
79.46
100.09
120.16
139.05
155.94
170.04
180.77
187.95
191.74
192.55
190.90
187.30
182.08
175.40
167.27
157.60
146.34
133.57
119.63
105.05
90.53
76.73
64.13
52.97
43.19
34.60
26.87
19.69
12.74
5.80
-1.22
-8.18
-14.71
-20.34
-24.66
-27.63
-29.52
-30.96
-32.60
-34.84
-37.57
-40.30
-42.34
-43.15
-42.62
-41.09
-39.14
-37.30
-35.85
-34.71
-33.55
-32.03
-30.04
-27.81
-25.86
-24.78
-24.96
-26.41
-28.77
-31.43
-33.86
-35.69
-36.82
-37.26
-37.03
-36.05
-34.26
-31.87
-29.33
-27.31
-26.40
-26.82
-28.34
-30.44
-32.66
-34.86
-37.18
-39.79
-42.60
-45.13
-46.77
-47.09
-46.31
-45.20
-45.04
-47.15
-52.63
-62.10
-75.61
-92.55
-111.68
-131.19
-148.99
-163.21
-172.74
-177.67
-179.30
-179.75
-181.32
-185.78
-194.07
-206.12
-221.09
-237.60
-254.12
-269.28
-282.25
-293.02
-302.33
-311.05
-319.32
-325.75
-327.26
-319.88
-300.21
-266.85
-221.06
-166.29
-106.89
-46.71
11.81
67.75
121.29
173.29
224.90
277.18
330.57
384.04
434.70
477.98
508.88
523.61
520.99
503.02
474.16
440.03
405.75
374.95
349.27
328.59
311.53
296.12
280.56
263.81
245.89
227.69
210.44
194.98
181.41
169.23
157.72
146.46
135.51
125.30
116.33
108.97
103.38
99.45
96.93
95.20
93.43
90.63
86.00
79.23
70.67
61.20
51.75
42.98
34.96
27.49
20.33
13.43
6.76
0.00
-7.58
-16.88
-28.21
-40.74
-52.32
-60.14
-61.85
-56.69
-45.97
-32.55
-19.72
-9.84
-3.70
-0.51
1.35
3.40
6.28
9.55
11.98
12.20
9.32
3.35
-4.90
-14.20
-23.40
-31.77
-38.94
-44.64
-48.49
-49.94
-48.68
-45.08
-40.47
-36.85
-36.07
-39.03
-45.16
-52.78
-59.92
-65.40
-69.31
-72.82
-77.21
-82.95
-89.15
-93.96
-95.53
-93.01
-87.11
-79.72
-73.06
-68.76
-67.32
-68.31
-70.96
-74.84
-80.06
-87.01
-95.65
-105.06
-113.43
-118.65
-119.26
-115.17
-107.76
-99.30
-91.93
-86.80
-83.65
-81.11
-77.63
-72.34
-65.54
-58.41
-52.18
-47.22
-42.68
-36.83
-28.12
-16.12
-1.98
12.15
24.12
32.67
37.75
40.00
40.01
37.85
33.20
25.90
16.60
6.70
-1.97
-7.77
-9.72
-7.54
-1.62
7.18
17.56
27.88
36.34
41.46
42.55
39.99
35.20
30.07
26.37
25.07
26.14
28.66
31.32
32.98
33.18
32.33
31.48
31.87
34.31
38.85
44.64
50.35
54.72
56.97
57.09
55.60
53.35
51.10
49.29
48.09
47.40
47.09
47.07
47.44
48.44
50.42
53.73
58.50
64.50
71.08
77.23
81.91
84.24
83.65
79.88
72.89
62.69
49.47
33.67
16.14
-1.84
-18.57
-32.35
-41.90
-46.83
-47.90
-46.80
-45.67
-46.30
-49.67
-55.70
-63.56
-72.19
-80.74
-88.80
-96.32
-103.34
-109.86
-115.85
-121.31
-126.36
-130.99
-134.90
-137.24
-136.66
-131.80
-122.01
-107.94
-91.78
-76.78
-66.08
-61.51
-62.83
-67.86
-73.60
-77.74
-79.77
-80.89
-83.05
-87.47
-93.72
-99.95
-103.90
-104.44
-102.16
-98.99
-97.01
-97.27
-99.37
-101.97
-103.85
-104.44
-103.74
-101.65
-97.27
-89.03
-75.40
-56.01
-32.20
-6.83
16.77
35.92
49.34
57.05
59.93
59.12
55.85
51.63
48.25
47.69
51.36
59.38
70.13
80.80
88.79
93.30
96.26
101.75
114.23
136.13
166.41
200.67
232.75
257.13
270.83
273.92
268.75
258.39
245.36
231.05
216.10
201.01
186.50
173.26
161.38
149.90
136.87
119.96
97.44
69.04
36.20
1.61
-31.68
-61.04
-84.85
-102.37
-113.53
-118.66
-118.32
-113.51
-105.69
-96.76
-88.63
-82.97
-80.88
-82.86
-88.65
-97.26
-106.87
-115.12
-119.85
-120.14
-117.01
-113.08
-111.28
-113.01
-117.01
-119.81
-117.58
-108.47
-93.84
-77.65
-64.42
-56.94
-55.16
-56.73
-58.66
-58.97
-57.27
-54.38
-51.37
-48.89
-47.15
-46.23
-46.25
-47.33
-49.35
-51.72
-53.43
-53.39
-50.74
-45.18
-37.16
-27.75
-18.49
-10.81
-5.48
-1.96
1.62
7.79
18.48
33.67
50.95
66.30
75.72
77.21
71.68
62.60
54.47
50.86
53.03
59.72
67.91
74.26
76.41
73.64
66.82
57.64
47.80
38.40
29.81
22.24
16.27
13.11
14.12
19.83
29.05
38.82
45.46
46.24
40.83
31.41
21.45
13.84
9.44
6.88
3.76
-1.67
-9.33
-17.36
-23.25
-25.22
-23.23
-18.86
-14.41
-11.54
-10.35
-9.33
-6.08
1.36
13.40
28.32
42.67
52.42
54.43
47.45
32.55
12.49
-9.28
-29.71
-46.81
-59.61
-67.90
-71.78
-71.62
-68.12
-62.43
-55.98
-50.10
-45.49
-41.92
-38.39
-33.59
-26.63
-17.39
-6.51
5.03
16.63
28.46
41.36
56.28
73.47
91.96
109.63
123.81
132.37
134.48
130.76
122.77
112.01
99.30
84.72
68.23
50.39
32.65
16.98
4.91
-3.20
-8.30
-12.16
-16.40
-21.77
-27.93
-33.83
-38.27
-40.33
-39.40
-35.07
-27.19
-16.05
-2.73
10.79
22.10
29.13
30.89
27.79
21.28
13.22
5.30
-1.06
-4.66
-4.48
-0.02
8.12
17.94
26.31
30.18
27.87
20.01
9.33
-0.59
-6.93
-8.76
-7.05
-3.86
-1.12
0.14
-0.14
-1.57
-3.90
-7.20
-11.73
-17.40
-23.47
-28.65
-31.61
-31.65
-29.15
-25.36
-21.75
-19.28
-17.85
-16.49
-14.02
-9.90
-4.71
0.11
3.01
3.14
0.62
-3.62
-8.70
-14.16
-20.07
-26.47
-32.89
-38.10
-40.61
-39.50
-35.12
-29.15
-24.06
-22.01
-24.12
-30.17
-38.90
-48.71
-58.16
-66.28
-72.48
-76.41
-77.85
-76.84
-73.71
-69.08
-63.72
-58.39
-53.74
-50.32
-48.53
-48.62
-50.63
-54.38
-59.67
-66.41
-74.48
-83.37
-91.85
-97.95
-99.66
-95.89
-87.04
-74.78
-60.89
-46.03
-29.41
-9.74
13.25
37.60
59.45
74.80
81.55
80.60
75.19
68.94
63.88
59.84
55.44
49.75
43.56
39.21
39.29
45.13
56.09
70.09
84.78
98.55
110.70
120.95
128.67
132.77
132.20
126.78
117.66
106.89
96.61
88.08
81.35
75.57
69.73
63.34
56.51
49.82
43.82
38.76
34.60
31.31
29.16
28.72
30.63
35.14
41.65
48.69
54.24
56.52
54.68
49.21
41.71
34.31
28.95
26.91
28.63
33.72
40.94
48.27
53.15
53.12
46.76
34.34
17.88
0.47
-14.89
-26.19
-32.86
-35.58
-35.75
-34.99
-34.80
-36.48
-40.90
-48.36
-58.41
-69.81
-80.83
-89.62
-94.79
-95.70
-92.66
-86.74
-79.52
-72.56
-67.08
-63.75
-62.71
-63.65
-65.91
-68.46
-69.98
-69.06
-64.60
-56.28
-44.73
-31.40
-18.10
-6.40
2.78
9.47
14.39
18.69
23.43
29.23
36.02
43.14
49.63
54.66
57.80
59.04
58.55
56.39
52.48
46.70
39.16
30.44
21.46
13.16
6.22
0.85
-3.13
-6.01
-8.08
-9.54
-10.58
-11.57
-13.10
-15.85
-20.32
-26.52
-33.82
-41.13
-47.21
-51.09
-52.37
-51.24
-48.35
-44.38
-39.69
-34.17
-27.22
-18.19
-6.78
6.59
20.96
35.23
48.86
62.12
75.94
91.17
107.90
125.12
141.12
154.24
163.74
170.07
174.61
178.81
183.13
186.73
187.53
182.93
170.82
150.14
121.22
85.70
46.40
7.22
-27.16
-52.07
-64.25
-63.28
-52.75
-39.71
-33.05
-40.73
-67.25
-111.76
-167.74
-224.55
-270.26
-295.42
-296.13
-275.62
-243.22
-211.02
-189.26
-182.55
-188.30
-198.17
-202.03
-192.28
-166.84
-129.52
-87.71
-48.78
-17.10
7.04
26.40
44.26
62.28
79.76
94.60
105.05
110.62
111.66
108.25
99.46
83.81
60.94
33.12
5.34
-16.33
-27.43
-27.16
-18.69
-7.35
2.12
7.79
10.88
14.40
20.73
29.89
39.46
46.13
47.66
44.10
37.37
29.75
22.39
14.98
6.72
-2.29
-10.34
-14.91
-14.29
-8.97
-1.61
4.37
6.70
5.42
2.62
0.95
2.00
5.55
9.87
12.87
13.25
11.10
7.69
4.84
3.97
5.56
8.98
12.79
15.21
14.80
11.03
4.33
-3.90
-11.81
-17.53
-19.64
-17.36
-10.65
-0.40
11.55
22.57
29.68
30.34
23.30
9.08
-9.97
-30.27
-47.86
-59.32
-62.39
-56.33
-41.92
-21.32
2.19
24.60
41.73
50.00
47.21
33.23
10.25
-17.45
-44.54
-65.87
-77.94
-79.76
-72.98
-61.01
-47.71
-36.11
-27.67
-22.35
-19.21
-17.00
-14.40
-10.07
-2.86
7.81
21.17
34.75
44.69
46.98
39.18
21.67
-2.02
-26.14
-44.49
-52.29
-47.39
-30.48
-4.56
26.07
56.82
83.64
103.70
115.70
119.86
117.46
110.17
99.43
86.31
71.62
56.23
41.20
27.61
16.13
6.78
-1.00
-7.97
-14.61
-20.99
-27.04
-32.69
-38.03
-42.81
-46.18
-46.73
-43.16
-35.29
-24.61
-13.99
-6.46
-3.90
-6.23
-11.53
-17.03
-20.19
-19.68
-15.57
-9.19
-2.56
2.32
4.11
2.52
-1.58
-6.68
-11.36
-14.94
-17.75
-20.71
-24.73
-30.06
-36.15
-42.00
-46.69
-49.89
-51.78
-52.94
-53.89
-54.92
-56.00
-56.91
-57.45
-57.60
-57.72
-58.62
-61.47
-67.48
-77.45
-91.31
-107.95
-125.40
-141.37
-153.92
-161.88
-165.11
-164.34
-161.03
-156.97
-153.89
-152.76
-153.25
-153.55
-150.70
-141.53
-123.70
-96.43
-60.72
-19.16
24.57
66.08
100.89
125.25
136.95
136.06
124.96
107.62
88.43
71.12
58.33
51.87
53.10
62.87
80.90
105.17
131.81
156.30
175.05
186.69
192.15
193.45
191.97
187.57
178.75
163.87
142.30
115.02
84.31
52.96
23.69
-1.28
-20.56
-33.96
-42.62
-48.47
-53.00
-56.05
-55.48
-48.18
-32.13
-8.17
19.65
45.78
65.80
78.34
84.82
87.34
86.37
80.04
65.62
42.15
12.27
-18.15
-42.30
-55.09
-54.54
-41.62
-19.01
10.02
42.11
73.59
100.74
120.55
131.96
136.28
136.49
135.43
134.35
132.49
128.25
120.68
110.46
99.71
90.74
84.85
81.75
79.97
77.70
73.59
67.30
59.44
51.14
43.53
37.27
32.35
28.24
24.40
20.63
17.28
14.92
13.94
14.07
14.30
13.33
10.28
5.28
-0.41
-4.88
-6.45
-4.49
0.13
5.25
8.10
6.33
-1.12
-13.49
-28.32
-42.31
-52.49
-57.45
-57.96
-56.81
-57.57
-63.11
-74.15
-88.82
-103.40
-113.95
-118.05
-115.81
-109.89
-104.22
-102.30
-105.43
-112.11
-118.67
-121.02
-116.84
-106.82
-94.55
-84.93
-81.89
-86.72
-97.74
-111.41
-124.01
-132.94
-137.09
-136.30
-130.80
-121.33
-109.52
-98.02
-89.55
-85.14
-82.78
-77.32
-62.33
-32.98
11.57
67.62
128.35
186.48
236.74
277.03
308.06
331.98
350.83
365.46
375.41
379.42
376.39
366.11
349.43
327.74
302.08
272.20
236.48
192.98
140.89
82.18
21.93
-32.83
-75.43
-102.06
-113.22
-113.32
-108.68
-104.89
-104.91
-108.71
-114.46
-120.09
-124.30
-126.70
-127.10
-125.21
-121.02
-115.35
-110.14
-107.94
-110.52
-117.88
-127.89
-137.03
-141.90
-140.45
-132.55
-119.62
-103.89
-87.59
-72.68
-60.69
-52.71
-49.41
-50.99
-56.93
-65.86
-75.69
-83.84
-88.03
-87.05
-81.24
-72.43
-63.11
-55.20
-49.38
-44.94
-40.37
-34.31
-26.25
-16.64
-6.68
2.32
9.28
13.67
15.45
15.08
13.36
11.24
9.66
9.52
11.69
16.98
25.89
38.30
53.18
68.46
81.56
90.17
93.11
90.70
84.57
76.92
69.68
63.89
59.62
56.21
52.84
48.90
44.25
39.14
33.98
28.98
23.99
18.67
12.74
6.34
-0.10
-6.05
-11.25
-15.83
-20.13
-24.34
-28.23
-31.26
-33.03
-33.64
-33.81
-34.52
-36.48
-39.60
-43.09
-45.82
-46.97
-46.41
-44.69
-42.63
-40.85
-39.48
-38.24
-36.77
-34.93
-32.96
-31.31
-30.37
-30.22
-30.71
-31.52
-32.33
-32.91
-33.15
-33.05
-32.64
-31.99
-31.17
-30.24
-29.28
-28.43
-27.94
-28.04
-28.88
-30.19
-31.45
-31.97
-31.35
-29.66
-27.44
-25.34
-23.70
-22.37
-20.82
-18.62
-15.71
-12.49
-9.56
-7.26
-5.51
-3.88
-1.93
0.45
3.06
5.55
7.70
9.61
11.52
13.60
15.74
17.56
18.56
18.44
17.30
15.48
13.48
11.62
10.06
8.86
8.08
7.79
7.91
8.13
7.96
6.93
4.93
2.36
0.01
-1.30
-1.19
0.09
1.86
3.28
3.85
3.48
2.52
1.46
0.76
0.67
1.21
2.24
3.44
4.46
4.98
4.85
4.13
3.03
1.86
0.89
0.28
0.08
0.33
0.97
1.95
3.06
3.92
4.12
3.38
1.69
-0.60
-2.95
-4.85
-6.02
-6.42
-6.25
-5.68
-4.91
-4.08
-3.38
-2.97
-3.05
-3.67
-4.71
-5.98
-7.23
-8.31
-9.18
-9.91
-10.63
-11.47
-12.53
-13.80
-15.16
-16.33
-16.88
-16.43
-14.82
-12.21
-9.05
-5.88
-3.15
-1.04
0.57
1.95
3.40
5.17
7.36
9.89
12.52
14.88
16.62
17.52
17.65
17.36
17.15
17.36
18.05
18.94
19.59
19.72
19.31
18.60
17.90
17.39
17.07
16.84
16.58
16.25
15.83
15.30
14.54
13.36
11.54
9.00
5.83
2.31
-1.14
-4.15
-6.55
-8.38
-9.90
-11.40
-13.06
-14.83
-16.47
-17.68
-18.25
-18.09
-17.29
-15.97
-14.32
-12.48
-10.63
-8.94
-7.50
-6.37
-5.46
-4.69
-3.96
-3.20
-2.42
-1.62
-0.80
0.08
1.03
1.99
2.91
3.74
4.55
5.48
6.71
8.30
10.11
11.80
13.03
13.63
13.70
13.56
13.57
13.84
14.21
14.33
13.93
13.01
11.84
10.71
9.81
9.05
8.22
7.18
5.96
4.73
3.61
2.53
1.16
-0.76
-3.23
-5.91
-8.21
-9.60
-9.85
-9.03
-7.41
-5.20
-2.45
0.87
4.78
9.14
13.66
17.91
21.56
24.32
26.07
26.77
26.52
25.50
23.99
22.25
20.47
18.71
16.97
15.28
13.75
12.53
11.68
11.09
10.42
9.35
7.71
5.61
3.40
1.49
0.15
-0.56
-0.83
-1.03
-1.55
-2.67
-4.47
-6.83
-9.42
-11.83
-13.68
-14.80
-15.22
-15.28
-15.39
-16.01
-17.41
-19.55
-21.97
-23.97
-24.84
-24.23
-22.32
-19.82
-17.66
-16.56
-16.71
-17.79
-19.09
-19.98
-20.11
-19.55
-18.72
-18.15
-18.26
-19.17
-20.72
-22.47
-23.95
-24.83
-25.02
-24.68
-24.06
-23.34
-22.60
-21.89
-21.32
-21.03
-21.06
-21.18
-20.93
-19.89
-18.03
-15.94
-14.73
-15.48
-18.72
-24.11
-30.58
-36.89
-42.15
-46.23
-49.43
-52.08
-54.01
-54.62
-53.21
-49.60
-44.42
-38.98
-34.75
-32.59
-32.39
-33.03
-32.89
-30.40
-24.56
-15.02
-1.94
14.34
33.49
55.14
78.78
103.49
128.02
151.02
171.37
188.46
202.16
212.58
219.67
223.03
222.04
216.08
204.97
189.11
169.49
147.55
124.87
102.90
82.78
65.15
50.11
37.35
26.34
16.60
7.83
-0.06
-7.04
-12.93
-17.38
-19.90
-20.22
-19.00
-18.32
-21.64
-32.50
-52.95
-82.12
-116.17
-149.49
-176.75
-194.56
-201.86
-199.21
-187.55
-167.45
-139.43
-104.90
-66.93
-30.20
0.12
20.17
28.71
27.60
21.05
13.91
9.87
10.18
13.45
16.71
16.99
12.83
4.81
-4.85
-13.54
-19.35
-21.63
-20.84
-17.92
-13.73
-8.91
-3.98
0.47
3.89
6.03
7.07
7.63
8.35
9.43
10.38
10.23
8.08
3.63
-2.48
-8.77
-13.31
-14.30
-10.57
-1.91
10.80
25.79
40.82
53.71
62.93
67.80
68.50
65.68
60.15
52.62
43.72
34.16
24.88
16.93
11.17
7.82
6.37
5.76
4.69
2.22
-2.07
-7.91
-14.47
-20.49
-24.70
-26.21
-25.10
-22.63
-20.88
-22.22
-28.30
-39.56
-55.03
-72.73
-90.28
-105.74
-118.15
-127.73
-135.47
-142.27
-148.26
-152.67
-154.51
-153.65
-151.75
-151.96
-157.45
-169.61
-186.98
-205.75
-221.58
-231.22
-232.89
-225.65
-208.67
-181.72
-146.46
-107.43
-71.23
-43.65
-26.41
-15.58
-3.16
18.96
54.71
101.92
153.60
201.39
239.11
264.40
277.93
281.61
276.90
264.55
245.35
221.17
195.24
171.33
152.52
139.82
131.76
125.10
116.24
102.84
84.86
64.59
45.77
32.00
25.26
25.23
29.70
35.75
41.05
44.65
46.79
48.27
49.60
50.72
51.49
52.26
54.22
58.88
67.10
78.18
89.77
98.66
102.06
98.73
89.26
75.63
60.24
45.09
31.31
19.27
8.91
0.07
-7.30
-13.30
-18.16
-22.36
-26.55
-31.36
-37.14
-43.83
-50.94
-57.68
-63.19
-66.76
-67.93
-66.43
-62.11
-54.96
-45.29
-33.94
-22.45
-12.82
-6.87
-5.48
-8.14
-12.98
-17.55
-19.79
-18.88
-15.46
-11.09
-7.44
-5.50
-5.31
-6.24
-7.41
-8.22
-8.40
-7.86
-6.54
-4.34
-1.25
2.32
5.57
7.49
7.25
4.64
0.19
-5.09
-10.07
-13.99
-16.57
-17.95
-18.47
-18.51
-18.30
-18.00
-17.67
-17.39
-17.21
-17.17
-17.31
-17.68
-18.37
-19.38
-20.60
-21.75
-22.49
-22.61
-22.16
-21.47
-21.06
-21.33
-22.34
-23.82
-25.16
-25.82
-25.48
-24.22
-22.44
-20.72
-19.41
-18.65
-18.22
-17.82
-17.18
-16.24
-15.10
-13.89
-12.68
-11.37
-9.84
-7.99
-5.90
-3.79
-1.90
-0.41
0.67
1.45
2.12
2.76
3.39
3.93
4.32
4.52
4.56
4.48
4.28
3.90
3.22
2.18
0.89
-0.38
-1.19
-1.19
-0.23
1.42
3.27
4.74
5.43
5.25
4.39
3.22
2.16
1.54
1.57
2.40
4.09
6.57
9.69
13.09
16.35
19.01
20.77
21.62
21.87
22.15
23.18
25.56
29.51
34.85
41.08
47.63
53.93
59.48
63.79
66.41
67.06
65.83
63.25
60.18
57.41
55.23
53.12
49.83
43.92
34.52
21.79
7.12
-7.50
-20.10
-29.41
-35.05
-37.39
-37.12
-35.02
-31.84
-28.40
-25.62
-24.40
-25.33
-28.34
-32.76
-37.55
-41.70
-44.57
-46.04
-46.43
-46.29
-46.23
-46.72
-47.96
-49.72
-51.41
-52.18
-51.29
-48.36
-43.55
-37.49
-31.00
-24.85
-19.52
-15.13
-11.61
-8.82
-6.66
-5.10
-4.11
-3.57
-3.28
-2.93
-2.26
-1.15
0.36
2.01
3.46
4.42
4.72
4.38
3.51
2.28
0.82
-0.66
-1.94
-2.73
-2.76
-1.98
-0.59
0.91
1.87
1.77
0.41
-1.96
-4.68
-6.91
-8.01
-7.72
-6.30
-4.34
-2.50
-1.25
-0.67
-0.62
-0.82
-1.11
-1.40
-1.61
-1.58
-1.13
-0.21
0.97
2.02
2.56
2.41
1.74
0.94
0.26
-0.24
-0.80
-1.73
-3.23
-5.18
-7.21
-8.89
-9.91
-10.16
-9.64
-8.42
-6.51
-3.95
-0.98
1.90
3.87
4.18
2.41
-1.16
-5.60
-9.57
-11.90
-12.06
-10.23
-7.23
-4.08
-1.55
0.03
0.74
1.01
1.27
1.92
3.15
4.96
7.18
9.52
11.67
13.36
14.42
14.76
14.37
13.43
12.17
10.98
10.26
10.29
11.09
12.39
13.70
14.51
14.56
13.86
12.76
11.61
10.66
9.85
8.98
7.84
6.43
4.94
3.66
2.77
2.25
1.94
1.66
1.26
0.69
-0.09
-1.11
-2.38
-3.75
-4.98
-5.73
-5.69
-4.72
-2.87
-0.38
2.47
5.36
7.96
9.93
10.93
10.74
9.35
7.01
4.16
1.32
-1.11
-2.87
-3.97
-4.62
-5.21
-6.14
-7.77
-10.24
-13.40
-16.83
-19.93
-22.06
-22.75
-21.89
-19.72
-16.74
-13.52
-10.46
-7.74
-5.34
-3.18
-1.31
0.09
0.76
0.48
-0.77
-2.77
-5.14
-7.40
-9.14
-10.06
-9.94
-8.68
-6.34
-3.09
0.72
4.60
8.05
10.68
12.32
13.11
13.40
13.66
14.24
15.28
16.59
17.76
18.33
18.00
16.81
15.18
13.78
13.21
13.72
14.90
15.87
15.57
13.26
8.90
3.18
-2.76
-7.78
-11.09
-12.28
-11.30
-8.36
-3.97
0.95
5.22
7.67
7.79
6.05
3.88
2.97
4.26
7.32
10.45
11.58
9.52
4.71
-0.93
-5.07
-6.33
-5.15
-3.59
-4.17
-8.56
-16.57
-26.26
-34.99
-40.68
-42.77
-42.24
-40.83
-40.03
-40.27
-40.80
-40.30
-37.68
-32.86
-26.83
-21.20
-17.46
-16.29
-17.30
-19.29
-20.90
-21.24
-20.28
-18.78
-17.71
-17.73
-18.72
-19.82
-19.70
-17.24
-11.99
-4.40
4.31
12.63
19.37
24.12
27.26
29.81
32.80
36.70
41.23
45.31
47.67
47.37
44.19
38.76
32.41
26.71
23.02
22.33
25.10
31.52
41.46
54.41
68.92
82.48
92.08
95.32
91.65
82.56
70.72
58.26
45.52
31.21
14.25
-3.91
-18.66
-23.89
-15.67
4.32
28.07
43.74
40.15
10.61
-45.54
-123.66
-215.77
-312.09
-401.75
-473.55
-517.78
-528.43
-505.29
-454.41
-386.78
-315.34
-251.91
-204.53
-175.95
-163.06
-157.53
-147.99
-123.84
-79.63
-18.35
48.67
105.79
139.78
145.59
128.63
102.04
80.79
75.72
90.49
122.50
166.09
215.74
267.41
317.63
361.55
392.43
403.38
390.64
356.28
308.48
259.10
219.58
196.93
191.61
198.07
207.15
209.69
199.81
177.05
146.41
116.10
93.68
82.05
77.61
71.95
56.32
26.70
-13.69
-55.93
-89.81
-108.58
-111.06
-100.37
-80.94
-56.15
-27.97
1.74
29.99
52.96
67.91
74.85
76.67
76.99
77.09
74.21
62.55
36.87
-3.41
-51.84
-96.09
-122.46
-121.66
-93.16
-45.77
5.83
46.99
68.50
69.18
54.62
33.41
13.05
-2.42
-12.40
-18.22
-21.46
-22.97
-23.09
-22.32
-21.69
-22.85
-27.27
-35.39
-46.10
-56.90
-64.65
-66.97
-63.39
-55.60
-46.86
-40.66
-39.28
-42.94
-49.79
-56.73
-60.57
-59.17
-52.24
-41.49
-30.21
-22.14
-20.07
-24.80
-34.72
-46.56
-56.64
-62.40
-63.24
-60.43
-56.30
-53.09
-52.08
-53.23
-55.59
-57.79
-58.71
-57.77
-55.05
-50.93
-45.93
-40.33
-34.27
-27.83
-21.17
-14.59
-8.36
-2.55
2.94
8.23
13.01
16.48
17.60
15.75
11.31
5.67
0.71
-2.12
-2.40
-0.79
1.62
4.13
6.77
9.98
13.76
17.16
18.30
15.42
8.10
-2.03
-11.71
-17.41
-16.94
-10.40
-0.01
10.93
19.59
24.65
26.60
27.06
27.84
30.03
33.67
37.98
41.82
44.26
44.82
43.47
40.53
36.54
32.16
28.02
24.64
22.24
20.82
20.07
19.54
18.87
17.91
16.84
16.06
15.98
16.79
18.34
20.08
21.31
21.46
20.34
18.08
15.09
11.63
7.67
2.96
-2.66
-8.91
-14.94
-19.66
-22.17
-22.30
-20.64
-18.27
-16.07
-14.43
-13.23
-12.32
-12.12
-13.81
-18.95
-28.68
-42.78
-59.42
-75.51
-87.77
-93.82
-92.93
-85.97
-74.92
-62.12
-49.55
-38.58
-29.90
-23.66
-19.69
-17.63
-16.98
-17.14
-17.35
-16.74
-14.63
-10.97
-6.68
-3.49
-3.17
-6.31
-11.55
-16.00
-16.85
-13.32
-7.56
-3.63
-5.14
-12.81
-23.80
-33.42
-37.85
-36.41
-31.60
-27.02
-24.65
-23.39
-19.75
-10.22
6.34
27.98
50.78
71.09
87.51
101.25
115.01
130.92
148.92
166.43
179.67
185.59
183.65
176.16
167.36
161.37
160.32
163.50
167.79
169.10
163.83
150.03
127.66
98.18
63.91
27.42
-8.83
-42.74
-72.72
-97.77
-117.54
-132.30
-142.91
-150.43
-155.83
-159.61
-161.79
-162.00
-159.91
-155.44
-148.69
-139.75
-128.46
-114.53
-97.91
-79.14
-59.37
-39.87
-21.40
-3.83
13.55
31.33
49.15
65.49
78.20
85.52
86.93
83.36
76.71
68.80
60.62
52.05
42.32
30.79
17.56
3.66
-9.41
-20.27
-28.21
-33.24
-35.81
-36.37
-35.05
-31.74
-26.37
-19.22
-10.97
-2.58
5.10
11.55
16.59
20.21
22.42
23.16
22.44
20.51
17.88
15.21
13.10
11.82
11.28
11.06
10.60
9.44
7.30
4.12
0.12
-4.44
-9.24
-13.98
-18.54
-22.84
-26.87
-30.59
-33.98
-36.95
-39.49
-41.60
-43.32
-44.70
-45.67
-46.07
-45.65
-44.28
-41.84
-38.33
-33.70
-27.86
-20.72
-12.33
-3.19
5.88
13.81
19.83
23.73
26.04
27.77
29.86
32.78
36.21
39.37
41.44
42.02
41.38
40.19
39.10
38.31
37.61
36.49
34.62
32.05
29.27
26.88
25.34
24.67
24.49
24.23
23.29
21.26
18.03
13.76
8.89
4.16
0.43
-1.49
-1.23
0.94
4.15
7.15
8.74
8.13
5.11
0.08
-6.12
-12.38
-17.58
-20.76
-21.35
-19.39
-15.47
-10.58
-5.81
-2.01
0.47
1.79
2.42
2.92
3.60
4.46
5.25
5.64
5.52
5.10
4.81
5.08
6.05
7.48
8.88
9.77
10.03
9.84
9.64
9.77
10.35
11.31
12.50
13.87
15.41
17.02
18.36
18.99
18.46
16.65
13.83
10.56
7.47
4.90
2.90
1.20
-0.58
-2.75
-5.50
-8.86
-12.74
-16.89
-20.93
-24.37
-26.74
-27.75
-27.41
-26.03
-24.14
-22.29
-20.89
-20.15
-20.02
-20.29
-20.63
-20.76
-20.46
-19.69
-18.54
-17.17
-15.70
-14.13
-12.37
-10.32
-7.92
-5.25
-2.42
0.44
3.28
6.03
8.59
10.70
12.00
12.15
11.02
8.69
5.53
1.99
-1.50
-4.62
-7.20
-9.24
-10.89
-12.43
-14.17
-16.29
-18.81
-21.46
-23.84
-25.62
-26.63
-26.99
-27.02
-27.08
-27.38
-27.93
-28.47
-28.61
-27.94
-26.20
-23.37
-19.72
-15.74
-11.99
-8.89
-6.59
-4.92
-3.47
-1.69
0.94
4.87
10.33
17.25
25.25
33.66
41.62
48.25
52.80
54.75
53.98
50.72
45.61
39.58
33.62
28.54
24.74
22.11
20.10
18.03
15.35
11.86
7.71
3.29
-1.01
-4.77
-7.73
-9.66
-10.44
-10.03
-8.61
-6.52
-4.29
-2.50
-1.54
-1.51
-2.19
-3.08
-3.60
-3.30
-1.98
0.16
2.60
4.75
6.12
6.55
6.32
5.88
5.64
5.77
6.12
6.45
6.61
6.68
6.86
7.23
7.60
7.57
6.80
5.26
3.26
1.27
-0.32
-1.46
-2.32
-3.13
-3.95
-4.68
-5.14
-5.38
-5.70
-6.50
-8.00
-10.05
-12.11
-13.48
-13.67
-12.57
-10.50
-8.01
-5.61
-3.67
-2.33
-1.59
-1.45
-1.78
-2.41
-3.00
-3.18
-2.69
-1.52
0.11
1.85
3.43
4.71
5.69
6.36
6.63
6.36
5.45
4.01
2.33
0.76
-0.40
-1.10
-1.42
-1.49
-1.39
-1.10
-0.57
0.11
0.72
0.88
0.25
-1.28
-3.53
-6.10
-8.54
-10.53
-11.97
-12.91
-13.42
-13.47
-13.02
-12.02
-10.66
-9.27
-8.21
-7.72
-7.75
-7.97
-7.97
-7.48
-6.45
-5.08
-3.65
-2.37
-1.31
-0.35
0.63
1.72
2.90
4.02
4.89
5.36
5.37
4.94
4.22
3.37
2.57
1.99
1.74
1.84
2.22
2.69
2.95
2.72
1.81
0.23
-1.79
-3.82
-5.39
-6.08
-5.69
-4.26
-2.08
0.37
2.60
4.16
4.76
4.37
3.21
1.77
0.63
0.27
0.86
2.27
4.05
5.76
7.11
8.12
9.02
10.14
11.68
13.66
15.92
18.23
20.34
22.03
23.02
23.01
21.75
19.25
15.77
11.83
8.02
4.79
2.36
0.73
-0.22
-0.64
-0.66
-0.43
-0.10
0.18
0.33
0.37
0.43
0.69
1.31
2.47
4.34
7.09
10.75
15.15
19.78
23.96
27.01
28.58
28.77
28.14
27.44
27.33
28.10
29.64
31.49
33.11
34.05
34.18
33.55
32.26
30.25
27.11
22.22
14.95
5.04
-7.19
-20.89
-34.91
-48.18
-59.83
-69.23
-75.76
-78.73
-77.51
-71.86
-62.42
-50.75
-39.09
-29.77
-24.49
-23.84
-27.23
-33.30
-40.34
-46.79
-51.51
-53.74
-53.09
-49.61
-43.71
-36.15
-27.58
-18.12
-7.13
6.65
24.43
46.57
72.08
98.76
123.75
144.40
158.82
165.95
165.53
157.91
144.07
125.72
105.21
85.17
67.86
54.67
45.72
40.07
35.99
31.37
24.29
13.53
-1.03
-18.35
-36.43
-53.14
-66.97
-77.61
-85.83
-92.85
-99.47
-105.67
-110.64
-113.49
-113.80
-112.04
-109.29
-106.70
-104.90
-103.88
-103.03
-101.72
-99.60
-96.84
-94.01
-91.72
-90.36
-89.87
-89.88
-89.99
-90.02
-90.14
-90.78
-92.29
-94.71
-97.61
-100.32
-102.28
-103.24
-103.18
-102.04
-99.53
-95.18
-88.70
-80.27
-70.54
-60.31
-50.02
-39.52
-28.36
-16.35
-4.06
7.16
15.88
21.43
24.40
26.48
29.63
35.17
43.30
53.30
64.10
74.91
85.48
95.86
106.03
115.58
123.68
129.38
131.98
131.32
127.79
122.10
115.10
107.49
99.74
92.08
84.58
77.23
70.03
63.01
56.24
49.82
43.90
38.61
34.13
30.57
27.98
26.32
25.46
25.22
25.38
25.73
26.06
26.18
25.98
25.36
24.36
23.07
21.62
20.07
18.35
16.28
13.69
10.61
7.34
4.37
2.21
1.06
0.64
0.36
-0.43
-2.03
-4.21
-6.41
-8.02
-8.82
-9.05
-9.19
-9.60
-10.23
-10.65
-10.36
-9.16
-7.42
-5.90
-5.35
-6.09
-7.89
-10.14
-12.27
-14.07
-15.63
-17.19
-18.73
-19.89
-20.05
-18.80
-16.22
-12.95
-9.92
-7.90
-7.17
-7.50
-8.33
-9.12
-9.64
-9.87
-9.85
-9.54
-8.76
-7.36
-5.39
-3.17
-1.13
0.44
1.51
2.29
3.01
3.73
4.26
4.35
3.89
2.97
1.87
0.80
-0.17
-1.10
-2.05
-2.95
-3.64
-4.00
-4.05
-3.98
-4.03
-4.34
-4.87
-5.47
-6.00
-6.43
-6.82
-7.29
-7.85
-8.36
-8.60
-8.35
-7.49
-6.11
-4.40
-2.62
-0.88
0.85
2.76
5.03
7.70
10.58
13.37
15.72
17.39
18.33
18.64
18.47
18.03
17.48
17.01
16.69
16.50
16.25
15.74
14.83
13.61
12.30
11.22
10.48
10.02
9.54
8.74
7.51
5.92
4.22
2.66
1.34
0.24
-0.74
-1.65
-2.45
-3.00
-3.28
-3.34
-3.37
-3.63
-4.31
-5.50
-7.15
-9.06
-10.87
-12.14
-12.43
-11.49
-9.37
-6.50
-3.56
-1.25
-0.01
0.17
-0.28
-0.73
-0.67
0.09
1.33
2.61
3.39
3.37
2.48
0.89
-1.06
-3.04
-4.76
-6.03
-6.82
-7.23
-7.40
-7.44
-7.41
-7.24
-6.87
-6.34
-5.83
-5.61
-5.81
-6.35
-6.84
-6.86
-6.10
-4.65
-2.91
-1.36
-0.37
-0.00
-0.08
-0.35
-0.69
-1.17
-1.98
-3.22
-4.81
-6.46
-7.83
-8.68
-8.92
-8.68
-8.11
-7.40
-6.75
-6.28
-6.11
-6.26
-6.62
-7.02
-7.25
-7.22
-6.90
-6.37
-5.70
-4.87
-3.80
-2.42
-0.76
1.07
2.97
4.81
6.54
8.09
9.28
9.89
9.76
8.91
7.52
5.95
4.52
3.38
2.56
1.99
1.59
1.31
1.16
1.07
0.99
0.81
0.49
0.01
-0.61
-1.34
-2.16
-3.02
-3.82
-4.43
-4.79
-4.98
-5.19
-5.71
-6.62
-7.86
-9.15
-10.24
-10.97
-11.44
-11.84
-12.37
-13.13
-14.12
-15.34
-16.80
-18.56
-20.58
-22.76
-24.87
-26.70
-28.20
-29.50
-30.80
-32.21
-33.67
-34.97
-35.83
-36.09
-35.66
-34.56
-32.86
-30.67
-28.19
-25.59
-22.93
-19.97
-16.14
-10.68
-2.89
7.53
20.26
34.34
48.42
61.13
71.42
78.84
83.56
86.18
87.49
88.18
88.62
88.98
89.27
89.60
90.20
91.34
93.10
95.15
96.82
97.22
95.58
91.61
85.69
78.81
72.36
67.54
64.94
64.22
64.27
63.55
60.68
54.74
45.42
32.99
18.10
1.72
-14.88
-30.34
-43.45
-53.52
-60.57
-65.27
-68.58
-71.31
-73.81
-76.03
-77.72
-78.78
-79.35
-79.71
-80.04
-80.27
-79.98
-78.68
-75.97
-71.78
-66.36
-60.12
-53.50
-46.73
-39.84
-32.76
-25.51
-18.24
-11.37
-5.40
-0.78
2.27
3.81
4.19
3.83
3.07
2.03
0.56
-1.51
-4.24
-7.34
-10.26
-12.42
-13.48
-13.56
-13.15
-12.89
-13.18
-14.05
-15.18
-16.17
-16.74
-16.89
-16.84
-16.82
-16.96
-17.24
-17.53
-17.71
-17.71
-17.53
-17.16
-16.65
-15.96
-15.11
-14.11
-12.98
-11.75
-10.47
-9.22
-8.08
-7.14
-6.40
-5.78
-5.14
-4.38
-3.53
-2.76
-2.33
-2.40
-2.95
-3.73
-4.37
-4.61
-4.33
-3.67
-2.88
-2.17
-1.67
-1.35
-1.08
-0.71
-0.14
0.65
1.54
2.36
2.91
3.09
2.91
2.53
2.20
2.15
2.48
3.12
3.83
4.29
4.20
3.36
1.74
-0.46
-2.91
-5.17
-6.80
-7.52
-7.33
-6.50
-5.54
-4.99
-5.22
-6.29
-7.91
-9.59
-10.77
-11.09
-10.43
-8.94
-7.06
-5.34
-4.31
-4.26
-5.04
-6.06
-6.50
-5.62
-3.08
0.88
5.59
10.21
14.09
16.92
18.79
20.08
21.27
22.77
24.81
27.43
30.32
33.06
35.19
36.39
36.59
35.93
34.57
32.62
30.12
27.13
23.80
20.42
17.26
14.48
12.01
9.66
7.21
4.61
1.93
-0.57
-2.63
-4.00
-4.55
-4.23
-3.16
-1.61
0.07
1.51
2.54
3.25
3.97
5.11
6.92
9.35
12.00
14.31
15.80
16.28
15.86
14.92
13.85
12.93
12.20
11.53
10.75
9.69
8.33
6.72
5.02
3.48
2.30
1.72
1.82
2.50
3.50
4.43
4.91
4.69
3.75
2.25
0.41
-1.57
-3.65
-5.93
-8.57
-11.70
-15.28
-19.06
-22.67
-25.69
-27.79
-28.76
-28.56
-27.29
-25.18
-22.60
-20.03
-17.92
-16.53
-15.85
-15.50
-14.89
-13.41
-10.66
-6.67
-1.80
3.32
8.07
12.01
15.00
17.18
18.81
20.11
21.19
21.96
22.30
22.19
21.74
21.30
21.22
21.73
22.79
24.00
24.82
24.72
23.44
21.14
18.35
15.73
13.87
13.01
12.96
13.22
13.10
12.08
9.97
6.98
3.65
0.62
-1.65
-3.05
-3.81
-4.44
-5.45
-7.13
-9.44
-12.07
-14.51
-16.32
-17.31
-17.67
-17.87
-18.43
-19.71
-21.68
-23.95
-25.97
-27.30
-27.78
-27.53
-26.81
-25.81
-24.59
-23.17
-21.67
-20.32
-19.38
-19.03
-19.28
-19.95
-20.80
-21.56
-21.91
-21.52
-20.03
-17.32
-13.56
-9.23
-5.00
-1.42
1.38
3.72
6.17
9.30
13.41
18.54
24.55
31.21
38.36
45.84
53.42
60.80
67.63
73.71
79.12
84.29
89.86
96.35
103.79
111.62
118.75
124.01
126.70
126.85
125.15
122.54
119.68
116.67
113.09
108.24
101.45
92.22
80.32
65.87
49.35
31.44
12.78
-6.60
-27.46
-51.14
-78.64
-109.61
-141.62
-170.44
-191.32
-200.64
-197.35
-183.24
-162.15
-138.43
-115.48
-94.97
-76.90
-60.31
-44.11
-27.84
-11.92
2.31
13.05
18.57
17.88
11.25
0.30
-12.32
-23.68
-31.50
-34.81
-34.21
-31.45
-28.78
-28.22
-31.04
-37.49
-46.83
-57.48
-67.37
-74.44
-77.10
-74.53
-66.85
-54.88
-40.08
-24.45
-10.29
0.06
4.93
3.97
-1.50
-8.79
-14.99
-18.17
-18.12
-16.35
-14.97
-15.53
-18.18
-21.75
-24.47
-24.98
-22.87
-18.77
-13.82
-8.99
-4.68
-0.60
3.81
8.88
14.26
18.99
21.91
22.35
20.51
17.44
14.43
12.39
11.46
11.07
10.56
9.56
8.14
6.41
3.98
-0.21
-7.37
-17.93
-30.67
-42.57
-49.77
-49.04
-39.25
-21.96
-0.94
19.23
34.66
43.19
44.69
40.52
32.88
24.09
16.17
10.56
8.02
8.61
11.80
16.72
22.41
28.07
33.00
36.58
38.35
38.15
36.26
33.37
30.24
27.23
24.01
19.78
13.93
6.69
-0.66
-6.32
-8.87
-8.10
-5.19
-1.98
0.07
0.75
1.05
2.46
5.96
11.43
17.75
23.48
27.65
30.16
31.61
32.78
34.26
36.28
38.77
41.36
43.35
43.76
41.75
37.03
30.40
23.54
18.20
15.16
13.63
11.69
7.43
0.21
-8.92
-17.85
-24.76
-29.12
-31.66
-33.57
-35.42
-36.78
-36.79
-35.18
-32.90
-31.93
-34.15
-40.13
-48.60
-56.84
-62.05
-62.58
-58.67
-52.19
-45.84
-41.97
-41.80
-45.10
-50.29
-54.85
-56.07
-51.74
-40.98
-24.72
-5.64
12.67
26.95
35.61
39.25
40.24
41.45
44.87
50.86
58.27
65.33
70.69
73.90
75.32
75.54
74.78
72.83
69.30
64.12
57.79
51.29
45.60
41.10
37.36
33.33
27.88
20.43
11.34
1.91
-6.21
-11.69
-14.04
-13.79
-12.14
-10.41
-9.52
-9.88
-11.68
-15.12
-20.51
-27.96
-36.90
-45.78
-52.32
-54.35
-50.88
-42.72
-32.39
-23.11
-17.45
-16.36
-19.05
-23.64
-28.27
-31.80
-33.97
-34.98
-35.03
-34.09
-32.10
-29.20
-25.93
-23.02
-21.13
-20.60
-21.41
-23.27
-25.68
-28.02
-29.56
-29.69
-28.08
-24.84
-20.40
-15.21
-9.59
-3.83
1.57
5.72
7.68
7.12
4.79
2.58
2.64
6.27
13.11
21.16
27.83
31.26
31.18
28.81
26.00
24.20
23.94
24.98
26.96
29.89
34.07
39.61
45.86
51.26
53.82
52.08
46.02
37.24
28.44
22.32
20.44
22.70
27.56
32.85
36.63
37.77
35.97
31.47
24.80
16.74
8.42
1.25
-3.40
-4.87
-3.74
-1.88
-1.68
-4.99
-12.17
-21.82
-31.51
-38.94
-43.00
-44.11
-43.70
-43.40
-44.18
-46.10
-48.57
-50.90
-52.69
-53.93
-54.69
-54.85
-53.93
-51.50
-47.52
-42.85
-39.06
-37.79
-39.89
-44.70
-50.16
-53.66
-53.38
-49.16
-42.77
-37.08
-34.81
-37.35
-44.31
-53.85
-63.61
-71.73
-77.49
-81.41
-84.80
-89.04
-94.72
-101.25
-106.95
-109.70
-107.92
-101.13
-90.16
-76.57
-61.95
-47.40
-33.36
-19.99
-7.56
3.44
12.41
18.93
23.06
25.39
26.94
28.90
32.35
37.87
45.40
54.25
63.62
73.14
83.40
95.71
111.42
130.85
152.60
173.56
189.94
198.66
198.64
191.28
179.77
167.85
158.35
152.36
149.21
147.20
144.69
140.74
135.24
128.45
120.56
111.37
100.69
88.67
76.15
64.42
54.70
47.62
42.92
39.67
36.67
32.88
27.71
21.10
13.56
6.16
0.31
-2.64
-1.89
2.46
9.41
17.49
25.41
32.38
38.09
42.46
45.18
45.86
44.25
40.63
35.94
31.54
28.57
27.46
27.78
28.42
28.29
26.80
24.09
20.86
17.91
15.70
14.11
12.66
10.72
7.90
4.26
0.20
-3.70
-6.87
-9.00
-10.02
-10.19
-10.08
-10.54
-12.48
-16.59
-22.97
-30.96
-39.34
-46.80
-52.43
-56.02
-57.98
-59.01
-59.73
-60.35
-60.77
-60.69
-59.92
-58.51
-56.73
-54.93
-53.27
-51.66
-49.74
-47.22
-44.11
-40.87
-38.34
-37.34
-38.19
-40.43
-42.99
-44.49
-43.92
-41.05
-36.58
-31.79
-28.17
-26.74
-27.79
-30.77
-34.61
-38.18
-40.73
-42.16
-42.74
-42.91
-42.89
-42.66
-42.19
-41.77
-42.10
-43.96
-47.74
-52.96
-58.34
-62.34
-63.94
-63.26
-61.47
-60.23
-60.88
-63.80
-68.50
-74.02
-79.54
-84.72
-89.64
-94.39
-98.68
-101.81
-102.77
-100.58
-94.53
-84.39
-70.39
-53.50
-35.42
-18.54
-5.40
1.96
2.83
-1.88
-9.84
-18.13
-24.31
-27.25
-27.33
-26.05
-25.20
-26.04
-28.75
-32.49
-35.79
-37.23
-36.06
-32.41
-27.12
-21.32
-15.81
-10.85
-6.24
-1.53
3.57
9.07
14.74
20.12
24.71
28.05
29.87
30.25
29.73
29.16
29.44
31.01
33.67
36.76
39.66
42.25
45.04
48.76
53.76
59.72
65.87
71.58
76.79
82.04
88.06
95.09
102.70
109.93
115.79
119.72
121.65
121.80
120.40
117.52
113.30
108.02
102.19
96.39
91.01
86.16
81.78
77.74
73.91
70.02
65.59
59.91
52.34
42.65
31.27
19.24
7.82
-2.01
-9.83
-15.88
-20.71
-24.93
-28.89
-32.59
-35.74
-37.93
-38.82
-38.28
-36.47
-33.73
-30.51
-27.21
-24.04
-21.13
-18.51
-16.27
-14.55
-13.44
-12.89
-12.63
-12.25
-11.48
-10.30
-9.06
-8.32
-8.64
-10.26
-12.95
-16.01
-18.50
-19.63
-19.01
-16.80
-13.61
-10.21
-7.23
-5.00
-3.50
-2.55
-1.98
-1.70
-1.70
-2.01
-2.60
-3.37
-4.17
-4.87
-5.35
-5.55
-5.45
-5.06
-4.47
-3.79
-3.11
-2.50
-1.95
-1.40
-0.81
-0.12
0.74
1.88
3.38
5.25
7.25
8.94
9.75
9.27
7.53
5.08
2.69
0.94
-0.18
-1.43
-3.82
-7.93
-13.30
-18.39
-21.08
-19.63
-13.47
-3.38
8.74
20.66
30.42
36.75
39.08
37.48
32.49
25.16
17.05
9.97
5.63
5.24
9.05
16.36
25.75
35.58
44.31
50.87
54.70
55.78
54.64
52.20
49.67
48.15
48.17
49.37
50.50
49.90
46.34
39.76
31.45
23.51
17.64
14.13
11.45
6.80
-2.65
-18.43
-40.16
-65.69
-91.98
-116.01
-135.35
-148.27
-153.64
-150.94
-140.49
-123.73
-103.14
-81.60
-61.50
-43.94
-28.72
-14.98
-2.06
9.97
20.60
29.66
38.09
47.77
60.50
76.53
93.66
107.70
114.15
110.38
96.91
77.29
56.47
38.72
26.12
18.13
12.31
5.52
-4.79
-19.82
-39.07
-60.64
-81.82
-99.96
-113.33
-121.53
-125.29
-125.78
-123.91
-119.98
-113.97
-106.20
-97.81
-90.66
-86.60
-86.55
-89.89
-94.52
-97.66
-96.89
-91.01
-80.32
-66.31
-50.97
-36.19
-23.37
-13.38
-6.70
-3.51
-3.61
-6.23
-10.00
-13.16
-14.20
-12.42
-8.26
-3.10
1.55
4.65
6.19
6.99
8.23
10.72
14.57
19.18
23.72
27.62
30.88
34.03
37.71
42.25
47.36
52.35
56.40
59.10
60.62
61.69
63.19
65.70
69.20
73.12
76.67
79.23
80.50
80.44
78.92
75.60
69.98
61.75
51.20
39.42
27.95
18.20
10.83
5.38
0.61
-4.87
-11.80
-19.80
-27.43
-32.77
-34.13
-30.72
-22.93
-12.19
-0.51
10.08
18.31
24.08
28.56
33.78
41.78
53.56
68.48
84.31
98.05
107.11
110.47
109.04
105.47
103.33
105.92
115.19
130.71
149.23
165.12
171.84
164.20
140.44
103.16
58.19
12.31
-29.56
-65.98
-98.73
-131.26
-167.04
-208.56
-257.09
-312.51
-372.65
-432.56
-484.57
-519.90
-531.56
-517.13
-479.86
-427.33
-368.36
-309.78
-254.73
-202.84
-151.91
-99.85
-46.01
8.51
61.23
108.97
148.57
177.67
195.54
203.61
205.21
204.64
205.59
209.69
215.75
220.23
218.58
206.74
182.04
143.39
91.35
28.45
-40.43
-107.87
-164.86
-203.03
-217.38
-207.78
-178.52
-136.03
-86.27
-33.38
19.84
70.37
113.71
144.04
155.61
144.71
111.25
59.31
-3.33
-66.52
-119.65
-153.96
-164.49
-150.91
-117.14
-69.71
-16.01
37.12
83.88
119.59
140.90
146.61
138.40
120.92
100.63
84.01
75.81
78.11
90.29
109.51
131.17
149.43
158.05
151.82
128.31
89.08
39.56
-12.43
-58.94
-93.84
-113.72
-117.74
-107.16
-84.82
-55.05
-23.38
4.27
23.07
30.78
28.57
20.32
11.20
5.56
5.63
11.10
19.44
26.49
27.14
16.51
-8.38
-46.68
-92.75
-136.98
-168.43
-178.42
-163.53
-126.58
-75.12
-18.48
35.34
81.49
118.04
144.39
159.81
163.34
155.01
137.71
117.96
104.79
106.46
126.68
162.02
202.14
233.09
242.20
222.41
174.52
106.55
31.07
-38.28
-89.97
-116.91
-117.72
-96.75
-62.87
-26.87
1.50
16.25
16.36
5.58
-9.48
-22.17
-28.58
-29.22
-28.89
-34.49
-51.61
-81.19
-118.19
-153.06
-175.16
-176.60
-154.75
-112.53
-56.86
3.59
60.32
106.13
135.96
147.56
142.05
123.78
99.26
75.06
55.89
43.63
37.46
35.21
34.61
34.18
33.24
31.57
29.07
25.45
20.06
11.97
0.43
-14.52
-31.54
-47.98
-60.60
-66.68
-65.06
-56.39
-42.66
-26.20
-9.05
7.23
21.06
30.44
33.05
27.24
13.07
-6.82
-27.48
-43.08
-48.89
-43.18
-28.52
-11.65
-1.61
-6.65
-30.81
-71.69
-120.58
-165.18
-193.73
-198.65
-178.33
-136.60
-80.85
-19.82
38.03
85.61
117.93
133.03
132.57
121.52
106.83
95.04
90.26
93.24
101.89
112.59
121.39
124.71
119.59
103.89
77.03
40.72
-0.73
-41.26
-74.67
-96.61
-105.82
-104.02
-94.56
-80.71
-64.47
-46.56
-27.38
-7.97
9.41
21.86
26.95
23.92
14.07
0.43
-13.27
-23.81
-29.03
-27.98
-20.75
-8.24
7.61
23.36
33.75
32.65
15.12
-19.66
-66.31
-113.65
-147.73
-156.99
-136.83
-91.60
-32.81
25.33
71.04
98.31
107.35
102.75
90.64
76.43
63.77
54.62
49.66
48.88
51.79
57.46
64.59
71.39
75.82
76.03
71.05
61.36
49.11
37.72
30.78
30.68
37.61
49.21
61.28
69.36
70.43
64.20
53.11
41.23
32.44
28.74
29.63
32.65
34.90
34.44
30.88
24.90
17.27
8.07
-3.19
-16.77
-31.82
-46.05
-56.43
-60.46
-57.40
-48.74
-37.74
-28.16
-22.91
-23.11
-27.98
-35.41
-42.88
-48.37
-50.85
-50.34
-47.69
-44.03
-40.44
-37.65
-35.93
-35.13
-34.76
-34.23
-33.03
-31.01
-28.49
-26.43
-26.24
-29.25
-36.06
-45.84
-56.36
-64.61
-68.15
-66.25
-60.23
-52.64
-45.79
-40.44
-35.63
-29.60
-21.25
-11.01
-0.75
7.34
12.05
13.62
13.45
13.05
13.30
14.30
15.83
17.89
20.77
24.72
29.54
34.46
38.48
40.67
40.42
37.38
31.20
21.68
9.13
-5.07
-18.35
-27.48
-29.80
-24.36
-12.52
2.51
16.98
27.88
33.74
34.60
31.41
25.36
17.63
9.42
2.11
-2.66
-3.46
0.31
7.84
16.93
24.40
27.12
22.97
11.69
-4.85
-22.93
-37.94
-45.73
-44.06
-33.58
-17.72
-1.45
10.66
16.25
15.79
11.95
7.83
5.27
4.20
3.10
0.32
-4.72
-11.18
-17.45
-22.09
-24.57
-25.35
-25.34
-25.21
-25.00
-24.36
-22.97
-20.97
-18.89
-17.12
-15.40
-12.75
-8.18
-1.76
4.77
8.41
6.57
-1.15
-12.09
-21.51
-24.92
-20.56
-10.40
1.02
9.07
11.50
9.23
5.26
2.55
2.21
3.08
2.69
-1.18
-9.31
-20.66
-32.80
-42.77
-47.77
-45.88
-36.57
-21.09
-2.40
15.26
27.41
30.57
23.50
7.72
-12.73
-32.55
-46.72
-51.92
-47.20
-33.87
-14.76
6.75
27.57
45.43
59.08
68.27
73.58
76.09
77.03
77.56
78.53
80.46
83.52
87.71
93.01
99.13
105.19
109.29
108.24
98.20
75.99
41.13
-2.83
-48.46
-86.60
-109.64
-114.37
-102.89
-81.17
-56.10
-32.91
-14.09
-0.16
8.82
12.45
10.20
2.46
-8.77
-20.12
-28.15
-30.78
-28.02
-21.60
-13.81
-6.29
0.43
6.62
12.35
16.49
16.34
8.30
-10.29
-38.94
-72.81
-103.38
-121.14
-119.22
-96.13
-56.27
-7.93
39.92
80.66
111.13
131.08
141.65
144.16
140.01
131.15
120.47
111.48
107.10
108.48
114.54
122.43
128.51
129.77
124.47
112.33
94.23
71.39
44.70
14.20
-21.20
-63.75
-116.05
-179.62
-252.97
-330.34
-402.16
-457.34
-486.94
-487.56
-462.75
-421.57
-375.29
-333.52
-301.83
-281.34
-269.87
-263.72
-258.83
-251.48
-238.30
-216.52
-184.29
-141.07
-87.51
-25.03
44.53
118.70
193.65
263.70
321.69
361.03
378.16
374.33
355.23
328.51
300.61
274.48
249.70
224.56
198.84
175.22
158.49
153.11
160.71
178.97
202.33
224.18
238.94
243.73
238.76
226.82
212.06
198.43
188.23
181.56
176.75
171.47
164.19
154.85
144.53
134.55
125.29
115.88
104.68
90.13
71.05
46.53
15.61
-22.38
-66.68
-113.94
-158.13
-192.11
-210.41
-211.54
-198.51
-177.09
-153.00
-129.75
-108.40
-88.97
-72.20
-60.22
-55.49
-58.93
-68.65
-80.34
-88.99
-91.18
-86.54
-77.68
-68.96
-64.72
-67.93
-79.40
-97.56
-118.58
-137.02
-146.95
-143.92
-126.67
-97.85
-63.32
-29.91
-2.95
15.33
25.70
30.61
32.47
32.71
31.91
30.48
29.24
29.22
31.04
34.38
38.21
41.46
43.62
45.06
46.61
48.81
51.22
51.99
48.15
36.54
15.28
-14.86
-49.87
-83.34
-108.46
-120.44
-118.04
-103.70
-82.08
-58.20
-36.01
-17.95
-5.21
1.84
3.64
1.66
-1.61
-3.32
-1.41
4.33
12.03
18.53
20.86
17.75
10.33
1.92
-3.34
-2.15
6.29
19.45
32.01
37.80
32.44
15.51
-8.84
-33.31
-50.19
-54.13
-43.71
-21.35
8.06
38.87
65.96
85.42
94.73
93.04
81.38
62.74
41.61
22.92
10.63
6.52
9.79
17.50
25.57
30.36
29.97
24.92
17.83
12.29
11.29
15.92
24.87
34.70
40.65
37.76
22.17
-7.48
-48.77
-95.06
-136.64
-163.42
-168.47
-150.73
-115.60
-72.71
-32.25
-1.28
17.98
27.48
30.92
31.32
29.75
25.62
18.16
7.66
-4.14
-14.66
-21.84
-25.22
-26.13
-26.74
-28.53
-31.26
-33.06
-31.82
-26.98
-20.27
-15.01
-13.94
-17.30
-22.24
-24.27
-19.71
-7.70
9.35
27.03
41.10
49.09
50.83
47.83
42.23
36.15
31.21
28.53
28.54
30.72
33.63
35.22
33.72
28.51
20.54
12.15
6.19
4.88
8.91
17.20
27.27
35.95
40.15
37.69
28.04
12.88
-3.83
-16.71
-20.92
-14.55
-0.05
16.19
26.64
26.28
15.36
-0.67
-14.06
-18.87
-14.00
-3.35
6.85
11.65
9.96
4.49
-0.36
-1.38
1.75
6.63
9.90
9.34
4.85
-1.78
-8.21
-12.78
-15.03
-15.26
-13.74
-10.32
-4.82
2.23
8.98
12.68
11.00
3.47
-7.66
-18.16
-23.71
-21.97
-13.91
-3.30
4.94
6.88
1.15
-10.68
-24.81
-36.52
-41.56
-37.54
-24.77
-6.63
11.17
22.26
21.94
9.23
-12.50
-36.74
-56.39
-66.48
-65.60
-55.63
-40.20
-22.93
-6.42
7.82
18.89
26.32
30.22
31.57
32.20
34.22
38.93
46.10
53.89
59.60
60.76
56.19
46.36
33.10
18.97
6.37
-3.01
-8.55
-10.54
-10.06
-8.50
-7.32
-7.66
-10.26
-15.31
-22.43
-30.78
-39.17
-46.47
-51.84
-55.01
-56.33
-56.57
-56.71
-57.56
-59.66
-63.13
-67.70
-72.83
-77.89
-82.41
-86.28
-89.89
-93.92
-99.07
-105.68
-113.48
-121.74
-129.63
-136.41
-141.59
-144.57
-144.33
-139.39
-128.14
-109.43
-83.16
-50.27
-12.12
30.12
75.62
123.25
170.53
213.10
245.44
262.70
262.83
247.46
221.09
188.81
154.04
117.46
77.93
34.58
-11.62
-57.74
-100.28
-136.95
-167.45
-192.90
-214.31
-231.44
-242.77
-246.41
-241.45
-228.70
-210.32
-188.77
-165.76
-141.78
-116.11
-87.62
-55.30
-18.92
20.64
61.37
100.29
134.01
159.60
175.64
182.70
183.48
182.02
182.32
186.92
196.02
207.44
217.66
223.43
223.13
217.30
208.13
198.16
189.02
180.80
172.42
162.43
149.91
134.77
117.55
98.83
78.94
58.02
36.53
15.86
-1.62
-13.24
-17.12
-13.32
-4.12
6.55
14.52
16.91
13.14
4.83
-5.21
-14.30
-20.85
-24.63
-26.25
-26.39
-25.31
-22.80
-18.68
-13.15
-7.01
-1.42
2.65
4.78
5.26
4.78
4.05
3.40
2.77
1.80
0.21
-2.03
-4.69
-7.39
-9.85
-11.96
-13.78
-15.42
-16.91
-18.19
-19.16
-19.77
-20.11
-20.35
-20.58
-20.79
-20.91
-20.83
-20.55
-20.15
-19.75
-19.43
-19.10
-18.62
-17.86
-16.79
-15.47
-14.05
-12.65
-11.36
-10.20
-9.20
-8.39
-7.80
-7.45
-7.30
-7.27
-7.34
-7.46
-7.66
-7.93
-8.25
-8.54
-8.66
-8.53
-8.12
-7.50
-6.84
-6.31
-6.02
-6.01
-6.21
-6.51
-6.79
-7.01
-7.23
-7.53
-7.99
-8.54
-8.97
-9.01
-8.46
-7.28
-5.65
-3.90
-2.40
-1.42
-1.04
-1.23
-1.84
-2.69
-3.55
-4.25
-4.62
-4.62
-4.32
-3.91
-3.61
-3.59
-3.88
-4.44
-5.06
-5.59
-5.88
-5.87
-5.56
-5.01
-4.36
-3.78
-3.45
-3.51
-3.95
-4.60
-5.21
-5.57
-5.61
-5.44
-5.34
-5.55
-6.18
-7.11
-8.07
-8.71
-8.76
-8.16
-7.03
-5.64
-4.29
-3.15
-2.29
-1.62
-1.01
-0.39
0.18
0.59
0.71
0.54
0.22
-0.07
-0.16
-0.12
-0.13
-0.40
-0.98
-1.74
-2.39
-2.66
-2.42
-1.84
-1.18
-0.76
-0.77
-1.23
-2.01
-2.91
-3.79
-4.53
-5.13
-5.56
-5.83
-5.91
-5.80
-5.56
-5.26
-4.98
-4.80
-4.69
-4.58
-4.37
-3.99
-3.45
-2.81
-2.21
-1.74
-1.52
-1.56
-1.84
-2.29
-2.76
-3.07
-3.04
-2.52
-1.44
0.16
2.09
4.05
5.74
6.88
7.39
7.33
6.90
6.36
5.87
5.48
5.05
4.40
3.37
1.95
0.29
-1.39
-2.86
-3.96
-4.59
-4.73
-4.41
-3.67
-2.64
-1.46
-0.33
0.55
1.06
1.17
0.96
0.58
0.19
-0.05
-0.07
0.15
0.49
0.82
0.98
0.86
0.44
-0.26
-1.17
-2.18
-3.14
-3.91
-4.38
-4.52
-4.39
-4.18
-4.05
-4.18
-4.61
-5.26
-6.00
-6.69
-7.22
-7.54
-7.66
-7.57
-7.27
-6.67
-5.67
-4.17
-2.15
0.24
2.74
5.03
6.86
8.11
8.80
9.02
8.87
8.44
7.83
7.11
6.33
5.48
4.45
3.10
1.34
-0.84
-3.26
-5.68
-7.86
-9.61
-10.87
-11.60
-11.78
-11.39
-10.51
-9.33
-8.18
-7.40
-7.19
-7.56
-8.29
-9.03
-9.46
-9.44
-9.04
-8.47
-7.95
-7.62
-7.46
-7.36
-7.19
-6.91
-6.54
-6.13
-5.69
-5.17
-4.48
-3.59
-2.56
-1.52
-0.62
0.06
0.52
0.87
1.18
1.48
1.68
1.70
1.49
1.13
0.81
0.71
0.86
1.14
1.29
1.09
0.48
-0.38
-1.23
-1.82
-2.09
-2.14
-2.18
-2.39
-2.77
-3.20
-3.50
-3.57
-3.39
-3.10
-2.82
-2.62
-2.54
-2.53
-2.61
-2.70
-2.75
-2.63
-2.21
-1.43
-0.36
0.78
1.75
2.35
2.55
2.47
2.29
2.18
2.23
2.41
2.64
2.80
2.76
2.44
1.85
1.13
0.48
0.13
0.19
0.59
1.18
1.73
2.18
2.51
2.83
3.20
3.59
3.84
3.78
3.34
2.59
1.74
1.01
0.53
0.27
0.08
-0.22
-0.72
-1.41
-2.15
-2.76
-3.06
-3.00
-2.58
-1.84
-0.76
0.76
2.94
6.00
10.08
15.08
20.57
25.83
30.11
32.91
34.30
35.05
36.36
39.37
44.61
51.70
59.44
66.35
71.37
74.43
76.69
80.33
87.96
101.99
123.79
153.00
187.06
221.38
250.10
267.60
270.22
257.73
233.59
203.87
175.15
152.11
136.13
125.36
116.25
105.67
92.43
77.33
61.99
47.25
32.15
14.15
-9.63
-40.85
-79.16
-122.31
-166.88
-209.22
-245.90
-273.97
-291.27
-297.03
-292.47
-281.16
-268.19
-258.42
-254.50
-255.50
-257.32
-254.42
-242.45
-220.19
-190.10
-157.01
-126.02
-100.28
-80.23
-64.16
-49.84
-36.21
-24.12
-15.66
-12.71
-15.50
-22.09
-29.12
-33.31
-32.95
-28.43
-21.68
-15.08
-10.36
-8.18
-8.42
-10.60
-14.17
-18.40
-22.16
-24.21
-23.77
-21.31
-18.61
-18.05
-21.27
-28.20
-36.99
-44.97
-50.05
-51.46
-49.75
-45.77
-39.76
-31.08
-18.82
-2.95
15.00
32.14
45.32
52.50
53.59
50.47
46.08
43.14
43.23
46.35
51.17
55.89
58.93
59.48
57.44
53.10
46.80
38.94
30.28
22.09
15.92
12.71
11.99
11.74
9.26
2.80
-7.07
-17.34
-23.90
-23.73
-16.58
-5.26
5.85
12.92
14.47
11.61
7.06
3.47
2.20
2.97
4.52
5.50
5.23
4.00
2.84
3.04
5.53
10.65
17.84
25.73
32.52
36.44
36.10
30.73
20.16
4.93
-13.49
-32.69
-49.50
-60.92
-65.28
-63.25
-57.78
-53.04
-52.55
-57.62
-66.95
-77.50
-86.02
-90.56
-90.97
-88.34
-84.05
-78.85
-72.22
-62.53
-47.54
-25.30
4.77
41.39
81.38
120.50
154.63
180.89
197.83
204.85
201.20
185.70
157.54
117.87
71.24
25.38
-10.87
-30.92
-33.30
-22.57
-7.39
3.31
4.28
-4.01
-16.27
-25.79
-28.39
-24.55
-18.74
-16.48
-20.95
-31.14
-42.66
-50.35
-51.12
-45.25
-35.55
-25.32
-16.70
-10.22
-5.61
-3.01
-3.23
-7.09
-14.31
-22.95
-29.92
-32.22
-28.30
-18.82
-6.43
5.15
12.39
13.22
7.68
-2.06
-12.60
-20.55
-23.90
-22.61
-18.24
-13.01
-8.78
-6.57
-6.68
-9.21
-14.21
-21.65
-30.82
-40.10
-46.89
-48.20
-41.55
-25.80
-1.86
27.22
56.80
81.80
97.94
102.79
96.30
80.62
59.45
37.10
17.66
3.97
-3.18
-5.43
-6.41
-10.37
-20.21
-35.81
-53.66
-68.10
-73.73
-67.90
-51.73
-29.34
-5.82
14.88
30.88
41.81
47.61
47.64
41.02
27.93
10.90
-5.15
-14.41
-12.70
0.33
20.51
40.47
52.44
51.20
35.84
9.80
-20.65
-48.70
-68.90
-78.20
-76.08
-64.02
-44.89
-22.52
-1.23
15.12
24.30
26.79
25.82
26.00
31.14
42.46
58.22
75.08
90.22
102.74
113.45
123.42
132.54
139.05
140.47
135.14
123.06
105.44
83.58
58.28
30.37
1.98
-22.70
-38.51
-41.86
-33.40
-18.93
-7.62
-8.28
-25.50
-57.81
-98.29
-137.24
-165.16
-175.10
-164.14
-134.14
-91.90
-48.15
-14.73
-0.14
-5.54
-23.66
-41.64
-47.01
-33.66
-4.34
31.49
63.40
85.44
98.00
105.87
113.83
123.39
132.40
137.28
135.57
126.91
112.29
92.84
69.37
43.06
16.32
-7.28
-24.37
-33.41
-35.37
-33.00
-29.21
-25.72
-23.04
-21.39
-21.57
-24.90
-32.16
-42.38
-52.67
-59.34
-59.66
-53.39
-42.91
-32.20
-25.17
-24.08
-28.60
-36.08
-42.62
-44.48
-39.34
-27.12
-9.86
9.05
26.10
38.89
46.63
49.93
49.91
47.04
40.82
30.30
15.25
-2.71
-20.13
-32.90
-38.16
-35.72
-28.20
-19.64
-13.41
-10.81
-10.90
-11.52
-10.93
-8.72
-5.83
-3.75
-3.58
-5.45
-8.41
-10.73
-10.20
-4.76
6.77
23.80
43.63
61.93
74.05
77.00
70.62
57.51
41.57
25.97
11.92
-1.18
-14.39
-27.77
-39.94
-48.87
-53.19
-53.16
-50.52
-47.38
-45.03
-43.37
-41.42
-38.28
-33.95
-29.50
-26.36
-25.54
-27.14
-30.45
-34.20
-36.97
-37.28
-33.85
-25.99
-14.03
0.55
15.62
29.31
40.87
50.81
60.10
69.14
76.88
81.20
80.06
72.81
60.81
46.87
33.92
23.80
16.91
12.84
11.17
11.71
14.16
17.47
19.81
19.28
15.07
8.09
0.49
-5.48
-8.90
-10.38
-11.29
-12.23
-12.14
-8.69
0.17
14.20
30.03
42.07
44.84
35.58
15.43
-10.99
-37.46
-58.39
-70.26
-71.87
-63.91
-48.37
-28.22
-7.19
10.68
21.78
24.05
17.54
4.44
-11.81
-27.76
-40.83
-49.86
-54.87
-56.72
-56.62
-55.84
-55.35
-55.71
-57.01
-58.72
-59.88
-59.43
-56.64
-51.51
-44.69
-37.07
-28.97
-19.66
-7.39
9.61
31.99
58.61
86.82
113.53
136.40
154.18
166.22
171.61
168.88
156.64
135.07
106.72
76.30
48.98
28.37
15.19
7.60
2.74
-1.82
-7.36
-14.44
-23.58
-35.45
-50.02
-65.50
-78.04
-83.09
-77.76
-62.81
-42.95
-24.75
-13.49
-10.59
-13.24
-16.36
-15.53
-9.44
-0.20
8.27
12.77
12.94
11.47
12.53
19.05
30.63
43.46
52.25
53.17
46.05
34.52
23.69
16.96
13.95
10.74
2.62
-12.59
-32.68
-51.76
-63.34
-63.86
-54.60
-40.97
-29.57
-24.72
-26.36
-30.51
-32.08
-28.23
-20.40
-13.49
-12.80
-20.47
-33.63
-45.63
-49.64
-42.47
-26.47
-8.24
4.93
8.86
4.21
-4.47
-11.70
-14.11
-11.76
-7.38
-4.18
-3.77
-5.44
-6.85
-5.75
-1.43
4.80
10.30
12.69
11.16
6.93
2.51
0.25
0.96
3.40
4.95
3.11
-3.00
-12.11
-21.38
-27.98
-30.44
-29.27
-26.44
-24.26
-24.24
-26.66
-30.80
-35.56
-39.94
-43.25
-45.06
-45.11
-43.26
-39.56
-34.24
-27.51
-19.46
-10.11
0.34
11.17
21.00
28.27
32.21
33.64
35.21
40.35
51.58
69.02
89.95
109.89
124.51
131.20
129.48
120.09
103.77
80.67
50.85
15.57
-21.86
-56.51
-83.41
-99.57
-105.23
-103.52
-98.98
-95.86
-96.91
-103.15
-114.05
-127.77
-141.13
-149.65
-148.27
-132.82
-101.77
-57.37
-5.33
46.91
92.66
127.97
152.16
166.93
174.79
177.54
175.77
169.32
158.12
142.89
125.13
106.64
88.75
71.91
55.88
40.23
25.07
11.35
0.59
-5.66
-6.61
-2.65
4.66
13.37
21.88
29.52
36.52
43.36
50.02
55.44
57.59
54.10
43.47
25.92
3.56
-20.47
-43.35
-63.84
-82.27
-99.75
-116.93
-132.36
-142.10
-140.79
-124.04
-90.75
-43.91
9.92
62.40
104.66
129.83
134.44
118.72
85.82
41.34
-6.78
-49.11
-76.82
-86.47
-81.28
-69.65
-61.00
-61.11
-68.88
-76.44
-74.02
-55.63
-25.62
3.77
19.13
13.23
-12.26
-48.82
-86.13
-117.71
-132.88
-126.57
-102.89
-73.11
-46.51
-25.37
-7.45
9.47
22.36
29.93
28.23
14.01
-13.42
-51.96
-98.67
-151.59
-204.11
-250.13
-282.56
-296.85
-291.60
-268.64
-232.14
-187.49
-139.73
-92.35
-48.06
-8.34
24.60
49.34
66.90
80.96
95.95
114.09
133.66
148.89
153.47
143.14
118.62
85.75
53.04
27.77
13.36
9.04
11.24
16.50
22.62
29.06
36.00
43.16
49.13
51.99
50.69
46.00
40.74
38.32
40.68
47.01
53.96
57.62
55.93
49.95
43.19
39.52
41.00
46.97
54.75
61.42
65.33
66.56
66.22
65.49
65.31
66.43
69.85
76.76
87.79
102.18
117.47
130.10
136.78
135.84
127.90
115.43
101.70
89.43
79.87
72.75
67.07
62.10
58.31
57.27
60.76
69.51
82.20
95.67
106.13
110.90
109.49
103.38
94.66
84.30
71.22
52.81
26.74
-7.19
-46.11
-84.58
-116.45
-136.92
-144.09
-139.22
-126.05
-109.36
-93.61
-81.91
-75.52
-74.09
-76.10
-79.46
-82.17
-82.78
-80.64
-76.00
-69.80
-63.51
-58.69
-56.67
-58.02
-62.28
-67.97
-72.93
-75.05
-72.97
-66.48
-56.50
-44.66
-32.72
-22.11
-13.85
-8.65
-6.96
-8.81
-13.38
-18.75
-22.28
-21.49
-15.27
-4.41
8.73
21.44
31.92
40.00
46.77
53.65
61.47
70.20
79.29
88.21
96.65
104.37
110.90
115.31
116.36
112.78
103.73
89.01
69.33
46.29
22.34
0.23
-17.61
-29.73
-35.92
-37.03
-34.40
-29.36
-23.17
-17.13
-12.74
-11.35
-13.59
-18.93
-25.88
-32.91
-39.42
-46.03
-53.77
-62.79
-71.56
-77.36
-77.91
-72.89
-64.41
-55.68
-49.06
-44.71
-40.74
-34.96
-26.69
-17.40
-9.71
-5.53
-4.68
-5.15
-4.49
-1.50
3.12
7.38
9.35
8.22
4.46
-0.66
-5.82
-10.10
-12.89
-13.79
-12.39
-8.50
-2.17
6.17
15.97
26.47
36.56
44.71
49.14
48.54
42.91
33.98
24.68
17.85
14.84
14.75
15.06
12.95
6.96
-2.34
-12.70
-21.33
-26.16
-26.46
-22.76
-16.22
-8.24
-0.16
6.60
10.72
11.17
7.59
0.55
-8.52
-17.69
-25.21
-29.88
-31.27
-29.61
-25.55
-20.04
-14.29
-9.93
-8.66
-11.79
-19.22
-29.15
-38.33
-43.36
-42.29
-35.49
-25.43
-15.30
-7.40
-2.17
1.39
4.49
7.35
8.82
7.21
1.55
-7.48
-17.73
-26.48
-31.80
-33.15
-31.23
-27.20
-21.91
-15.60
-8.03
0.89
10.83
20.94
30.23
37.85
43.33
46.70
48.58
50.35
54.06
62.01
75.71
94.60
115.36
132.66
141.38
139.37
129.14
117.17
110.94
115.03
128.82
146.78
161.55
167.67
163.80
152.36
136.87
119.03
97.41
68.76
31.01
-13.96
-59.84
-98.33
-122.95
-132.11
-129.45
-121.29
-113.10
-107.34
-104.09
-103.26
-106.42
-116.17
-133.14
-152.98
-166.05
-161.18
-132.04
-82.00
-24.21
23.71
47.83
44.06
19.09
-14.07
-42.99
-61.24
-69.43
-72.27
-74.09
-75.74
-74.76
-67.96
-54.53
-37.66
-23.51
-18.42
-26.04
-45.55
-71.61
-95.76
-108.84
-103.72
-77.68
-33.71
19.95
71.98
111.44
131.07
129.09
108.59
75.38
35.28
-7.45
-50.03
-90.14
-124.75
-150.04
-162.39
-159.67
-142.15
-112.55
-75.16
-34.80
3.88
36.68
60.16
72.02
71.85
61.76
46.20
30.80
20.59
18.43
24.33
36.03
50.26
64.11
75.70
84.11
88.92
89.83
86.77
80.30
71.99
64.20
59.40
59.19
63.56
70.79
78.03
82.51
82.71
79.03
73.62
69.27
68.25
71.26
77.33
84.42
90.46
94.27
95.73
95.55
94.44
92.67
89.83
85.08
77.52
66.66
52.62
36.06
18.12
0.20
-16.30
-30.17
-40.62
-47.35
-50.64
-51.19
-50.03
-48.14
-46.34
-45.02
-44.13
-43.30
-42.02
-39.87
-36.55
-32.06
-26.53
-20.20
-13.42
-6.54
0.08
6.25
11.93
17.32
22.37
26.43
27.84
24.05
12.40
-8.92
-39.85
-78.21
-120.11
-161.12
-197.45
-226.85
-248.92
-264.78
-276.58
-286.73
-297.29
-309.32
-322.33
-334.12
-341.24
-339.97
-327.62
-303.56
-269.51
-228.90
-185.70
-143.08
-102.48
-63.42
-24.08
17.56
62.40
109.37
155.24
195.35
224.98
240.87
242.16
230.74
210.59
186.68
163.79
145.57
133.99
129.15
129.48
132.32
134.91
135.44
133.73
131.34
130.75
134.23
142.77
155.62
170.41
183.88
192.67
194.19
187.19
172.07
150.89
126.83
103.41
83.60
69.03
59.78
54.56
51.37
48.12
43.15
35.64
25.55
13.55
0.70
-11.78
-22.90
-31.98
-38.74
-43.23
-45.76
-46.77
-46.86
-46.68
-46.83
-47.69
-49.32
-51.41
-53.44
-54.88
-55.37
-54.83
-53.48
-51.63
-49.62
-47.67
-45.87
-44.26
-42.84
-41.60
-40.51
-39.42
-38.04
-36.08
-33.30
-29.75
-25.79
-22.01
-19.01
-17.14
-16.35
-16.21
-16.14
-15.61
-14.43
-12.75
-10.93
-9.31
-8.13
-7.38
-6.94
-6.69
-6.54
-6.54
-6.73
-7.15
-7.72
-8.27
-8.57
-8.46
-7.87
-6.92
-5.83
-4.90
-4.38
-4.42
-5.02
-6.05
-7.24
-8.21
-8.55
-7.89
-6.08
-3.24
0.21
3.67
6.56
8.49
9.36
9.37
8.83
8.07
7.28
6.52
5.76
4.97
4.17
3.47
2.93
2.54
2.19
1.72
1.04
0.20
-0.57
-1.00
-0.96
-0.58
-0.15
-0.06
-0.49
-1.43
-2.71
-4.16
-5.61
-6.95
-8.00
-8.48
-8.11
-6.77
-4.60
-2.01
0.41
2.20
3.13
3.27
2.86
2.14
1.23
0.20
-0.90
-2.02
-2.98
-3.68
-4.03
-3.99
-3.60
-2.91
-2.03
-1.06
-0.18
0.43
0.67
0.58
0.30
0.05
-0.05
-0.06
-0.28
-1.03
-2.48
-4.52
-6.71
-8.47
-9.29
-8.88
-7.33
-5.00
-2.44
-0.20
1.32
1.91
1.61
0.62
-0.77
-2.25
-3.58
-4.56
-5.13
-5.25
-4.97
-4.40
-3.74
-3.28
-3.31
-4.08
-5.69
-7.97
-10.53
-12.77
-14.16
-14.41
-13.62
-12.32
-11.30
-11.28
-12.70
-15.50
-19.13
-22.55
-24.48
-23.63
-19.03
-10.48
1.22
14.31
26.50
35.64
40.40
40.70
37.55
32.61
27.46
23.23
20.30
18.56
17.66
17.33
17.34
17.45
17.28
16.40
14.54
11.78
8.72
6.23
5.13
5.71
7.63
9.95
11.59
11.75
10.23
7.36
3.85
0.42
-2.34
-4.11
-4.75
-4.31
-3.05
-1.32
0.44
1.84
2.63
2.81
2.56
2.15
1.82
1.71
1.81
2.03
2.21
2.21
1.95
1.43
0.73
-0.00
-0.62
-1.04
-1.26
-1.39
-1.53
-1.71
-1.86
-1.86
-1.67
-1.36
-1.15
-1.36
-2.20
-3.70
-5.68
-7.79
-9.64
-10.90
-11.42
-11.20
-10.43
-9.39
-8.40
-7.76
-7.60
-7.93
-8.59
-9.36
-10.05
-10.53
-10.77
-10.87
-10.96
-11.21
-11.73
-12.52
-13.50
-14.49
-15.32
-15.91
-16.46
-17.37
-19.23
-22.49
-27.19
-32.88
-38.59
-43.24
-46.07
-47.16
-47.46
-48.52
-51.69
-57.46
-65.12
-73.00
-79.35
-83.08
-84.14
-83.24
-81.37
-79.39
-77.94
-77.81
-79.97
-85.26
-93.55
-103.06
-110.52
-112.38
-106.54
-93.56
-76.63
-59.94
-46.71
-37.68
-31.21
-24.69
-16.40
-6.62
2.50
8.17
8.57
3.83
-3.98
-11.91
-17.32
-18.90
-17.04
-13.45
-10.30
-9.14
-10.35
-12.89
-14.83
-14.07
-9.02
1.15
16.51
36.67
61.04
88.66
118.06
147.12
173.33
194.32
208.45
215.21
215.01
208.78
197.20
180.57
158.97
132.79
103.38
73.22
45.48
23.14
8.11
0.80
0.27
4.91
13.22
24.27
37.58
52.70
68.80
84.52
98.21
108.60
115.22
118.62
119.96
120.39
120.54
120.28
118.91
115.66
110.15
102.64
93.94
85.04
76.67
69.13
62.27
55.72
49.25
42.86
36.90
31.77
27.66
24.38
21.43
18.27
14.50
10.16
5.51
0.91
-3.43
-7.48
-11.40
-15.39
-19.61
-24.18
-29.16
-34.43
-39.66
-44.31
-47.86
-49.99
-50.86
-51.01
-51.08
-51.41
-51.94
-52.21
-51.79
-50.52
-48.62
-46.53
-44.51
-42.54
-40.25
-37.29
-33.53
-29.22
-24.84
-20.87
-17.49
-14.59
-11.83
-8.92
-5.73
-2.41
0.76
3.50
5.70
7.39
8.72
9.76
10.44
10.58
10.00
8.75
7.22
6.13
6.30
8.28
11.94
16.28
19.68
20.45
17.46
10.76
1.59
-7.99
-15.78
-20.13
-20.35
-16.77
-10.53
-3.21
3.56
8.33
10.14
8.72
4.51
-1.34
-7.35
-12.13
-14.84
-15.35
-14.23
-12.39
-10.69
-9.65
-9.37
-9.69
-10.42
-11.48
-12.85
-14.48
-16.10
-17.32
-17.74
-17.26
-16.15
-14.91
-14.05
-13.75
-13.83
-13.91
-13.63
-12.97
-12.15
-11.48
-11.14
-11.06
-11.03
-10.88
-10.56
-10.24
-10.07
-10.20
-10.58
-11.10
-11.56
-11.82
-11.83
-11.58
-11.25
-11.14
-11.57
-12.74
-14.59
-16.81
-19.01
-20.89
-22.36
-23.54
-24.62
-25.66
-26.61
-27.35
-27.77
-27.85
-27.56
-26.81
-25.47
-23.39
-20.50
-16.90
-12.87
-8.81
-5.15
-2.16
0.02
1.46
2.32
2.87
3.39
4.16
5.39
7.11
9.16
11.13
12.55
13.03
12.48
11.11
9.35
7.60
6.09
4.85
3.80
2.80
1.80
0.77
-0.28
-1.34
-2.34
-3.17
-3.71
-3.84
-3.59
-3.10
-2.63
-2.46
-2.75
-3.44
-4.29
-4.94
-5.10
-4.70
-3.93
-3.21
-2.98
-3.45
-4.47
-5.65
-6.49
-6.71
-6.31
-5.52
-4.66
-3.90
-3.21
-2.49
-1.71
-1.04
-0.85
-1.45
-2.89
-4.76
-6.30
-6.75
-5.70
-3.40
-0.53
2.08
3.92
4.99
5.70
6.58
7.88
9.49
11.09
12.42
13.57
14.88
16.73
19.21
22.03
24.69
26.89
28.80
30.98
34.04
38.13
42.78
46.92
49.45
49.82
48.38
46.28
44.90
45.27
47.56
50.98
54.14
55.77
55.44
53.93
52.97
54.30
58.59
64.63
69.65
70.34
64.20
50.15
28.55
0.43
-32.85
-69.21
-105.19
-135.78
-155.75
-161.51
-152.64
-131.57
-101.79
-66.01
-25.71
17.50
60.06
95.97
118.60
124.00
113.41
93.27
72.49
58.63
54.94
59.86
68.55
74.97
73.71
60.90
35.16
-1.60
-43.93
-84.03
-114.21
-129.75
-130.79
-122.07
-110.62
-102.73
-101.66
-106.84
-114.84
-120.99
-121.10
-112.58
-94.91
-69.54
-39.53
-8.79
18.81
40.23
53.99
60.07
59.73
55.03
48.35
42.07
38.22
37.88
40.88
45.59
49.52
50.27
46.66
39.19
29.68
20.26
12.13
5.01
-2.44
-11.59
-22.69
-34.56
-45.18
-52.91
-57.51
-60.33
-63.60
-69.11
-77.23
-86.58
-94.71
-99.24
-98.91
-94.02
-86.15
-77.40
-69.56
-63.62
-59.75
-57.58
-56.60
-56.41
-56.78
-57.47
-58.17
-58.38
-57.61
-55.54
-52.12
-47.68
-42.79
-38.10
-34.10
-30.98
-28.65
-26.78
-25.07
-23.34
-21.67
-20.31
-19.58
-19.63
-20.40
-21.63
-22.96
-24.19
-25.36
-26.72
-28.51
-30.87
-33.69
-36.76
-39.96
-43.30
-46.89
-50.75
-54.66
-58.11
-60.49
-61.18
-59.81
-56.35
-51.11
-44.77
-38.24
-32.43
-27.83
-24.35
-21.18
-17.21
-11.65
-4.54
3.08
9.57
13.34
13.58
10.52
5.38
-0.02
-3.77
-4.32
-0.93
6.24
16.10
27.02
37.40
46.19
53.24
59.17
64.85
70.78
76.70
81.61
84.27
83.67
79.55
72.46
63.57
54.25
45.71
38.70
33.57
30.33
28.85
28.93
30.29
32.46
34.75
36.41
36.81
35.73
33.52
30.99
29.10
28.53
29.32
30.79
31.86
31.52
29.35
25.65
21.38
17.60
15.02
13.61
12.75
11.56
9.41
6.30
2.77
-0.42
-2.66
-3.92
-4.53
-4.98
-5.56
-6.19
-6.60
-6.62
-6.48
-6.80
-8.14
-10.70
-13.88
-16.50
-17.31
-15.64
-11.77
-6.80
-2.03
1.68
4.34
6.61
9.32
12.82
16.73
20.19
22.37
22.92
22.10
20.46
18.46
16.27
13.92
11.57
9.69
8.90
9.58
11.53
13.90
15.58
15.75
14.30
11.91
9.60
8.28
8.22
9.06
10.01
10.32
9.55
7.63
4.76
1.21
-2.81
-7.14
-11.47
-15.35
-18.19
-19.48
-19.03
-17.07
-14.21
-11.13
-8.39
-6.22
-4.71
-3.98
-4.33
-6.15
-9.68
-14.66
-20.16
-24.89
-27.59
-27.65
-25.39
-21.95
-18.84
-17.29
-17.79
-19.92
-22.70
-24.90
-25.57
-24.24
-20.98
-16.26
-10.78
-5.26
-0.36
3.45
6.00
7.31
7.56
6.80
4.85
1.31
-4.22
-11.75
-20.76
-30.19
-38.89
-45.99
-51.16
-54.67
-57.15
-59.28
-61.59
-64.39
-67.81
-71.85
-76.44
-81.36
-86.31
-90.88
-94.67
-97.05
-97.17
-94.06
-86.73
-74.34
-56.12
-31.31
0.72
39.84
84.31
130.27
172.19
204.50
223.72
230.00
227.15
220.99
216.81
217.34
222.12
228.59
233.82
235.94
234.46
229.71
222.03
211.55
198.43
183.41
167.84
153.30
140.70
129.86
119.64
108.76
96.54
83.13
69.03
54.31
38.17
19.31
-3.12
-28.75
-55.71
-81.44
-103.77
-121.73
-135.59
-146.07
-153.61
-158.06
-159.28
-157.85
-155.47
-154.36
-156.01
-160.15
-164.49
-165.98
-162.48
-154.34
-144.36
-136.38
-133.20
-135.05
-139.64
-143.36
-142.97
-136.57
-123.75
-105.14
-82.17
-56.88
-31.77
-9.40
8.47
21.41
30.46
37.47
44.44
52.64
62.40
73.16
83.79
93.15
100.48
105.79
109.82
113.84
118.93
125.59
133.66
142.45
151.05
158.35
162.94
163.27
158.22
147.54
132.05
113.04
91.47
67.92
43.18
19.27
-0.55
-13.14
-17.60
-16.39
-14.42
-16.44
-24.13
-35.34
-45.66
-51.48
-52.15
-50.08
-48.74
-50.14
-53.79
-57.28
-58.16
-55.56
-50.52
-45.26
-41.86
-41.29
-43.24
-46.60
-49.97
-52.21
-52.61
-50.92
-47.38
-42.73
-38.00
-34.19
-31.79
-30.41
-28.98
-26.17
-21.18
-14.20
-6.33
0.92
6.38
9.64
11.11
11.64
12.17
13.37
15.58
18.79
22.60
26.39
29.31
30.73
30.36
28.46
25.67
22.76
20.36
18.83
18.34
18.89
20.41
22.58
24.84
26.44
26.68
25.29
22.43
18.84
15.49
13.37
13.25
15.64
20.72
28.37
38.07
48.86
59.32
67.78
72.66
72.79
67.67
57.53
43.16
25.83
7.14
-11.09
-26.99
-39.11
-46.77
-50.36
-51.16
-50.83
-50.63
-51.08
-51.90
-52.52
-52.64
-52.47
-52.60
-53.61
-55.71
-58.65
-61.83
-64.55
-66.21
-66.44
-65.25
-63.15
-61.15
-60.45
-61.69
-64.36
-66.51
-65.40
-58.77
-46.13
-29.22
-11.50
3.28
12.51
15.43
12.92
6.58
-2.15
-12.29
-23.13
-33.75
-42.80
-48.72
-50.23
-46.84
-39.05
-28.32
-16.65
-6.14
1.45
5.01
4.22
-0.47
-8.08
-17.10
-25.80
-32.24
-34.62
-31.64
-23.01
-9.73
5.97
21.13
32.97
39.58
40.47
36.50
29.59
22.13
16.46
14.36
16.69
23.15
32.29
42.03
50.25
55.72
58.52
60.02
62.27
66.94
74.67
84.74
95.54
105.20
112.31
116.13
116.52
113.77
108.49
101.83
95.35
90.76
89.15
90.32
92.56
93.20
89.74
80.98
67.62
51.89
36.53
23.58
13.51
5.31
-2.87
-12.65
-24.78
-38.97
-54.55
-71.26
-89.91
-112.41
-141.04
-177.49
-221.82
-271.98
-323.82
-371.82
-410.16
-434.04
-440.80
-430.28
-404.68
-367.52
-322.75
-274.05
-224.61
-177.24
-134.35
-97.77
-68.47
-46.48
-31.03
-20.85
-14.31
-9.32
-3.15
7.40
25.29
52.22
87.92
130.21
175.62
220.45
261.29
295.23
319.61
332.09
331.12
316.65
290.72
257.19
220.92
186.62
157.82
136.46
122.89
116.12
114.19
114.62
114.93
113.42
109.60
104.24
98.76
94.39
91.45
89.30
86.98
84.10
81.44
80.71
83.61
90.55
99.92
108.17
110.87
104.48
87.97
63.66
36.92
14.43
1.78
1.03
9.54
20.36
24.54
14.30
-14.01
-58.36
-111.60
-163.71
-204.99
-228.78
-233.26
-221.52
-200.49
-178.99
-165.54
-166.33
-183.59
-215.03
-254.14
-292.04
-319.83
-330.93
-322.49
-295.41
-252.97
-199.20
-137.85
-72.63
-8.20
49.19
92.40
115.46
116.31
98.04
68.11
35.30
6.21
-16.87
-35.63
-53.23
-71.52
-89.25
-102.59
-106.99
-99.43
-79.69
-50.38
-15.79
19.34
51.10
77.35
98.05
114.93
130.58
147.06
164.78
182.23
196.76
206.01
209.21
207.45
202.83
197.14
190.88
183.24
172.95
159.46
143.50
126.73
110.73
96.07
82.12
67.65
51.79
34.85
18.24
3.89
-6.71
-13.20
-16.36
-17.67
-18.61
-20.17
-22.64
-25.75
-28.93
-31.47
-32.78
-32.40
-30.20
-26.46
-21.80
-17.04
-12.91
-9.81
-7.61
-5.78
-3.67
-0.77
2.99
7.31
11.64
15.51
18.56
20.63
21.54
21.12
19.23
15.88
11.40
6.35
1.42
-2.92
-6.54
-9.72
-13.00
-16.95
-21.96
-28.17
-35.46
-43.54
-51.98
-60.15
-67.22
-72.10
-73.66
-71.07
-64.12
-53.48
-40.59
-27.33
-15.41
-5.96
0.72
5.03
7.76
9.65
11.16
12.31
12.78
12.07
9.78
5.92
1.02
-3.94
-7.92
-10.30
-11.13
-11.11
-11.13
-11.90
-13.58
-15.84
-18.16
-20.09
-21.49
-22.38
-22.82
-22.81
-22.29
-21.25
-19.75
-17.99
-16.18
-14.56
-13.37
-12.78
-12.97
-13.90
-15.30
-16.73
-17.77
-18.20
-18.25
-18.53
-19.76
-22.45
-26.51
-31.23
-35.54
-38.43
-39.44
-38.93
-37.90
-37.61
-39.13
-42.89
-48.65
-55.56
-62.58
-68.75
-73.50
-76.80
-79.23
-81.93
-86.15
-92.86
-102.19
-113.27
-124.52
-134.16
-140.89
-144.08
-143.80
-140.26
-133.62
-124.10
-112.35
-99.78
-88.14
-78.70
-71.28
-63.98
-53.87
-38.31
-16.04
12.57
46.11
83.18
123.04
165.44
209.90
255.07
298.69
338.41
372.69
401.38
425.50
446.44
464.98
480.90
493.09
500.20
501.39
496.95
488.17
476.99
465.13
453.42
441.45
427.63
409.94
386.68
357.24
322.42
284.09
244.47
205.23
166.94
128.97
90.06
49.22
6.48
-36.93
-78.99
-117.93
-153.09
-185.37
-216.90
-250.32
-287.78
-330.24
-377.11
-426.11
-473.53
-514.50
-543.69
-556.47
-550.29
-525.72
-486.38
-437.63
-384.34
-329.09
-271.65
-210.37
-144.50
-76.09
-9.98
47.91
93.35
125.60
147.17
161.78
171.57
175.34
168.95
147.75
109.52
56.61
-3.77
-61.57
-107.06
-133.88
-140.85
-132.08
-115.47
-100.31
-94.02
-99.72
-114.94
-132.31
-142.01
-135.12
-106.83
-58.34
3.32
67.33
122.38
159.92
176.42
173.67
157.30
134.27
110.27
88.39
69.38
53.03
39.63
30.58
27.43
29.98
35.39
38.79
35.58
24.03
6.30
-12.63
-27.83
-37.03
-41.63
-45.13
-50.43
-57.74
-64.72
-68.68
-69.09
-68.60
-71.74
-82.29
-101.22
-126.65
-155.40
-184.82
-213.16
-238.41
-256.64
-261.97
-248.76
-215.14
-165.55
-110.23
-61.49
-28.71
-14.69
-15.44
-23.07
-29.86
-31.54
-27.92
-21.57
-15.29
-10.27
-5.65
0.48
9.42
20.84
32.60
41.81
46.19
45.17
40.20
34.08
29.67
28.64
30.85
34.61
37.57
37.81
34.59
28.39
20.57
12.78
6.46
2.59
1.71
3.92
8.93
15.99
23.90
31.01
35.45
35.57
30.47
20.44
6.96
-7.66
-20.98
-31.20
-37.57
-40.51
-41.22
-41.32
-42.33
-45.36
-50.94
-58.81
-68.07
-77.42
-85.69
-92.31
-97.40
-101.65
-105.78
-110.21
-114.90
-119.44
-123.19
-125.32
-124.75
-120.31
-111.15
-97.27
-79.73
-60.32
-40.84
-22.15
-3.93
14.92
35.42
57.64
80.53
102.37
121.48
136.73
147.56
153.65
154.70
150.47
141.16
127.82
112.25
96.50
82.15
69.92
59.85
51.80
46.07
43.41
44.59
49.63
57.41
65.74
72.05
74.32
71.70
64.62
54.31
42.20
29.50
17.15
5.99
-3.08
-9.41
-12.82
-13.99
-14.32
-15.54
-19.13
-25.88
-35.86
-48.60
-63.34
-79.29
-95.71
-111.89
-127.00
-139.93
-149.17
-153.02
-150.01
-139.61
-122.60
-100.68
-75.49
-47.46
-15.52
22.05
65.77
113.48
160.14
199.66
227.57
243.22
249.92
252.95
256.61
262.27
268.55
273.22
275.58
277.58
282.69
293.47
309.30
325.90
336.85
336.19
320.82
291.29
251.09
204.98
157.68
113.12
74.42
43.81
22.33
9.33
2.30
-2.37
-8.19
-17.15
-28.96
-41.38
-51.23
-55.64
-52.98
-43.29
-28.22
-10.52
6.86
21.67
32.79
40.11
43.74
43.16
36.68
21.86
-3.31
-38.92
-82.14
-127.65
-169.07
-201.01
-220.61
-227.97
-225.37
-215.93
-202.31
-186.22
-168.54
-149.83
-130.86
-112.69
-96.39
-82.61
-71.36
-62.12
-54.23
-47.21
-40.89
-35.43
-31.43
-29.74
-31.19
-35.94
-42.84
-49.25
-51.96
-48.78
-40.13
-29.37
-21.46
-20.48
-27.39
-39.60
-52.48
-62.07
-67.12
-69.21
-71.11
-74.27
-77.62
-78.07
-72.73
-61.10
-45.89
-31.91
-23.65
-22.98
-28.34
-35.63
-40.38
-39.90
-34.39
-26.46
-19.60
-16.34
-17.00
-19.73
-21.42
-19.25
-11.87
0.08
14.50
28.87
41.53
52.46
63.12
75.45
90.48
107.30
123.11
134.62
139.74
138.72
133.89
128.14
123.33
119.67
116.42
113.23
110.94
110.93
113.53
116.66
116.06
107.17
87.80
59.70
27.93
-1.60
-24.96
-41.87
-55.21
-68.89
-85.38
-104.33
-122.88
-137.29
-145.02
-145.98
-142.61
-138.76
-138.09
-142.64
-152.25
-164.76
-176.89
-185.35
-187.89
-184.09
-175.54
-165.49
-157.64
-154.72
-156.96
-161.41
-162.72
-155.11
-134.97
-102.57
-62.21
-20.55
15.94
43.19
60.25
68.60
70.63
68.16
62.11
53.03
41.93
30.93
22.83
20.19
24.06
33.37
45.18
55.87
62.61
64.53
63.07
61.06
61.27
64.94
71.18
77.41
80.68
79.00
72.16
61.57
49.61
38.70
30.63
26.32
25.71
27.79
30.69
31.82
28.54
19.11
3.64
-15.46
-34.10
-48.13
-55.19
-55.56
-51.59
-45.71
-38.53
-28.17
-11.39
14.11
47.44
84.11
117.50
141.70
153.72
153.85
144.41
128.24
107.92
86.11
66.19
52.24
48.28
56.83
77.61
107.38
141.13
173.87
202.58
226.74
247.03
264.07
277.12
283.70
280.47
264.97
236.82
198.56
154.55
108.29
62.14
17.21
-26.14
-67.94
-108.24
-147.94
-188.09
-229.23
-272.46
-316.09
-355.10
-382.86
-394.50
-388.14
-366.29
-332.93
-292.00
-250.00
-211.90
-180.07
-154.75
-135.55
-121.57
-113.90
-113.66
-122.08
-144.40
-182.88
-233.77
-287.92
-335.17
-367.46
-383.39
-384.98
-350.26
-272.13
-163.03
-48.35
51.24
121.96
173.79
215.19
251.91
287.76
319.12
341.48
352.01
350.31
337.41
316.23
288.92
258.91
229.43
198.98
165.88
131.04
98.90
75.22
64.62
65.93
73.74
80.29
76.89
60.00
33.22
4.96
-16.36
-25.95
-24.96
-17.55
-8.81
-4.23
-8.07
-22.81
-48.37
-81.25
-113.84
-136.52
-140.50
-122.30
-86.37
-43.20
-4.26
23.35
39.39
48.91
57.73
68.35
78.60
83.70
80.35
69.47
56.24
47.02
45.54
50.76
57.61
60.01
54.37
41.39
25.41
12.27
6.56
9.91
20.87
35.81
50.48
61.25
65.98
64.17
56.84
45.94
33.68
21.84
11.34
2.30
-5.46
-11.91
-16.63
-18.98
-18.71
-16.45
-13.61
-11.88
-12.32
-14.62
-17.06
-17.34
-14.00
-7.52
-0.45
3.82
2.88
-3.30
-12.24
-20.25
-24.33
-23.34
-18.24
-11.08
-3.76
2.57
7.30
9.81
9.32
5.45
-1.00
-7.82
-12.16
-12.06
-7.85
-2.08
1.73
0.96
-4.69
-13.23
-21.67
-27.83
-31.43
-33.98
-37.65
-43.81
-52.25
-61.30
-68.91
-73.79
-75.92
-76.30
-76.27
-76.52
-76.76
-76.03
-73.35
-68.41
-61.91
-55.39
-50.63
-48.80
-49.74
-51.87
-52.67
-49.76
-42.29
-31.65
-20.97
-13.43
-10.35
-10.11
-8.92
-3.02
8.82
24.14
37.77
44.41
41.51
30.56
16.41
4.81
-0.25
2.02
9.25
17.47
23.01
23.90
20.30
14.12
7.96
4.05
3.48
6.04
10.66
15.88
20.42
23.41
24.37
23.13
19.85
15.09
9.71
4.80
1.40
0.28
1.71
5.47
10.91
17.03
22.63
26.52
27.95
26.98
24.71
23.00
23.72
27.99
35.32
43.78
50.56
53.25
50.84
44.27
36.06
29.27
26.15
27.23
31.17
35.44
37.64
36.43
32.01
25.65
18.74
11.85
4.39
-4.72
-16.23
-29.51
-42.60
-52.99
-58.86
-60.05
-58.05
-54.93
-51.98
-48.87
-43.95
-35.55
-23.53
-9.90
1.83
8.42
8.49
3.30
-4.12
-10.50
-13.97
-14.58
-13.74
-13.11
-13.61
-15.11
-16.81
-17.84
-17.73
-16.39
-13.96
-10.58
-6.51
-2.20
1.69
4.55
6.11
6.66
6.89
7.40
8.27
8.90
8.34
5.91
1.67
-3.53
-8.40
-11.84
-13.41
-13.40
-12.56
-11.67
-11.23
-11.35
-11.89
-12.52
-12.89
-12.73
-11.94
-10.75
-9.75
-9.72
-11.23
-14.34
-18.37
-22.12
-24.33
-24.17
-21.65
-17.53
-12.99
-9.11
-6.55
-5.41
-5.38
-6.00
-6.78
-7.28
-7.01
-5.55
-2.72
1.18
5.27
8.37
9.47
8.20
5.19
1.85
-0.29
-0.23
2.01
5.49
8.82
10.88
11.25
10.27
8.79
7.52
6.74
6.22
5.51
4.33
2.81
1.40
0.53
0.35
0.52
0.42
-0.48
-2.34
-4.82
-7.33
-9.27
-10.48
-11.15
-11.69
-12.43
-13.46
-14.61
-15.55
-16.06
-16.01
-15.41
-14.26
-12.55
-10.29
-7.63
-4.93
-2.63
-1.16
-0.69
-1.09
-1.92
-2.63
-2.69
-1.75
0.23
2.99
5.95
8.37
9.60
9.38
7.95
5.94
4.09
2.75
1.75
0.60
-1.15
-3.47
-5.73
-7.08
-6.83
-4.89
-1.80
1.66
4.78
7.20
8.84
9.63
9.41
7.93
5.20
1.60
-2.04
-4.73
-5.67
-4.55
-1.63
2.44
6.77
10.50
12.93
13.65
12.64
10.34
7.54
5.14
3.78
3.56
4.08
4.65
4.85
4.73
4.85
5.97
8.49
12.16
16.07
18.99
19.92
18.61
15.55
11.78
8.43
6.24
5.28
5.01
4.61
3.45
1.48
-0.72
-2.30
-2.67
-1.94
-0.92
-0.77
-2.26
-5.26
-8.76
-11.30
-11.69
-9.60
-5.69
-1.25
2.38
4.46
4.99
4.64
4.33
4.72
5.95
7.61
9.07
9.78
9.55
8.59
7.30
6.01
4.82
3.67
2.46
1.31
0.46
0.22
0.73
1.91
3.47
5.06
6.40
7.28
7.61
7.30
6.34
4.85
3.09
1.35
-0.19
-1.63
-3.32
-5.77
-9.29
-13.80
-18.82
-23.63
-27.54
-30.10
-31.12
-30.57
-28.46
-24.86
-20.06
-14.63
-9.37
-5.09
-2.29
-0.98
-0.77
-1.02
-1.23
-1.06
-0.46
0.55
1.88
3.35
4.69
5.52
5.57
4.79
3.44
1.99
0.85
0.19
-0.19
-0.60
-1.31
-2.22
-3.03
-3.37
-3.09
-2.36
-1.57
-1.13
-1.31
-2.19
-3.68
-5.66
-7.95
-10.30
-12.33
-13.57
-13.56
-12.02
-8.88
-4.27
1.36
7.38
13.06
17.62
20.50
21.45
20.61
18.50
15.81
13.18
11.04
9.50
8.43
7.64
6.99
6.56
6.54
7.10
8.13
9.19
9.65
9.04
7.41
5.43
4.08
4.06
5.27
6.66
6.76
4.46
-0.13
-5.49
-9.31
-9.65
-5.97
0.49
7.27
11.99
13.49
12.26
10.03
8.52
8.55
9.59
10.41
10.06
8.55
6.89
6.33
7.48
9.77
11.76
11.97
9.81
5.89
1.69
-1.26
-2.25
-1.58
-0.25
0.77
1.18
1.36
2.08
3.85
6.51
9.31
11.39
12.22
11.89
10.94
9.96
9.20
8.48
7.49
6.03
4.23
2.46
1.03
-0.07
-1.19
-2.68
-4.63
-6.73
-8.41
-9.24
-9.20
-8.74
-8.41
-8.56
-8.99
-9.03
-7.93
-5.23
-1.08
3.85
8.59
12.21
14.10
14.03
12.07
8.58
4.22
-0.15
-3.54
-5.13
-4.61
-2.38
0.60
3.10
4.20
3.69
2.01
0.01
-1.48
-2.02
-1.57
-0.41
1.08
2.49
3.43
3.57
2.73
0.99
-1.26
-3.41
-4.97
-5.83
-6.44
-7.50
-9.61
-12.72
-16.08
-18.45
-18.63
-16.11
-11.28
-5.21
0.81
5.89
9.85
13.05
16.07
19.26
22.63
25.91
28.68
30.52
30.97
29.60
26.19
21.00
14.95
9.45
5.90
5.13
6.96
10.46
14.47
18.09
21.04
23.41
25.33
26.64
27.01
26.27
24.63
22.67
20.89
19.44
17.97
15.89
12.88
9.22
5.62
2.86
1.34
0.85
0.81
0.61
-0.05
-1.04
-2.05
-2.80
-3.21
-3.39
-3.53
-3.75
-4.15
-4.82
-5.87
-7.30
-8.82
-9.95
-10.11
-8.93
-6.50
-3.31
0.02
3.08
5.80
8.37
10.93
13.28
14.89
15.14
13.71
10.70
6.66
2.18
-2.25
-6.50
-10.47
-13.96
-16.47
-17.40
-16.39
-13.67
-10.11
-6.89
-4.98
-4.69
-5.56
-6.79
-7.66
-7.97
-8.02
-8.25
-8.80
-9.46
-9.79
-9.56
-9.01
-8.75
-9.30
-10.62
-11.94
-12.08
-10.11
-5.89
-0.34
4.96
8.49
9.35
7.60
4.08
-0.06
-3.83
-6.61
-8.16
-8.44
-7.51
-5.53
-2.82
0.09
2.63
4.39
5.29
5.59
5.67
5.86
6.21
6.49
6.33
5.39
3.50
0.69
-2.82
-6.71
-10.48
-13.52
-15.18
-15.00
-12.98
-9.67
-6.09
-3.37
-2.29
-2.93
-4.66
-6.53
-7.69
-7.87
-7.37
-6.79
-6.55
-6.59
-6.33
-5.00
-2.18
1.94
6.55
10.52
12.94
13.51
12.59
10.97
9.52
8.74
8.69
9.03
9.29
9.14
8.51
7.50
6.33
5.14
4.00
2.99
2.23
1.94
2.34
3.39
4.76
5.82
5.91
4.65
2.24
-0.65
-3.10
-4.38
-4.27
-3.14
-1.70
-0.60
-0.16
-0.33
-0.77
-1.21
-1.60
-2.13
-3.08
-4.56
-6.42
-8.26
-9.56
-9.91
-9.14
-7.40
-5.01
-2.44
-0.10
1.69
2.79
3.26
3.33
3.34
3.62
4.36
5.48
6.70
7.58
7.81
7.32
6.37
5.40
4.85
4.94
5.62
6.64
7.72
8.60
9.22
9.57
9.70
9.62
9.37
8.91
8.22
7.27
6.05
4.65
3.28
2.23
1.74
1.80
2.06
1.93
0.81
-1.63
-5.23
-9.48
-13.71
-17.39
-20.29
-22.39
-23.71
-24.17
-23.63
-21.90
-19.00
-15.15
-10.74
-6.36
-2.61
-0.09
0.85
0.15
-1.74
-4.08
-6.00
-6.89
-6.63
-5.54
-4.18
-3.03
-2.27
-1.80
-1.32
-0.55
0.63
2.16
3.81
5.25
6.17
6.37
5.84
4.83
3.73
2.90
2.54
2.64
3.07
3.66
4.33
4.94
5.33
5.25
4.43
2.82
0.72
-1.29
-2.60
-2.80
-1.92
-0.43
0.97
1.64
1.21
-0.33
-2.65
-5.17
-7.25
-8.32
-8.09
-6.71
-4.72
-2.86
-1.78
-1.72
-2.44
-3.35
-3.93
-3.95
-3.55
-3.05
-2.67
-2.33
-1.77
-0.77
0.63
2.13
3.33
4.05
4.42
4.83
5.62
6.81
7.97
8.49
7.80
5.78
2.78
-0.45
-3.05
-4.39
-4.23
-2.83
-0.68
1.60
3.66
5.34
6.80
8.21
9.56
10.56
10.69
9.48
6.77
3.02
-0.83
-3.61
-4.43
-3.06
-0.05
3.48
6.36
7.72
7.27
5.24
2.11
-1.52
-5.05
-7.87
-9.40
-9.22
-7.34
-4.31
-1.05
1.38
2.33
1.69
-0.09
-2.29
-4.17
-5.25
-5.27
-4.20
-2.27
0.00
1.86
2.56
1.64
-0.65
-3.39
-5.32
-5.43
-3.46
0.00
3.76
6.59
7.69
6.85
4.41
0.99
-2.65
-5.79
-7.81
-8.35
-7.46
-5.65
-3.70
-2.32
-1.81
-2.01
-2.52
-2.99
-3.48
-4.24
-5.52
-7.22
-8.91
-10.11
-10.61
-10.69
-10.78
-11.13
-11.39
-10.82
-8.79
-5.37
-1.57
1.05
1.21
-1.34
-5.53
-9.44
-11.28
-10.26
-6.92
-2.69
0.85
2.71
2.85
1.92
0.76
-0.05
-0.33
-0.24
0.03
0.39
0.94
1.84
3.17
4.74
6.15
6.87
6.53
5.04
2.76
0.37
-1.35
-1.83
-0.94
0.93
3.03
4.44
4.46
2.83
-0.07
-3.34
-5.87
-6.82
-5.99
-3.95
-1.87
-0.90
-1.66
-3.91
-6.67
-8.74
-9.25
-8.09
-5.83
-3.38
-1.46
-0.32
0.26
0.68
1.22
1.85
2.30
2.35
2.06
1.71
1.71
2.23
3.10
3.91
4.25
3.93
3.08
2.06
1.17
0.61
0.31
0.17
0.06
-0.02
-0.07
-0.02
0.16
0.50
1.04
1.77
2.57
3.17
3.22
2.48
1.04
-0.64
-1.91
-2.22
-1.46
-0.08
1.15
1.48
0.61
-1.25
-3.46
-5.37
-6.55
-6.99
-6.83
-6.23
-5.13
-3.36
-0.84
2.22
5.26
7.58
8.67
8.46
7.39
6.20
5.57
5.84
6.91
8.31
9.51
10.16
10.20
9.77
9.11
8.42
7.80
7.38
7.34
7.86
8.99
10.46
11.70
11.94
10.63
7.70
3.69
-0.47
-3.85
-5.85
-6.38
-5.69
-4.21
-2.40
-0.73
0.22
-0.19
-2.48
-6.75
-12.53
-18.78
-24.26
-27.94
-29.46
-29.15
-27.91
-26.73
-26.27
-26.63
-27.32
-27.62
-26.92
-25.06
-22.36
-19.40
-16.63
-14.17
-11.71
-8.83
-5.25
-1.12
3.05
6.62
8.98
9.82
9.09
7.06
4.33
1.76
0.29
0.66
3.08
7.04
11.57
15.68
18.84
21.20
23.35
25.82
28.55
30.79
31.34
29.13
23.75
15.74
6.40
-2.50
-9.30
-12.85
-12.77
-9.62
-4.62
0.62
4.60
6.46
6.22
4.64
2.87
1.83
1.87
2.73
3.86
4.79
5.41
5.94
6.65
7.53
8.25
8.33
7.53
6.00
4.24
2.73
1.49
0.06
-2.25
-5.72
-9.80
-13.04
-13.70
-10.68
-4.24
3.83
10.89
14.50
13.41
7.88
-0.66
-10.28
-19.22
-26.10
-29.93
-30.03
-26.25
-19.42
-11.48
-5.23
-3.36
-7.37
-16.75
-29.02
-40.63
-48.24
-49.92
-45.66
-37.15
-27.02
-17.96
-11.96
-10.13
-12.78
-19.63
-29.94
-42.52
-55.60
-66.95
-74.51
-76.95
-74.44
-68.68
-62.44
-58.49
-58.63
-63.16
-71.00
-80.24
-88.82
-95.06
-98.02
-97.72
-95.27
-92.74
-92.61
-96.95
-106.76
-121.61
-139.86
-159.18
-176.86
-190.20
-196.64
-193.93
-180.61
-156.30
-121.70
-78.20
-27.40
28.67
86.65
141.30
185.71
213.07
219.31
205.00
175.45
138.86
103.27
74.01
52.84
38.53
28.59
21.24
16.35
15.30
20.30
33.53
56.28
88.54
128.71
173.69
219.69
263.12
301.32
332.79
356.77
372.61
379.26
375.53
361.16
337.76
309.15
280.52
256.61
239.58
227.99
217.32
201.95
177.53
142.24
96.51
41.72
-21.25
-92.38
-171.06
-254.02
-334.36
-402.28
-448.05
-465.64
-454.87
-421.04
-372.45
-317.07
-260.33
-205.09
-152.82
-105.12
-64.21
-32.31
-10.58
1.71
7.10
9.22
11.74
17.51
28.00
42.97
60.79
79.01
95.20
107.84
116.55
121.79
124.13
123.70
120.20
113.47
103.94
92.87
81.94
72.72
66.14
62.35
60.76
60.42
60.32
59.71
58.17
55.62
52.14
47.84
42.86
37.29
31.26
24.87
18.21
11.29
4.16
-3.09
-10.35
-17.47
-24.35
-30.90
-36.88
-41.76
-44.77
-45.18
-42.70
-37.87
-31.59
-24.16
-14.27
1.31
26.63
64.53
114.55
172.21
229.99
279.84
315.75
335.27
339.33
330.80
312.67
287.15
255.65
219.62
181.31
143.56
108.81
78.14
50.93
26.00
2.93
-16.98
-31.34
-38.23
-37.87
-33.29
-29.37
-31.21
-42.22
-62.95
-90.84
-120.97
-147.49
-165.48
-172.49
-169.36
-159.72
-148.40
-139.36
-134.26
-132.46
-132.09
-131.82
-131.44
-131.63
-132.99
-135.23
-137.28
-137.92
-136.46
-132.99
-128.11
-122.62
-117.16
-112.14
-107.53
-103.01
-98.11
-92.62
-87.01
-82.27
-79.46
-78.98
-80.11
-81.15
-80.30
-76.62
-70.51
-63.40
-56.82
-51.57
-47.38
-43.41
-39.00
-34.30
-30.10
-27.18
-25.74
-25.27
-25.03
-24.69
-24.64
-25.59
-27.95
-31.19
-33.92
-34.59
-32.28
-27.20
-20.49
-13.54
-7.43
-2.69
0.62
2.52
2.89
1.67
-0.98
-4.33
-7.26
-8.65
-7.92
-5.45
-2.48
-0.69
-1.43
-5.18
-11.24
-18.00
-23.43
-25.79
-24.24
-19.05
-11.53
-3.42
3.61
8.64
11.60
13.24
14.65
16.75
19.96
24.15
28.88
33.67
38.22
42.33
45.81
48.29
49.30
48.40
45.51
41.02
35.69
30.36
25.59
21.49
17.77
14.09
10.41
7.06
4.72
3.92
4.71
6.58
8.66
10.03
10.06
8.43
5.04
0.03
-6.19
-12.75
-18.45
-22.02
-22.74
-20.79
-17.22
-13.46
-10.61
-9.01
-8.28
-7.75
-6.89
-5.56
-3.95
-2.27
-0.65
0.91
2.32
3.37
3.86
3.68
2.98
2.12
1.51
1.41
1.93
3.09
4.91
7.37
10.34
13.48
16.26
18.16
18.81
18.11
16.12
12.82
7.92
0.90
-8.59
-20.33
-33.35
-46.26
-57.81
-67.62
-76.25
-84.82
-94.18
-104.16
-113.51
-120.55
-124.27
-125.26
-125.72
-128.44
-135.07
-144.59
-152.85
-153.58
-140.54
-110.09
-62.89
-4.32
56.69
109.66
144.93
155.69
139.54
99.21
42.29
-19.95
-74.90
-111.70
-124.17
-112.69
-83.86
-48.04
-15.59
6.62
17.04
18.99
18.61
22.12
33.66
54.53
83.24
116.29
148.76
175.28
191.13
193.64
183.43
164.35
142.28
122.85
109.30
101.67
97.49
93.48
87.25
78.08
66.57
53.74
40.23
26.21
11.85
-2.15
-14.49
-23.68
-28.78
-29.86
-28.01
-24.94
-22.13
-20.27
-19.06
-17.58
-14.94
-10.87
-6.01
-1.65
0.89
0.83
-1.70
-5.81
-10.28
-14.13
-16.90
-18.65
-19.72
-20.40
-20.72
-20.51
-19.53
-17.64
-14.90
-11.54
-7.84
-4.06
-0.35
3.18
6.46
9.27
11.28
12.04
11.12
8.31
3.74
-2.11
-8.47
-14.42
-19.10
-21.80
-22.13
-20.09
-16.09
-10.88
-5.32
-0.20
3.98
7.01
8.94
9.96
10.29
10.14
9.66
9.00
8.24
7.43
6.61
5.76
4.95
4.22
3.65
3.30
3.25
3.54
4.19
5.09
6.00
6.59
6.54
5.73
4.21
2.26
0.21
-1.62
-3.09
-4.18
-4.94
-5.51
-6.00
-6.57
-7.29
-8.21
-9.27
-10.33
-11.19
-11.69
-11.66
-11.05
-9.82
-8.05
-5.92
-3.70
-1.73
-0.26
0.58
0.89
0.87
0.76
0.75
0.90
1.27
1.88
2.72
3.75
4.87
5.97
6.92
7.67
8.18
8.52
8.79
9.11
9.63
10.41
11.42
12.42
12.99
12.73
11.37
9.08
6.36
3.93
2.29
1.56
1.37
1.07
0.02
-2.11
-5.23
-8.89
-12.51
-15.47
-17.30
-17.64
-16.27
-13.20
-8.69
-3.33
2.02
6.49
9.35
10.32
9.58
7.72
5.52
3.73
2.84
2.95
3.78
4.77
5.35
5.09
3.90
2.03
-0.11
-2.07
-3.52
-4.28
-4.27
-3.43
-1.79
0.49
3.09
5.53
7.31
8.15
8.10
7.54
6.98
6.75
6.89
7.16
7.20
6.79
5.89
4.67
3.35
2.13
1.09
0.27
-0.36
-0.86
-1.35
-1.97
-2.87
-4.07
-5.37
-6.49
-7.10
-7.15
-6.82
-6.51
-6.57
-7.14
-8.02
-8.74
-8.79
-7.88
-6.01
-3.49
-0.75
1.79
3.86
5.32
6.20
6.57
6.59
6.50
6.51
6.71
7.06
7.39
7.51
7.38
7.11
6.91
6.94
7.19
7.45
7.47
7.05
6.15
4.94
3.69
2.63
1.95
1.62
1.54
1.43
1.05
0.23
-1.10
-2.80
-4.61
-6.22
-7.32
-7.63
-7.01
-5.42
-3.03
-0.24
2.41
4.26
4.86
4.11
2.39
0.44
-0.87
-0.94
0.40
2.85
5.85
8.89
11.68
14.09
16.10
17.57
18.22
17.73
15.94
13.04
9.59
6.30
3.82
2.48
2.15
2.35
2.47
2.05
1.03
-0.33
-1.58
-2.41
-2.73
-2.75
-2.77
-2.97
-3.28
-3.53
-3.50
-3.18
-2.81
-2.82
-3.70
-5.73
-8.86
-12.62
-16.30
-19.06
-20.26
-19.63
-17.31
-13.79
-9.76
-5.87
-2.62
-0.32
1.02
1.60
1.73
1.80
2.09
2.66
3.34
3.83
3.83
3.30
2.46
1.70
1.39
1.70
2.50
3.51
4.43
5.11
5.54
5.78
5.85
5.69
5.19
4.40
3.48
2.70
2.26
2.15
2.15
1.94
1.32
0.31
-0.80
-1.63
-1.87
-1.48
-0.69
0.12
0.52
0.21
-0.91
-2.74
-5.02
-7.35
-9.21
-10.07
-9.54
-7.57
-4.55
-1.21
1.63
3.50
4.37
4.72
5.11
5.90
6.90
7.57
7.22
5.44
2.30
-1.67
-5.72
-9.20
-11.69
-13.05
-13.26
-12.37
-10.43
-7.65
-4.47
-1.51
0.52
1.21
0.49
-1.23
-3.24
-4.79
-5.40
-4.91
-3.55
-1.71
0.13
1.61
2.54
2.88
2.76
2.36
1.91
1.59
1.56
1.86
2.46
3.21
3.94
4.46
4.68
4.69
4.72
5.00
5.70
6.85
8.34
10.04
11.82
13.58
15.12
16.14
16.26
15.18
12.78
9.30
5.28
1.38
-1.78
-3.85
-4.86
-5.11
-5.08
-5.16
-5.54
-6.07
-6.43
-6.20
-5.18
-3.41
-1.30
0.62
1.85
2.11
1.51
0.39
-0.78
-1.61
-1.94
-1.80
-1.37
-0.80
-0.18
0.48
1.17
1.80
2.19
2.14
1.54
0.48
-0.70
-1.60
-1.91
-1.62
-1.08
-0.77
-1.11
-2.14
-3.54
-4.75
-5.22
-4.70
-3.34
-1.51
0.27
1.59
2.17
1.90
0.85
-0.82
-2.77
-4.61
-6.00
-6.74
-6.86
-6.57
-6.21
-6.04
-6.18
-6.48
-6.60
-6.13
-4.77
-2.48
0.43
3.39
5.74
6.88
6.53
4.74
1.90
-1.39
-4.52
-7.05
-8.74
-9.63
-9.87
-9.69
-9.30
-8.78
-8.13
-7.33
-6.27
-4.84
-2.89
-0.32
2.75
5.95
8.65
10.18
10.14
8.60
6.11
3.52
1.61
0.88
1.54
3.43
6.22
9.36
12.16
13.90
14.09
12.63
9.93
6.71
3.70
1.36
-0.20
-1.09
-1.40
-1.03
0.20
2.38
5.27
8.32
10.81
12.03
11.54
9.27
5.53
0.98
-3.59
-7.48
-10.25
-11.81
-12.33
-12.05
-11.12
-9.53
-7.28
-4.51
-1.61
0.82
2.29
2.52
1.59
-0.13
-2.20
-4.26
-6.18
-7.91
-9.48
-10.79
-11.67
-11.89
-11.32
-10.01
-8.23
-6.43
-5.00
-4.19
-3.94
-3.93
-3.72
-2.93
-1.42
0.68
3.03
5.17
6.62
7.06
6.35
4.64
2.38
0.18
-1.36
-1.86
-1.31
-0.03
1.43
2.58
3.11
2.95
2.23
1.22
0.27
-0.25
-0.02
1.08
2.88
4.84
6.27
6.58
5.66
3.96
2.32
1.58
2.15
3.73
5.57
6.82
6.99
6.21
4.96
3.74
2.73
1.70
0.26
-1.81
-4.14
-6.06
-6.81
-6.09
-4.20
-1.91
-0.10
0.70
0.40
-0.63
-1.92
-3.04
-3.78
-4.09
-3.96
-3.42
-2.48
-1.27
-0.03
0.94
1.41
1.31
0.80
0.20
-0.17
-0.08
0.47
1.31
2.17
2.81
3.11
3.03
2.62
1.91
1.02
0.14
-0.45
-0.53
-0.07
0.65
1.16
1.01
-0.02
-1.75
-3.74
-5.53
-6.84
-7.70
-8.33
-8.98
-9.74
-10.57
-11.28
-11.69
-11.64
-11.08
-10.03
-8.54
-6.74
-4.82
-3.01
-1.50
-0.42
0.19
0.36
0.20
-0.11
-0.37
-0.35
0.13
1.08
2.35
3.65
4.66
5.22
5.33
5.14
4.85
4.57
4.32
4.05
3.75
3.39
3.03
2.68
2.33
1.96
1.59
1.24
0.99
0.93
1.04
1.26
1.50
1.69
1.79
1.77
1.62
1.30
0.84
0.28
-0.37
-1.12
-2.06
-3.24
-4.71
-6.36
-7.93
-9.06
-9.36
-8.60
-6.79
-4.29
-1.69
0.44
1.73
2.15
1.98
1.63
1.46
1.57
1.84
2.11
2.28
2.40
2.62
3.01
3.50
3.94
4.17
4.18
4.09
4.03
3.99
3.88
3.52
2.83
1.85
0.78
-0.21
-1.01
-1.65
-2.26
-2.90
-3.54
-4.09
-4.47
-4.69
-4.92
-5.36
-6.20
-7.50
-9.15
-11.01
-12.89
-14.74
-16.67
-18.88
-21.59
-24.86
-28.51
-32.05
-34.93
-36.70
-37.32
-37.21
-37.10
-37.75
-39.49
-42.10
-44.80
-46.69
-47.23
-46.62
-45.73
-45.75
-47.54
-51.16
-55.80
-60.06
-62.64
-62.71
-60.15
-55.47
-49.47
-43.07
-37.29
-33.31
-32.13
-34.08
-38.28
-42.46
-43.59
-39.08
-28.03
-11.85
6.26
22.96
36.58
47.92
59.74
74.95
94.77
117.76
140.45
159.05
171.31
177.46
179.68
180.70
182.17
183.87
184.05
180.59
172.28
159.36
143.27
125.79
108.24
91.18
74.67
58.92
44.54
32.46
23.29
16.78
11.83
6.88
0.59
-7.52
-17.01
-26.85
-36.08
-44.31
-51.85
-59.50
-67.97
-77.41
-87.05
-95.19
-99.66
-98.58
-91.11
-77.86
-60.81
-42.62
-25.79
-11.99
-1.84
4.94
9.08
11.35
12.34
12.44
11.95
11.28
10.97
11.55
13.26
15.90
18.73
20.80
21.37
20.27
18.03
15.68
14.20
14.12
15.28
16.96
18.37
19.02
19.04
19.02
19.65
21.29
23.70
26.05
27.22
26.29
22.95
17.65
11.55
6.13
2.75
2.27
4.86
10.03
16.89
24.43
31.77
38.35
43.80
