1513834059.00
64.000000
-0.00
-0.00
-0.00
-0.00
-0.00
-0.00
-0.00
-0.00
-0.00
-0.00
0.00
0.01
0.01
-0.00
-0.03
-0.05
-0.05
0.00
0.13
0.36
0.66
1.01
1.37
1.72
2.06
2.40
2.79
3.24
3.80
4.42
5.06
5.66
6.20
6.68
7.15
7.68
8.31
9.14
10.09
11.04
11.88
12.56
13.14
13.76
14.65
15.96
17.91
20.32
22.90
25.38
27.58
29.57
31.68
34.32
37.81
42.54
48.15
54.10
59.83
64.97
69.58
74.14
79.34
85.71
93.76
103.00
112.62
121.73
129.77
136.75
143.30
150.75
157.77
166.64
177.95
191.79
206.97
220.57
228.25
225.36
208.53
176.87
132.76
80.05
23.07
-34.94
-92.44
-149.16
-205.23
-260.37
-313.74
-363.88
-409.84
-450.91
-486.50
-515.74
-537.22
-549.21
-549.94
-538.33
-514.14
-478.58
-433.75
-382.28
-326.80
-269.57
-212.30
-156.26
-102.49
-51.85
-5.31
36.24
72.15
102.14
126.36
145.31
159.70
170.24
177.55
182.03
183.97
183.59
181.18
177.07
171.68
165.42
158.62
151.54
144.33
137.04
129.72
122.43
115.21
108.15
101.31
94.76
88.51
82.60
77.01
71.78
66.90
62.39
58.25
54.49
51.11
48.10
45.44
43.14
41.19
39.58
38.33
37.44
36.90
36.68
36.76
37.06
37.48
37.89
38.10
37.91
37.13
35.56
33.05
29.54
25.03
19.57
13.33
6.58
-0.37
-7.15
-13.38
-18.72
-22.88
-25.67
-26.99
-26.87
-25.44
-22.97
-19.73
-16.07
-12.29
-8.70
-5.49
-2.78
-0.58
1.15
2.53
3.70
4.84
6.11
7.63
9.49
11.74
14.39
17.33
20.42
23.56
26.66
29.67
32.59
35.45
38.33
41.34
44.45
47.67
51.04
54.60
58.37
62.43
66.82
71.63
76.94
82.58
88.44
94.44
100.54
106.74
113.05
119.51
126.14
132.94
139.50
145.52
150.75
154.94
157.87
159.26
158.61
155.17
150.36
144.67
138.42
131.89
125.34
119.02
113.16
107.91
103.34
99.39
95.56
91.36
86.41
80.52
73.71
66.16
58.07
49.53
40.45
30.31
18.75
5.68
-8.55
-23.18
-37.45
-50.86
-63.42
-75.68
-88.58
-102.79
-118.44
-134.95
-151.36
-166.80
-181.08
-194.68
-208.67
-224.17
-241.46
-260.09
-279.34
-298.93
-319.48
-342.18
-367.24
-392.63
-414.06
-426.55
-427.45
-417.95
-402.35
-385.05
-367.07
-345.22
-314.64
-273.23
-225.02
-179.38
-145.76
-128.00
-121.72
-117.52
-107.36
-90.02
-71.16
-58.16
-53.75
-53.04
-46.71
-27.69
3.44
37.97
64.30
75.34
72.81
65.41
63.05
70.21
84.08
97.90
106.12
108.20
108.08
110.43
116.89
125.41
132.33
135.70
136.48
136.88
138.01
138.44
135.35
127.11
115.20
103.61
96.26
94.43
96.07
97.05
93.23
81.85
61.64
32.92
-1.98
-38.33
-69.64
-90.06
-96.76
-91.27
-77.88
-61.20
-44.04
-27.70
-13.50
-3.46
0.27
-2.66
-9.59
-15.98
-17.89
-14.26
-7.32
-0.28
5.41
11.04
19.02
30.40
44.02
57.71
70.73
84.32
99.93
116.20
127.01
123.44
98.62
52.63
-5.56
-61.19
-99.82
-113.22
-101.53
-71.66
-32.71
7.94
46.05
79.70
107.71
129.25
144.61
155.99
167.47
183.66
207.51
239.11
276.22
315.78
355.07
391.68
422.81
444.44
452.32
443.74
419.28
383.27
342.11
301.76
265.49
233.45
203.83
174.82
145.98
118.27
93.24
71.64
52.81
34.95
16.20
-4.44
-26.60
-48.57
-68.34
-84.35
-96.27
-105.06
-112.41
-119.99
-128.74
-138.57
-148.64
-158.14
-166.71
-174.73
-183.11
-192.92
-205.01
-220.31
-240.16
-265.90
-297.94
-334.42
-370.76
-400.75
-418.54
-420.84
-407.83
-382.30
-347.86
-307.18
-261.54
-211.60
-158.87
-106.70
-60.05
-24.38
-4.00
-1.08
-15.43
-45.26
-88.29
-142.20
-204.22
-270.27
-334.06
-387.42
-422.62
-435.34
-426.79
-403.61
-375.02
-348.89
-328.83
-313.78
-300.23
-285.32
-268.66
-252.13
-238.19
-227.88
-220.19
-212.86
-203.77
-191.99
-177.90
-162.51
-146.34
-128.75
-107.90
-81.46
-47.43
-4.93
45.64
102.86
164.87
229.74
295.55
360.12
420.56
473.37
514.73
541.31
551.15
544.21
522.40
489.19
448.77
405.26
362.06
321.59
285.15
252.87
223.82
196.15
167.92
138.12
107.55
78.99
56.30
42.50
38.12
40.27
43.54
42.34
33.51
17.81
-0.45
-15.40
-22.27
-19.11
-7.37
9.23
26.57
41.73
53.63
62.88
71.19
80.97
95.33
117.41
148.67
188.14
231.33
270.79
298.39
308.12
298.54
273.38
239.17
201.39
163.42
125.89
87.87
48.87
9.56
-28.33
-62.55
-92.74
-122.40
-155.47
-195.11
-242.09
-293.75
-345.97
-394.83
-437.36
-473.66
-507.50
-541.27
-574.75
-604.78
-625.79
-633.93
-628.59
-610.82
-568.14
-493.54
-384.98
-248.70
-99.18
47.34
176.20
272.51
339.22
381.83
401.62
397.67
367.75
310.40
229.58
129.76
16.21
-103.19
-215.26
-306.07
-362.64
-378.47
-369.23
-346.40
-319.49
-296.13
-274.40
-253.53
-233.02
-212.31
-191.50
-169.55
-142.61
-107.87
-65.88
-17.13
35.97
90.56
143.27
190.75
232.55
271.15
307.97
339.95
364.93
381.44
390.66
394.77
396.58
402.45
420.33
456.41
509.18
574.72
645.91
714.86
772.64
795.65
768.03
685.94
585.43
487.58
400.35
311.61
212.96
101.01
-20.54
-138.70
-238.13
-311.84
-361.55
-394.84
-422.32
-451.14
-482.15
-510.98
-527.81
-523.71
-494.29
-442.41
-373.61
-293.94
-207.94
-120.84
-44.21
9.06
29.54
17.47
-15.96
-52.70
-70.47
-61.65
-29.13
19.24
77.30
143.14
212.35
283.29
354.61
414.57
453.61
466.66
454.22
422.28
379.33
332.72
287.05
243.34
200.51
158.46
119.05
85.44
61.17
48.36
45.89
49.23
50.10
39.13
10.79
-33.79
-87.00
-137.64
-175.69
-196.28
-200.51
-194.19
-184.25
-174.97
-167.07
-159.10
-149.59
-138.54
-127.50
-118.18
-111.45
-106.90
-102.90
-97.55
-89.87
-80.18
-69.89
-60.71
-53.82
-49.35
-46.49
-43.77
-39.91
-34.37
-27.53
-20.34
-13.91
-8.94
-5.47
-2.99
-0.75
1.92
5.28
9.18
13.21
16.92
20.03
22.49
24.44
26.10
27.46
28.41
28.66
27.89
25.79
22.18
16.94
10.12
1.92
-7.36
-17.24
-27.10
-36.18
-43.77
-49.33
-52.65
-53.82
-53.24
-51.30
-48.37
-44.53
-39.67
-33.73
-26.83
-19.52
-12.69
-7.35
-4.24
-3.57
-4.86
-7.11
-9.19
-10.35
-10.58
-10.65
-11.72
-14.69
-19.83
-26.41
-33.03
-38.34
-41.45
-42.41
-42.19
-42.10
-43.23
-46.72
-53.67
-64.69
-78.92
-92.97
-100.73
-95.33
-72.29
-33.00
14.32
57.51
85.65
93.70
83.87
63.16
38.97
16.00
-4.19
-21.42
-34.81
-41.95
-40.87
-31.31
-14.57
4.63
21.50
33.13
39.18
40.80
39.32
35.77
31.75
29.25
29.49
32.03
34.73
35.23
33.29
31.40
33.12
40.01
49.81
57.58
59.52
56.41
53.40
55.67
62.95
67.36
57.45
25.95
-23.80
-77.41
-117.12
-131.18
-120.06
-96.34
-76.02
-68.94
-73.43
-78.14
-69.48
-39.29
12.57
79.39
150.86
217.56
273.65
316.35
344.14
354.71
344.79
312.71
260.60
193.02
117.82
45.52
-13.16
-47.76
-50.84
-25.87
15.11
60.04
99.05
125.81
137.00
130.07
104.92
64.18
13.06
-39.81
-85.31
-121.76
-153.48
-187.61
-229.98
-282.39
-343.47
-410.71
-480.84
-529.24
-536.18
-492.76
-406.22
-296.04
-185.87
-97.25
-43.92
-26.54
-32.15
-43.35
-44.41
-28.12
2.21
36.51
64.15
80.05
86.65
90.77
95.56
99.70
98.96
89.86
72.83
52.18
34.18
24.30
24.61
31.46
38.57
39.96
32.86
18.63
1.39
-13.88
-23.38
-25.75
-23.14
-19.25
-17.47
-19.38
-24.21
-29.70
-33.17
-33.08
-28.66
-21.15
-12.77
-5.64
-1.03
1.00
1.23
0.73
0.47
0.91
1.85
2.78
3.16
2.69
1.35
-0.71
-3.33
-6.25
-9.43
-12.98
-17.09
-21.89
-27.42
-33.66
-40.60
-48.27
-56.35
-64.59
-72.85
-80.97
-88.85
-96.38
-103.49
-110.14
-116.44
-122.04
-126.74
-130.46
-133.07
-134.37
-134.03
-131.47
-125.74
-118.70
-110.99
-103.00
-95.10
-87.52
-80.47
-74.04
-68.21
-62.95
-58.23
-53.62
-48.91
-44.07
-39.17
-34.34
-29.65
-25.05
-20.47
-15.90
-11.13
-6.23
-1.51
2.62
5.87
8.24
10.08
12.00
14.58
18.39
23.52
29.54
35.78
41.66
47.06
52.45
58.81
67.14
78.20
91.91
107.39
123.36
138.49
152.13
164.55
176.92
191.00
208.76
231.64
259.77
291.23
322.15
347.70
363.76
368.58
363.28
351.22
336.31
321.34
307.12
292.46
275.15
252.92
224.53
190.56
154.10
120.61
96.80
88.31
97.23
120.45
150.22
176.88
192.52
193.57
181.56
161.45
139.12
118.90
102.55
89.48
78.01
66.37
53.32
38.16
20.02
-2.27
-29.79
-62.41
-97.65
-130.52
-154.84
-165.83
-162.40
-148.05
-129.68
-114.92
-109.64
-116.57
-135.47
-164.22
-199.46
-236.48
-269.08
-289.86
-292.06
-272.06
-231.53
-177.77
-121.65
-74.27
-43.20
-30.35
-31.73
-39.59
-45.77
-44.63
-34.65
-17.70
2.97
24.56
45.06
62.78
75.61
80.90
76.93
64.53
47.87
33.65
28.89
38.58
64.39
104.21
152.84
203.05
246.86
277.20
289.59
283.40
262.03
231.36
197.22
163.31
130.88
99.40
68.19
37.27
7.57
-19.58
-42.95
-62.31
-78.53
-93.27
-108.55
-125.62
-144.18
-162.50
-178.19
-189.53
-196.69
-202.23
-210.04
-223.61
-243.84
-268.04
-290.18
-302.94
-300.30
-280.32
-246.46
-206.70
-170.63
-145.58
-134.04
-133.71
-139.44
-146.13
-150.10
-148.91
-140.22
-121.25
-89.44
-44.39
10.57
68.50
120.57
158.86
179.20
182.14
172.36
156.77
142.04
132.02
126.28
120.07
106.87
82.15
46.96
8.58
-21.63
-33.04
-20.65
12.54
56.29
97.20
123.22
126.93
106.45
64.42
6.63
-59.40
-125.19
-182.72
-226.12
-253.02
-264.76
-265.15
-258.54
-248.73
-238.61
-230.54
-226.29
-226.37
-228.89
-229.50
-222.77
-204.91
-176.12
-140.84
-105.49
-74.95
-49.99
-27.32
-2.14
28.61
64.03
99.55
128.83
146.42
149.73
139.70
120.61
98.59
79.77
68.49
65.74
68.98
73.52
74.91
71.55
65.61
61.99
65.54
78.36
98.65
121.99
143.93
162.45
178.08
192.43
205.60
214.93
216.30
206.69
186.41
159.57
132.31
109.80
94.22
84.19
75.95
65.45
50.55
32.00
13.18
-1.51
-8.33
-5.80
4.91
20.54
37.05
50.62
58.02
56.63
44.95
23.71
-3.07
-28.16
-43.26
-42.59
-26.35
-1.37
21.58
32.71
27.90
10.28
-12.03
-30.46
-40.15
-41.57
-38.59
-34.98
-31.67
-26.79
-18.02
-5.71
5.54
7.87
-6.63
-42.25
-97.22
-163.86
-231.02
-287.49
-324.95
-339.76
-333.18
-310.03
-276.71
-239.04
-200.60
-162.21
-122.86
-81.69
-39.66
-0.02
33.17
57.31
73.09
84.29
95.90
111.66
132.20
154.91
175.26
189.04
194.01
190.43
180.48
167.11
153.05
140.20
129.31
119.92
110.50
99.18
84.69
67.55
50.03
35.45
26.70
24.97
29.11
36.17
42.57
45.35
42.91
35.00
22.59
7.67
-6.93
-17.75
-21.62
-16.95
-5.13
9.36
20.32
22.56
14.80
0.73
-12.56
-18.34
-14.04
-2.75
8.63
13.47
8.92
-2.94
-16.96
-27.90
-32.89
-31.92
-26.37
-17.30
-4.72
11.60
30.83
50.37
66.54
75.90
76.97
70.91
60.83
50.52
43.22
40.86
43.69
50.58
59.45
67.98
74.17
76.47
73.92
65.86
52.26
34.06
13.45
-6.52
-23.07
-34.88
-42.64
-48.19
-53.09
-57.28
-59.20
-57.15
-51.11
-43.59
-38.40
-38.38
-43.46
-51.01
-57.58
-60.93
-61.25
-60.24
-59.36
-58.43
-55.76
-49.29
-38.22
-23.44
-7.29
7.17
17.29
21.56
20.08
14.78
9.06
6.74
10.64
21.39
37.17
54.75
71.12
84.21
93.04
96.88
95.11
87.28
73.84
56.57
39.16
26.46
22.81
31.24
52.19
82.98
117.89
149.63
171.93
182.01
181.83
176.19
170.05
165.22
159.29
147.12
124.18
89.76
47.39
3.28
-37.82
-74.08
-106.80
-138.35
-169.84
-200.04
-225.77
-244.56
-252.15
-246.16
-226.41
-195.82
-159.25
-121.45
-85.52
-52.62
-24.80
-2.04
14.57
23.56
23.91
15.64
-0.08
-21.62
-46.59
-74.23
-104.10
-136.44
-171.10
-206.95
-241.88
-273.05
-297.47
-305.53
-291.24
-253.49
-197.63
-133.19
-69.96
-15.04
28.20
59.49
80.66
93.11
98.32
97.42
91.56
82.14
70.74
59.30
49.95
44.74
44.05
47.16
52.41
57.59
60.67
59.82
53.91
41.70
22.61
-3.05
-32.81
-61.88
-84.47
-94.78
-91.57
-78.78
-63.55
-52.74
-50.22
-55.43
-64.75
-73.98
-80.49
-83.70
-84.45
-83.62
-81.32
-76.99
-70.26
-61.65
-52.75
-44.85
-38.45
-33.40
-28.88
-23.78
-17.10
-8.56
1.14
10.54
19.10
27.10
34.85
42.59
50.40
58.16
65.74
72.86
80.21
85.60
90.40
97.12
108.49
126.91
154.05
190.64
235.72
277.00
303.91
310.47
297.00
269.48
235.60
201.45
170.20
141.74
115.11
90.45
68.96
51.58
38.93
30.81
26.11
27.41
31.36
35.81
40.51
45.48
48.62
45.51
31.10
2.70
-37.59
-83.68
-126.84
-159.52
-178.49
-185.20
-183.45
-175.43
-160.71
-138.39
-109.87
-79.36
-53.22
-36.94
-32.08
-35.54
-41.80
-46.25
-47.09
-45.74
-44.20
-43.57
-43.78
-43.80
-42.39
-38.99
-34.22
-29.37
-25.89
-24.42
-24.59
-25.25
-25.03
-23.04
-19.38
-15.19
-12.06
-11.25
-12.92
-15.96
-18.64
-19.42
-17.79
-14.60
-11.78
-11.15
-13.63
-18.52
-23.61
-26.19
-23.86
-15.19
0.19
21.42
46.21
70.57
88.49
94.48
85.56
62.96
32.18
0.98
-23.92
-39.34
-46.19
-47.95
-47.89
-47.49
-46.10
-42.49
-36.28
-28.95
-23.20
-21.84
-26.61
-37.17
-50.71
-62.02
-65.09
-54.97
-30.45
4.93
43.63
76.93
98.52
106.58
103.96
96.00
87.77
81.80
78.42
77.23
78.29
81.97
87.56
92.08
89.71
76.76
52.64
21.11
-10.73
-35.60
-49.20
-51.59
-46.28
-37.88
-29.52
-22.49
-16.63
-11.40
-6.85
-3.40
-1.35
-0.29
0.64
2.47
5.67
9.75
13.49
15.55
14.92
11.34
5.46
-1.49
-8.02
-13.12
-16.43
-18.22
-19.10
-19.65
-20.21
-20.62
-20.48
-19.23
-16.64
-12.85
-8.27
-3.53
0.93
4.59
7.36
9.46
11.37
13.48
15.90
18.61
21.43
24.27
26.69
28.52
29.83
30.78
31.62
32.49
33.58
35.03
37.14
39.48
41.90
44.59
47.91
52.23
57.71
64.45
72.41
81.72
90.94
99.11
106.08
112.13
117.53
121.96
124.56
123.88
121.81
116.45
106.45
91.96
74.31
54.96
34.62
13.61
-8.04
-29.83
-54.89
-84.70
-118.22
-152.53
-184.83
-213.71
-238.62
-259.78
-277.00
-294.69
-315.63
-339.99
-366.21
-393.37
-422.55
-455.46
-494.17
-509.13
-483.79
-419.85
-335.13
-249.60
-175.51
-117.71
-76.37
-51.21
-40.45
-44.67
-59.98
-77.12
-83.82
-70.27
-39.05
6.79
56.79
97.38
113.01
95.32
46.66
-20.71
-89.21
-142.54
-169.68
-168.65
-144.40
-107.81
-68.86
-33.12
-4.32
16.62
30.04
37.25
39.06
37.19
33.47
30.72
31.97
38.80
50.70
64.84
77.96
87.09
91.61
93.02
94.55
99.74
110.74
127.63
147.65
166.08
177.21
176.52
162.26
135.98
101.88
65.40
31.82
4.72
-14.17
-24.77
-27.68
-23.40
-12.15
5.77
29.37
56.56
84.06
108.35
126.68
138.22
144.42
148.39
153.62
162.72
177.14
196.97
221.39
248.27
273.97
293.52
301.57
294.44
271.77
237.16
196.78
157.16
123.22
97.73
82.59
79.73
91.38
118.55
159.08
206.79
252.44
286.37
301.55
295.40
269.62
228.87
178.86
124.67
70.19
18.49
-28.03
-67.30
-97.50
-118.05
-129.91
-135.67
-138.68
-141.41
-144.41
-146.63
-147.53
-148.94
-155.58
-172.68
-201.94
-238.83
-272.89
-292.13
-288.60
-262.30
-220.44
-172.94
-127.12
-85.10
-45.44
-7.02
27.72
53.41
65.39
63.95
55.46
49.82
54.75
71.13
92.42
108.05
109.37
94.21
67.41
37.67
12.64
-4.32
-14.61
-22.00
-29.75
-39.02
-48.87
-57.90
-65.14
-70.66
-74.79
-77.49
-78.13
-75.82
-70.06
-60.98
-49.59
-37.32
-26.02
-17.50
-13.03
-12.72
-14.98
-17.05
-15.82
-9.53
1.60
15.49
29.39
41.43
51.12
59.09
65.87
71.25
74.32
74.38
71.84
68.12
64.89
62.48
59.63
53.87
43.21
27.66
9.40
-7.95
-21.41
-29.77
-34.04
-36.29
-38.12
-39.84
-40.45
-38.90
-34.97
-29.87
-25.36
-22.77
-22.09
-21.84
-20.02
-15.01
-6.43
5.16
18.52
32.55
46.50
59.84
72.11
82.70
91.44
98.68
105.58
113.60
123.79
136.35
150.35
164.61
178.20
191.06
203.75
216.77
229.83
241.41
249.19
250.62
243.88
228.14
203.71
171.70
133.75
91.83
48.06
4.70
-36.35
-73.47
-105.76
-133.07
-155.96
-175.76
-194.50
-214.99
-239.93
-270.88
-306.78
-343.21
-373.07
-388.63
-384.19
-357.74
-311.45
-250.90
-183.67
-118.38
-63.74
-27.69
-15.90
-30.48
-69.07
-125.32
-190.26
-254.15
-308.14
-345.22
-360.99
-354.35
-328.14
-288.59
-243.78
-201.05
-164.31
-133.18
-104.04
-73.09
-39.17
-5.08
23.56
41.58
47.24
43.93
38.82
39.89
52.40
76.59
108.29
141.10
169.38
189.89
201.96
206.30
203.76
194.97
180.65
162.37
142.65
124.56
110.62
101.87
97.18
93.66
87.84
77.09
60.96
41.31
21.73
6.03
-3.18
-5.29
-1.61
5.59
14.01
22.22
29.66
36.24
41.86
46.05
48.14
47.51
44.19
38.73
32.32
26.31
21.89
19.87
20.57
24.11
30.26
38.53
47.94
57.17
64.86
69.84
71.38
69.03
62.72
52.79
40.35
27.61
17.83
14.56
20.26
35.19
56.81
80.70
102.21
118.29
128.66
135.40
141.73
150.10
161.33
174.55
188.38
202.06
215.83
230.38
245.29
258.26
265.19
261.74
245.13
215.38
175.31
129.12
80.82
32.89
-13.52
-58.02
-99.95
-138.10
-171.32
-199.17
-222.78
-244.74
-268.64
-297.74
-333.34
-373.55
-412.77
-442.95
-455.88
-446.18
-413.26
-361.44
-298.09
-230.70
-164.64
-102.25
-43.87
10.51
59.54
100.20
128.50
140.89
135.79
114.26
80.18
39.16
-2.73
-40.70
-72.46
-98.23
-119.79
-138.57
-154.11
-163.52
-162.50
-147.38
-116.94
-73.70
-23.32
26.82
69.82
101.12
119.56
127.47
129.95
133.42
143.67
164.14
194.64
231.34
268.10
298.38
317.31
322.70
314.77
294.76
264.00
223.52
174.97
121.59
68.43
21.59
-13.46
-33.69
-39.92
-36.35
-28.84
-22.81
-22.24
-29.87
-47.67
-76.38
-115.26
-161.56
-210.41
-255.56
-290.96
-312.76
-320.58
-316.93
-304.60
-285.85
-262.32
-235.43
-206.95
-178.29
-150.04
-121.70
-91.51
-55.62
-10.08
46.88
113.40
183.40
248.32
299.24
329.32
328.65
294.78
237.20
175.39
128.30
103.48
97.22
100.36
104.81
106.73
108.27
111.83
117.02
120.13
114.98
97.32
66.58
25.92
-19.50
-64.18
-101.74
-128.63
-138.12
-127.02
-95.44
-47.74
9.51
69.86
129.10
184.60
233.41
275.25
307.52
328.33
337.08
334.84
323.85
306.69
285.83
262.88
238.84
213.18
186.23
159.18
133.87
112.56
97.42
90.22
90.65
96.82
104.75
110.37
109.95
99.77
77.82
44.00
1.45
-46.65
-96.43
-144.39
-186.63
-219.31
-241.97
-254.15
-255.29
-241.98
-215.82
-181.21
-144.74
-112.89
-90.85
-87.42
-106.84
-147.12
-195.62
-244.81
-290.13
-330.03
-363.69
-391.30
-422.15
-462.40
-511.33
-554.31
-586.19
-606.37
-617.92
-623.14
-624.65
-636.51
-669.29
-724.81
-786.01
-845.90
-899.37
-942.46
-968.96
-909.66
-736.08
-473.23
-247.49
-89.04
4.07
64.03
108.27
149.86
196.25
239.29
272.03
296.21
342.05
415.85
507.61
598.37
674.73
730.55
756.97
750.34
713.79
663.27
603.70
537.67
467.66
400.23
342.67
294.38
251.96
211.71
177.08
147.12
123.81
112.35
117.73
140.25
170.84
196.33
204.73
192.88
161.59
118.09
72.80
35.77
12.97
3.25
3.63
7.19
7.12
-1.46
-18.35
-38.32
-52.96
-54.55
-39.86
-11.08
25.12
59.43
80.96
82.40
62.93
27.77
-14.47
-54.59
-84.42
-98.68
-96.17
-80.20
-57.29
-34.67
-17.74
-8.52
-6.59
-10.45
-18.94
-31.44
-46.68
-61.82
-73.24
-78.53
-77.66
-73.10
-68.84
-68.35
-73.80
-84.69
-98.10
-110.09
-117.81
-119.03
-113.50
-102.43
-87.00
-68.88
-48.30
-24.54
3.11
34.07
66.76
100.04
130.78
156.03
172.29
178.08
173.55
159.86
138.95
112.77
82.52
46.20
9.24
-27.95
-63.64
-94.92
-118.41
-130.88
-130.20
-116.50
-90.99
-56.16
-17.71
19.52
52.22
78.66
98.83
113.39
122.82
129.31
134.88
139.97
144.13
144.71
137.38
119.44
95.67
70.25
51.66
46.99
58.09
81.33
108.64
130.74
141.81
140.60
124.51
99.73
71.50
42.35
14.07
-9.58
-27.24
-37.31
-40.42
-40.27
-41.86
-50.81
-69.14
-93.30
-113.59
-120.44
-108.69
-83.18
-50.88
-19.22
4.99
18.33
20.53
13.02
-3.73
-30.49
-66.38
-107.52
-148.44
-184.94
-214.65
-236.30
-247.93
-246.55
-228.59
-192.57
-141.26
-82.64
-27.64
14.33
39.07
48.87
49.73
48.09
47.66
48.61
49.10
48.54
49.39
56.08
71.89
96.09
123.72
148.18
164.42
170.70
168.20
159.19
144.53
123.70
96.19
63.87
32.58
12.64
12.19
31.09
60.92
89.42
108.25
116.63
120.21
125.58
134.48
142.28
140.90
124.46
92.88
53.35
17.35
-4.79
-7.91
5.85
28.75
51.28
70.03
84.05
95.25
106.71
119.37
131.10
136.81
130.81
109.27
72.07
23.37
-29.86
-79.97
-121.82
-154.10
-179.45
-202.54
-227.72
-257.76
-293.25
-333.66
-377.07
-420.29
-458.23
-483.64
-489.78
-473.27
-438.26
-396.00
-360.90
-343.56
-344.94
-356.07
-361.39
-347.30
-307.49
-245.47
-170.90
-94.11
-21.90
43.91
103.72
157.93
204.99
242.63
269.75
288.14
302.80
320.02
345.29
380.22
421.50
460.77
487.31
492.12
470.91
426.48
366.67
301.32
237.70
178.36
122.11
66.75
12.76
-36.81
-77.52
-107.53
-129.49
-149.85
-176.82
-216.08
-269.41
-333.56
-401.53
-463.80
-510.38
-533.48
-529.89
-503.44
-463.68
-423.13
-391.63
-372.52
-361.86
-351.52
-334.63
-309.07
-278.80
-250.23
-228.35
-213.46
-201.13
-185.18
-160.75
-126.80
-85.11
-38.65
11.09
64.06
119.74
175.48
225.40
263.41
286.82
300.42
315.28
343.89
393.04
458.97
529.24
588.78
628.08
646.56
651.21
649.85
646.00
637.54
619.85
591.20
554.90
517.95
485.95
459.62
433.36
398.80
349.70
284.70
208.24
127.41
48.87
-23.74
-89.59
-150.92
-210.37
-269.18
-326.70
-379.35
-421.85
-448.48
-455.54
-442.85
-415.36
-380.69
-345.93
-314.78
-285.44
-252.56
-210.61
-161.31
-106.33
-55.92
-20.87
-7.86
-17.74
-45.54
-82.83
-120.46
-149.83
-164.99
-164.58
-151.11
-130.28
-108.83
-91.71
-79.70
-70.14
-58.39
-41.58
-20.42
1.84
21.98
39.30
55.50
73.64
94.59
116.62
135.63
148.01
153.44
155.57
161.29
176.65
203.85
238.01
268.54
282.22
268.56
225.05
157.63
79.21
3.61
-59.10
-106.07
-140.51
-168.52
-195.93
-225.63
-258.50
-292.96
-326.74
-355.68
-374.10
-376.00
-357.31
-319.43
-269.22
-218.09
-176.22
-149.03
-134.71
-125.82
-114.36
-95.11
-68.43
-37.68
-7.12
21.65
49.59
78.43
109.32
140.80
170.54
196.17
217.93
238.08
260.40
288.92
326.22
373.35
428.08
485.85
538.59
576.78
591.57
577.52
535.72
472.65
399.01
324.46
256.23
196.51
143.68
94.74
47.08
0.20
-45.86
-90.18
-132.80
-172.36
-206.75
-233.35
-249.27
-252.95
-244.25
-226.54
-205.51
-188.94
-182.39
-187.75
-203.06
-222.90
-241.94
-256.51
-266.80
-275.60
-285.42
-293.15
-291.65
-274.61
-241.26
-199.31
-160.79
-135.70
-125.84
-122.96
-109.37
-67.95
8.64
115.04
236.34
356.31
463.84
554.50
608.41
609.90
554.25
451.79
322.91
187.74
60.16
-51.74
-144.66
-217.95
-270.54
-302.65
-316.78
-318.23
-313.65
-308.47
-305.15
-304.12
-304.62
-303.39
-297.58
-285.31
-267.68
-247.83
-228.93
-212.25
-196.62
-178.57
-153.24
-115.66
-61.16
10.58
95.47
186.35
275.21
355.14
421.21
471.53
506.02
528.43
542.33
550.64
554.79
554.35
547.20
529.72
498.66
438.52
345.61
228.85
107.55
1.94
-76.51
-127.34
-157.15
-173.72
-182.20
-182.30
-172.89
-154.78
-131.20
-106.83
-84.92
-66.43
-50.23
-34.45
-16.15
5.42
28.06
47.80
59.85
61.40
52.19
34.44
11.75
-12.24
-34.54
-52.91
-66.84
-77.76
-86.67
-93.65
-98.16
-99.49
-99.51
-94.52
-80.92
-57.98
-28.72
3.72
36.70
67.89
95.57
114.79
121.44
116.69
100.69
70.74
26.37
-29.99
-93.95
-159.55
-225.39
-290.08
-347.10
-394.12
-434.70
-471.38
-504.26
-531.11
-520.74
-453.96
-371.66
-295.38
-220.45
-150.70
-90.83
-44.88
-15.97
-5.52
-16.56
-47.22
-85.01
-117.86
-139.69
-148.24
-146.62
-142.99
-146.69
-166.92
-191.00
-198.17
-173.26
-116.70
-40.88
37.39
105.18
157.62
194.86
220.97
241.46
257.48
265.54
263.17
251.07
233.49
216.90
206.34
204.49
211.04
220.51
225.13
218.86
198.99
166.10
123.84
77.44
33.58
0.03
-17.87
-18.94
-6.34
13.40
32.20
44.38
48.11
45.49
39.65
33.10
26.89
20.80
13.87
3.95
-9.46
-26.56
-46.81
-69.15
-90.75
-107.26
-114.07
-105.76
-83.74
-52.46
-18.70
13.97
41.84
61.52
70.02
65.16
45.46
11.04
-34.07
-81.44
-120.82
-143.68
-145.96
-129.90
-102.82
-75.42
-57.29
-52.44
-59.03
-71.22
-83.66
-92.56
-96.71
-95.34
-88.64
-76.29
-56.86
-29.37
5.89
46.31
88.21
127.97
164.16
195.19
220.08
238.48
250.27
255.15
252.43
241.63
214.70
174.63
126.91
77.10
29.29
-14.35
-53.22
-87.94
-119.57
-147.23
-168.68
-183.38
-190.93
-191.15
-183.94
-169.22
-147.35
-119.26
-84.01
-41.13
7.90
60.24
111.62
158.08
196.83
226.50
235.35
220.15
183.39
131.90
74.23
17.08
-34.63
-78.07
-111.00
-135.14
-149.41
-152.97
-145.34
-127.24
-102.00
-72.76
-42.60
-15.28
6.03
21.34
28.05
24.67
17.34
8.44
-3.24
-18.83
-38.06
-59.05
-77.14
-87.27
-84.56
-66.09
-34.86
6.13
51.71
96.43
134.21
158.89
164.90
150.22
118.71
79.18
50.99
43.43
59.13
93.99
139.33
185.37
225.24
256.41
267.03
255.64
224.95
180.73
129.79
78.45
31.95
-6.02
-34.28
-54.30
-67.52
-77.37
-86.75
-97.01
-108.31
-119.83
-129.57
-135.72
-137.55
-134.85
-130.89
-130.51
-137.76
-154.50
-179.19
-205.23
-224.69
-231.00
-220.75
-194.82
-156.07
-107.56
-49.77
15.59
84.56
150.38
205.59
244.83
266.31
266.95
251.66
227.70
200.25
172.02
143.19
113.54
83.59
54.94
29.64
10.26
-1.81
-7.11
-7.99
-8.74
-14.44
-29.76
-57.04
-94.60
-136.06
-171.28
-191.79
-193.60
-178.50
-152.52
-122.81
-94.68
-70.32
-49.20
-30.43
-14.53
-2.84
3.51
4.77
2.74
-0.04
-1.04
1.04
5.99
12.09
17.21
20.06
20.43
19.56
19.15
20.94
25.68
33.07
41.90
50.31
56.86
60.46
61.02
58.72
54.13
47.75
39.86
30.89
21.23
11.66
3.13
-3.18
-6.46
-6.34
-3.13
2.04
7.81
12.52
14.56
12.70
6.48
-3.94
-17.94
-34.21
-51.36
-67.55
-81.09
-90.77
-95.55
-94.71
-87.94
-75.86
-59.52
-40.92
-22.22
-5.86
5.39
9.94
7.33
-1.69
-15.59
-32.11
-48.94
-63.83
-70.95
-68.76
-57.60
-39.42
-16.77
7.60
31.65
53.83
73.22
89.71
102.29
111.25
117.39
121.62
124.65
127.10
129.32
131.27
132.65
131.35
126.74
119.32
109.95
99.76
89.59
80.34
71.67
63.29
52.60
38.43
21.22
1.74
-18.84
-39.88
-60.50
-81.53
-103.66
-130.71
-166.02
-203.97
-240.73
-273.08
-299.06
-316.54
-325.61
-311.09
-267.42
-199.42
-119.53
-42.09
23.50
68.78
98.52
116.56
125.84
126.10
117.22
101.86
82.42
60.78
38.05
15.47
-6.95
-28.62
-50.02
-71.07
-90.39
-97.85
-87.26
-59.89
-24.29
9.74
36.84
56.26
69.96
81.32
92.91
105.38
118.04
127.32
129.54
122.28
106.85
85.21
59.75
31.50
0.39
-35.11
-82.05
-143.62
-219.53
-302.89
-386.26
-463.38
-529.61
-579.39
-583.61
-526.06
-412.07
-268.29
-122.41
3.87
100.22
172.19
228.51
277.28
320.91
363.10
392.79
410.53
419.05
420.98
394.60
332.39
243.70
143.71
47.10
-44.46
-125.99
-194.39
-248.39
-287.99
-312.83
-323.63
-324.66
-317.03
-310.03
-300.31
-282.65
-252.75
-209.09
-150.58
-79.66
-1.19
83.74
161.43
231.29
293.70
346.91
387.94
415.26
425.97
383.39
338.97
284.49
226.19
171.78
125.85
91.46
70.74
61.95
65.34
85.98
90.25
63.94
10.74
-53.95
-112.70
-140.45
-145.39
-136.41
-114.71
-86.33
-57.67
-28.28
1.09
32.91
67.58
100.37
128.27
151.71
166.41
175.84
185.06
196.46
216.21
246.90
284.63
324.44
362.71
394.37
419.66
440.75
418.75
337.67
212.00
75.09
-45.72
-140.53
-212.99
-269.05
-313.31
-348.98
-372.04
-379.69
-373.23
-356.69
-334.96
-312.30
-290.99
-271.35
-252.43
-227.45
-190.72
-136.41
-66.32
14.57
99.10
180.07
251.94
311.22
359.36
376.01
350.89
288.83
207.49
124.68
51.06
-9.49
-56.80
-90.93
-113.14
-122.72
-121.16
-112.05
-100.38
-90.29
-83.86
-81.38
-81.59
-83.25
-82.98
-79.07
-71.98
-63.92
-57.14
-52.76
-50.84
-50.82
-51.99
-52.07
-49.62
-44.66
-38.53
-32.78
-28.40
-25.75
-24.63
-24.59
-24.23
-22.48
-19.08
-14.60
-9.98
-6.09
-3.49
-2.35
-2.31
-2.34
-1.37
1.18
5.23
9.98
14.32
17.26
18.23
17.56
16.18
15.39
16.21
18.82
22.39
25.50
26.94
25.99
23.13
19.58
16.76
16.04
18.23
23.80
32.59
43.17
52.47
56.04
49.43
30.44
0.83
-33.62
-64.86
-85.78
-93.37
-89.34
-78.38
-65.50
-53.77
-43.73
-34.68
-26.00
-18.29
-12.93
-10.80
-11.56
-13.76
-15.59
-15.38
-12.80
-8.53
-4.05
-0.87
0.23
-0.51
-2.10
-3.25
-3.00
-1.11
1.90
5.08
7.47
8.57
8.54
7.96
7.56
7.94
9.28
11.38
13.85
16.25
18.37
20.28
22.23
24.45
27.02
29.79
32.43
34.48
35.48
35.09
33.05
29.21
23.62
16.36
7.59
-2.30
-12.77
-23.27
-33.14
-41.77
-48.70
-53.52
-56.08
-56.50
-54.92
-51.58
-46.89
-41.22
-34.84
-28.05
-20.93
-12.87
-4.34
4.59
14.02
23.95
34.30
44.95
55.38
64.99
72.91
78.55
81.30
80.70
76.53
68.84
58.11
44.71
29.71
13.81
-2.12
-17.23
-30.81
-42.11
-51.37
-57.46
-59.97
-58.60
-53.41
-44.76
-33.13
-19.53
-5.04
9.12
21.77
31.57
37.59
39.16
36.16
29.98
21.02
10.39
-0.67
-10.83
-19.46
-26.21
-31.20
-34.81
-37.22
-39.00
-40.30
-41.29
-41.75
-41.94
-42.05
-42.20
-43.47
-44.44
-44.22
-41.94
-37.11
-29.90
-21.50
-13.79
-8.81
-8.23
-12.29
-20.45
-31.05
-42.10
-52.02
-60.07
-66.41
-71.41
-75.12
-76.24
-73.08
-63.58
-46.64
-23.02
4.65
32.17
55.46
71.30
78.10
75.23
63.46
45.70
27.16
14.74
14.25
28.10
52.93
80.04
98.65
100.99
86.30
60.59
33.41
12.32
0.70
-2.79
-2.68
-4.48
-13.31
-32.29
-64.14
-109.28
-165.06
-223.16
-271.25
-296.92
-291.77
-253.49
-185.46
-95.00
11.73
119.30
208.17
262.37
275.76
253.40
208.35
156.58
111.42
79.38
59.34
46.34
35.81
25.63
16.21
8.98
4.39
1.93
-1.96
-11.24
-28.14
-52.92
-84.37
-120.16
-156.78
-189.72
-213.84
-225.55
-224.13
-211.97
-193.65
-174.04
-156.86
-143.12
-132.50
-124.04
-117.11
-111.51
-107.38
-104.57
-101.85
-97.70
-90.49
-79.88
-66.53
-52.22
-38.98
-28.11
-20.09
-14.02
-8.81
-3.20
3.19
10.18
16.98
22.58
26.76
29.79
33.42
39.71
51.07
69.08
94.14
125.67
161.99
201.65
243.11
285.66
328.38
370.31
410.49
447.73
481.57
511.06
534.77
549.35
550.46
533.93
497.50
443.25
376.58
305.56
237.27
176.56
124.28
78.34
35.66
-7.00
-50.91
-96.15
-140.00
-178.55
-206.51
-219.48
-216.45
-200.50
-179.82
-164.68
-165.41
-188.01
-232.48
-292.22
-354.92
-406.71
-434.64
-430.97
-393.92
-329.20
-248.36
-165.98
-96.87
-51.01
-31.82
-34.49
-48.65
-60.97
-59.80
-38.77
2.41
57.35
116.33
167.67
201.63
211.73
195.99
157.08
100.04
31.83
-40.85
-110.19
-168.81
-209.44
-225.96
-215.86
-181.05
-129.40
-71.46
-18.09
24.84
56.11
78.36
97.64
120.29
151.77
192.89
240.00
284.92
319.35
335.62
328.53
298.20
249.56
192.10
136.66
94.31
74.48
84.01
121.98
177.57
233.93
273.41
284.43
264.66
220.82
155.15
81.73
20.15
-16.39
-25.90
-15.03
8.23
38.67
71.94
104.43
133.06
154.76
166.02
165.67
154.19
134.86
111.79
87.18
62.14
37.78
14.68
-7.23
-27.53
-44.26
-55.52
-60.13
-59.39
-55.84
-51.77
-49.36
-49.97
-54.34
-61.52
-70.96
-82.36
-97.00
-116.42
-140.78
-169.39
-199.84
-229.95
-257.22
-280.87
-301.13
-319.35
-337.71
-356.57
-375.95
-395.46
-415.98
-437.91
-460.45
-480.44
-492.25
-491.97
-476.14
-444.24
-398.27
-342.89
-282.74
-221.37
-162.47
-110.07
-72.89
-58.01
-69.04
-103.34
-152.43
-203.68
-243.09
-261.59
-257.42
-240.18
-220.97
-206.81
-197.57
-187.21
-168.38
-135.96
-92.15
-26.35
52.43
123.94
170.48
188.04
185.20
169.79
150.41
130.14
110.84
91.82
75.85
71.54
85.09
118.19
166.36
223.15
280.04
329.72
364.65
381.19
380.24
364.60
337.31
300.35
257.20
211.58
168.08
129.94
100.90
85.29
86.29
105.26
133.04
159.99
177.88
183.84
179.30
167.78
152.87
136.49
119.37
101.30
83.28
66.50
52.01
40.03
30.06
21.59
13.93
6.53
-1.20
-8.62
-14.93
-19.48
-22.32
-23.97
-25.19
-26.66
-28.63
-31.40
-34.07
-35.53
-34.86
-31.75
-26.38
-19.38
-11.68
-2.58
5.43
10.77
12.17
8.48
-1.37
-17.66
-40.21
-67.85
-98.33
-129.10
-157.13
-179.70
-194.54
-200.75
-198.01
-187.43
-170.82
-149.86
-126.87
-103.98
-83.28
-66.01
-53.37
-45.59
-43.07
-45.77
-52.47
-62.55
-75.01
-89.31
-104.26
-118.92
-131.38
-139.40
-147.22
-154.68
-161.58
-167.04
-170.61
-171.60
-170.06
-165.81
-158.95
-150.66
-140.57
-129.39
-116.88
-102.75
-85.89
-65.59
-41.24
-12.83
17.62
48.44
76.21
98.39
112.78
118.76
116.94
109.22
98.19
84.95
70.89
56.05
41.50
29.20
21.82
22.66
35.93
64.37
106.32
157.13
209.85
258.54
300.15
334.23
363.77
396.80
440.24
494.33
551.82
600.69
628.61
626.86
591.40
524.87
442.08
361.90
299.88
264.45
257.34
273.62
302.50
328.32
336.62
328.18
313.10
304.90
314.52
349.32
411.49
498.02
600.51
653.46
611.94
474.45
281.61
78.63
-108.09
-269.53
-402.70
-505.77
-577.85
-611.78
-605.85
-567.70
-513.23
-457.77
-411.95
-379.83
-361.15
-353.93
-347.64
-333.11
-306.76
-274.95
-242.51
-213.87
-190.95
-173.13
-159.44
-143.27
-119.07
-84.94
-44.03
-1.29
38.36
71.15
95.33
108.81
113.47
111.60
104.77
92.96
75.58
51.93
20.54
-11.84
-41.48
-63.75
-75.36
-74.70
-62.07
-39.70
-10.80
20.71
52.52
81.65
106.76
127.85
145.62
161.48
176.16
189.80
201.44
210.75
216.35
217.02
212.38
201.63
184.30
159.09
124.66
80.20
27.98
-28.55
-85.22
-136.54
-178.36
-208.33
-227.68
-240.86
-253.12
-265.87
-280.05
-296.96
-315.30
-333.08
-346.49
-351.74
-348.71
-338.20
-318.17
-292.12
-269.70
-258.66
-263.74
-284.24
-315.49
-356.87
-406.52
-454.74
-496.89
-534.26
-565.16
-585.53
-589.69
-573.22
-542.97
-507.70
-466.11
-421.72
-383.03
-353.11
-330.33
-310.17
-244.64
-114.29
10.44
98.55
158.96
193.37
208.51
215.46
225.12
244.14
263.99
273.16
271.89
259.68
235.58
204.02
171.69
142.88
119.42
96.14
71.56
56.55
58.86
78.59
111.66
151.17
189.05
219.17
235.28
235.98
228.54
218.59
207.94
197.71
188.96
182.62
179.67
179.34
181.09
188.01
202.41
225.73
258.69
300.18
345.56
387.05
415.75
425.00
415.11
391.17
361.07
332.07
308.69
292.29
282.10
277.31
276.41
277.12
274.73
262.87
235.81
191.49
133.83
71.34
14.62
-27.95
-52.20
-58.73
-51.35
-34.59
-12.63
11.96
37.04
61.46
83.60
101.51
112.97
115.71
108.65
91.77
67.16
37.75
7.14
-21.88
-48.40
-73.18
-98.24
-125.05
-154.62
-186.93
-221.76
-258.35
-294.73
-327.87
-353.40
-367.37
-367.12
-353.16
-328.81
-298.27
-264.55
-227.27
-184.70
-135.37
-82.19
-31.95
5.88
23.24
17.82
-5.66
-35.42
-57.22
-57.94
-31.90
17.38
77.51
130.96
161.36
158.36
121.59
59.79
-11.38
-75.38
-119.28
-136.18
-125.34
-90.07
-36.83
26.26
89.48
142.76
177.13
186.49
170.70
135.06
90.00
46.51
13.43
-5.51
-12.32
-11.87
-9.80
-9.21
-11.42
-15.76
-22.64
-33.57
-50.92
-77.07
-111.90
-153.23
-196.62
-238.58
-277.29
-314.09
-352.07
-392.89
-435.17
-472.77
-497.51
-501.94
-483.95
-447.34
-400.77
-354.96
-317.63
-291.95
-275.55
-263.90
-252.26
-237.68
-219.47
-198.40
-177.08
-158.62
-146.74
-143.03
-146.32
-152.03
-153.54
-145.82
-126.80
-98.83
-66.10
-32.93
-1.17
29.56
59.82
89.46
116.01
136.82
149.51
153.82
150.39
140.01
123.26
99.70
69.35
32.87
-6.72
-45.01
-76.95
-98.51
-108.22
-106.98
-97.94
-84.35
-69.06
-52.88
-34.79
-12.71
16.16
52.37
94.11
135.26
167.46
181.65
171.88
138.51
88.08
33.37
-12.18
-37.06
-35.98
-9.34
37.49
96.07
157.81
213.71
257.13
283.04
290.49
282.74
266.99
252.97
249.81
264.80
299.92
352.27
412.82
468.27
503.79
506.61
472.04
405.10
322.54
246.57
198.68
190.50
219.27
269.31
316.70
340.04
326.65
278.59
209.26
138.93
87.06
65.86
79.43
122.88
187.05
259.14
326.46
377.36
403.08
399.97
369.37
318.19
255.32
190.86
131.88
81.66
40.18
4.96
-25.00
-49.56
-65.73
-70.91
-63.25
-44.22
-19.00
6.08
24.29
31.91
26.75
9.27
-18.44
-51.24
-80.84
-98.14
-95.19
-70.86
-30.96
11.48
41.51
49.29
33.70
2.06
-35.50
-69.86
-97.51
-118.20
-133.86
-148.50
-163.56
-178.75
-192.44
-204.84
-216.94
-230.68
-246.19
-261.86
-279.40
-299.14
-320.47
-341.65
-362.13
-382.17
-401.62
-418.22
-427.64
-430.75
-427.77
-418.69
-403.40
-383.72
-364.26
-350.33
-346.80
-323.62
-266.87
-181.30
-85.36
6.28
89.47
163.22
224.42
266.95
286.46
278.91
249.83
211.81
174.00
145.95
129.21
119.74
113.05
107.17
99.27
89.31
78.18
66.15
52.30
32.75
1.42
-37.16
-79.04
-121.06
-159.55
-190.54
-211.09
-219.07
-214.66
-200.62
-179.54
-154.69
-129.82
-108.92
-94.35
-86.10
-80.43
-61.43
-21.09
37.07
98.08
145.98
171.49
174.99
163.50
146.56
131.49
119.97
110.81
101.37
90.75
78.80
65.55
51.03
34.99
17.88
-0.36
-18.07
-34.01
-44.50
-47.94
-45.95
-42.30
-41.14
-44.38
-51.63
-59.16
-61.47
-52.68
-29.83
5.68
48.29
89.52
121.17
137.22
136.35
122.31
102.44
84.58
71.77
64.24
57.12
46.31
30.95
15.32
6.66
10.48
27.41
53.45
81.59
105.02
119.97
125.05
119.58
102.76
70.30
22.95
-34.19
-91.70
-139.01
-167.40
-172.25
-157.07
-133.68
-117.15
-116.65
-134.03
-164.74
-202.55
-242.07
-281.06
-319.04
-353.93
-382.69
-400.23
-403.20
-389.87
-360.69
-317.50
-261.13
-195.19
-123.44
-50.69
18.84
80.02
128.11
159.22
170.79
163.37
139.48
104.82
65.91
29.79
1.98
-14.18
-17.45
-9.42
7.70
30.58
56.71
83.41
108.67
130.86
148.57
161.26
167.90
168.48
163.62
154.21
140.21
120.68
94.48
60.30
18.54
-29.93
-82.26
-131.95
-172.18
-197.24
-204.19
-191.92
-161.63
-114.76
-53.80
18.63
104.63
205.39
319.94
443.26
568.17
685.72
787.83
867.48
919.97
949.83
963.50
967.29
964.96
958.86
951.11
945.63
947.30
918.35
834.90
688.72
493.07
273.82
57.15
-138.37
-301.36
-426.32
-513.38
-560.86
-572.27
-554.45
-517.36
-471.25
-424.89
-384.71
-354.64
-335.99
-324.00
-313.14
-298.90
-279.60
-257.64
-237.04
-222.18
-215.25
-216.27
-219.82
-220.00
-213.30
-197.89
-177.68
-158.55
-147.58
-149.88
-164.56
-186.02
-205.82
-215.98
-206.02
-171.73
-113.20
-37.35
45.16
120.75
176.73
204.01
195.89
156.43
91.04
9.40
-78.37
-161.89
-233.10
-287.96
-309.39
-315.96
-303.63
-272.21
-222.82
-162.19
-101.83
-54.73
-31.04
-31.01
-48.15
-65.18
-71.33
-64.57
-53.62
-52.36
-70.08
-106.90
-151.07
-188.45
-203.17
-190.78
-155.67
-106.87
-52.89
3.44
62.30
125.12
187.20
240.53
271.68
268.39
226.54
152.11
61.88
-24.05
-87.03
-117.09
-112.41
-78.62
-25.74
36.37
97.39
148.81
182.29
192.39
177.67
141.53
92.18
38.24
-12.54
-56.88
-92.95
-119.25
-133.14
-131.40
-115.39
-91.43
-71.38
-65.17
-76.21
-98.41
-120.08
-132.33
-133.65
-131.95
-136.59
-152.31
-173.44
-186.63
-178.47
-142.34
-82.57
-9.51
65.00
134.79
198.25
255.73
306.00
343.69
363.17
360.65
338.81
304.21
265.50
228.60
193.44
155.93
109.71
52.46
-12.72
-75.63
-122.92
-142.37
-126.41
-75.66
3.03
96.71
191.21
272.76
330.70
358.96
355.75
324.34
270.63
203.36
130.30
58.38
-7.46
-64.77
-111.28
-145.99
-167.97
-178.72
-181.24
-181.21
-185.05
-197.38
-221.07
-254.13
-291.90
-326.26
-349.15
-353.95
-337.62
-302.03
-251.58
-193.34
-132.87
-74.94
-21.68
26.37
68.41
103.41
128.10
139.55
134.47
112.81
76.88
30.94
-19.64
-72.36
-126.81
-185.10
-246.89
-308.34
-360.03
-390.51
-392.00
-362.77
-309.71
-242.72
-172.04
-103.54
-40.54
13.87
55.23
77.05
76.42
55.13
23.11
-6.70
-22.54
-18.46
3.74
38.58
78.78
120.02
158.59
191.32
213.87
221.07
210.39
183.52
149.09
119.42
107.65
120.11
153.45
195.69
230.50
244.93
233.04
198.82
152.50
105.71
65.49
32.21
2.41
-27.71
-58.23
-86.93
-109.35
-121.52
-120.97
-107.18
-80.91
-41.70
11.23
78.29
152.80
218.55
256.94
258.16
226.27
173.61
114.10
57.40
8.64
-31.30
-63.50
-87.95
-104.32
-112.60
-115.00
-114.12
-112.51
-111.76
-112.14
-112.74
-112.00
-107.26
-97.44
-84.68
-72.10
-63.22
-60.75
-65.80
-77.61
-93.18
-108.34
-119.35
-124.48
-122.67
-113.25
-96.31
-71.56
-39.14
-0.53
41.33
82.78
120.45
153.00
180.96
204.19
221.58
229.86
226.40
211.08
191.83
172.51
157.62
150.06
149.04
151.18
152.79
152.78
152.05
151.51
149.66
144.08
132.05
112.11
85.52
52.97
17.99
-17.98
-57.54
-105.53
-162.73
-221.34
-267.19
-286.23
-271.07
-224.41
-157.76
-86.34
-22.61
27.55
64.27
90.43
106.44
111.84
107.28
94.37
75.45
52.32
25.99
-5.09
-44.91
-96.88
-159.40
-221.31
-266.38
-280.12
-257.66
-204.48
-132.11
-53.34
22.58
92.74
154.73
205.33
239.58
253.40
246.98
225.23
194.48
163.05
142.89
138.23
144.22
149.90
140.90
105.49
39.35
-56.45
-171.76
-286.90
-386.96
-467.26
-528.13
-571.87
-599.09
-586.32
-521.35
-439.37
-356.84
-270.23
-182.65
-94.81
-4.02
94.56
204.48
321.66
441.33
560.13
667.69
749.30
794.99
801.01
770.43
710.06
625.93
529.17
431.73
336.72
242.11
148.93
60.54
-17.74
-83.02
-137.16
-178.61
-206.79
-228.36
-252.77
-285.37
-330.26
-369.17
-385.07
-401.79
-426.86
-442.52
-440.12
-418.52
-377.99
-324.18
-263.63
-204.31
-152.38
-104.94
-57.49
1.19
52.09
93.54
119.80
125.32
104.58
55.49
-13.04
-87.32
-154.65
-206.16
-234.30
-240.11
-228.44
-206.67
-181.96
-156.02
-129.05
-103.24
-82.68
-67.97
-59.68
-53.92
-34.27
8.78
73.41
145.14
205.39
241.07
251.13
239.98
216.38
187.70
158.20
131.54
111.20
98.46
93.63
94.57
94.45
86.69
67.26
36.36
-0.50
-35.62
-61.32
-73.40
-70.52
-54.50
-23.60
19.75
68.67
114.54
148.75
167.55
173.05
171.88
170.74
171.59
169.84
156.24
124.19
73.47
12.48
-46.00
-90.80
-116.23
-124.72
-123.93
-123.67
-129.83
-143.32
-158.86
-167.42
-160.65
-133.25
-87.63
-32.79
16.96
48.10
51.29
23.96
-29.27
-100.23
-177.97
-252.27
-313.08
-352.11
-363.76
-346.31
-303.94
-244.66
-179.48
-117.59
-65.48
-24.98
5.70
29.77
51.73
74.83
102.55
136.24
176.27
220.69
266.53
311.31
352.58
389.66
420.94
444.50
456.49
452.82
431.35
393.22
344.12
291.28
242.43
201.57
169.74
145.38
126.16
111.70
102.29
98.97
100.41
104.54
108.46
109.94
108.52
103.67
94.92
80.01
56.77
23.56
-17.56
-60.89
-99.38
-126.59
-141.29
-146.35
-147.54
-151.50
-162.87
-181.86
-203.45
-220.53
-225.57
-215.82
-192.37
-158.90
-122.87
-93.73
-79.82
-85.33
-111.00
-152.96
-206.78
-266.84
-324.27
-373.61
-412.37
-439.00
-450.63
-444.36
-418.12
-375.73
-325.66
-274.29
-230.20
-200.20
-185.30
-180.41
-177.44
-155.16
-103.94
-51.24
-14.67
2.25
-3.17
-28.64
-66.88
-106.98
-138.08
-153.19
-149.50
-123.32
-77.22
-19.21
41.96
97.93
143.65
176.21
194.06
197.51
192.57
185.54
181.26
184.69
197.36
217.25
237.12
246.85
237.65
206.96
157.59
95.18
29.30
-30.32
-73.81
-94.58
-90.27
-63.30
-20.64
28.28
72.69
106.32
127.03
137.54
142.21
144.84
149.15
157.25
170.82
188.07
204.64
212.23
201.76
167.48
109.83
38.59
-31.03
-81.42
-100.67
-85.81
-44.38
8.07
55.34
85.52
96.75
94.85
90.95
93.64
105.16
121.62
135.14
139.77
132.51
114.39
87.48
54.37
18.54
-14.99
-38.69
-46.42
-35.44
-9.78
21.63
48.37
63.08
64.20
54.25
39.31
25.52
19.23
24.59
42.22
68.30
94.38
111.53
114.08
104.19
88.97
76.03
67.41
57.45
37.75
2.67
-44.91
-95.49
-137.74
-165.24
-179.62
-187.20
-194.94
-205.00
-215.97
-224.93
-230.67
-234.44
-237.38
-238.85
-233.94
-217.08
-183.69
-134.55
-76.57
-21.43
16.70
27.07
5.26
-42.95
-104.48
-161.54
-198.03
-204.90
-181.06
-133.07
-70.61
-4.70
55.71
102.70
129.60
132.33
109.36
64.48
5.08
-58.29
-115.94
-160.50
-187.82
-197.54
-190.74
-170.75
-140.70
-104.65
-66.25
-28.38
6.98
40.00
71.46
104.10
139.47
178.21
217.73
251.65
273.41
276.92
259.57
221.58
167.71
104.79
42.17
-8.61
-38.73
-40.60
-12.41
41.90
112.50
187.83
257.76
315.90
362.39
396.70
421.35
436.86
442.89
437.65
418.96
385.20
335.67
274.05
202.12
126.47
53.10
-13.57
-71.96
-123.59
-169.46
-218.87
-251.69
-261.84
-241.77
-191.22
-119.84
-44.78
14.50
44.75
42.30
16.32
-22.21
-59.84
-87.94
-104.23
-109.87
-107.91
-100.23
-89.14
-75.98
-64.93
-56.39
-48.41
-37.57
-20.50
2.37
27.29
48.13
60.37
62.34
58.68
55.81
57.12
61.63
64.52
61.29
51.79
40.76
28.50
17.59
8.69
-2.32
-21.52
-53.26
-96.76
-145.01
-188.61
-221.99
-241.70
-247.38
-241.28
-226.74
-207.26
-187.17
-169.78
-159.70
-160.07
-170.56
-188.60
-209.83
-229.73
-242.87
-244.45
-229.88
-197.14
-147.51
-85.29
-18.93
42.17
89.10
117.50
127.04
121.65
107.30
90.63
78.88
76.46
84.77
99.53
112.52
113.19
92.56
46.75
-21.39
-101.08
-177.58
-234.27
-258.24
-243.97
-196.05
-129.27
-63.23
-16.39
2.41
-4.64
-25.11
-43.98
-51.14
-45.33
-34.19
-27.15
-31.24
-46.30
-67.28
-87.36
-101.13
-106.31
-101.29
-85.13
-55.96
-14.40
35.43
85.57
126.93
154.31
168.24
176.24
187.28
208.70
242.08
283.25
324.89
358.92
379.38
381.47
363.28
324.40
268.07
201.22
132.57
70.79
21.52
-12.15
-29.40
-28.96
-9.60
28.44
80.65
135.77
178.84
195.99
181.25
139.22
82.71
26.31
-20.57
-56.10
-85.32
-113.60
-143.20
-171.56
-193.49
-204.62
-204.38
-194.22
-174.69
-145.16
-103.18
-47.91
16.86
82.50
137.60
169.14
170.23
142.54
95.36
42.19
-4.95
-40.81
-66.85
-87.45
-109.76
-135.26
-160.40
-178.97
-185.99
-178.88
-158.16
-124.87
-78.32
-22.30
39.73
101.77
157.10
200.03
228.38
242.97
232.57
216.07
190.57
154.97
108.67
54.57
-2.04
-54.71
-99.14
-133.95
-157.96
-174.54
-181.30
-173.30
-144.23
-91.47
-18.20
65.08
142.87
201.24
226.75
216.46
176.48
120.16
62.07
12.85
-24.60
-55.29
-85.55
-121.82
-162.56
-200.62
-226.71
-234.33
-222.25
-192.79
-150.70
-99.36
-43.85
10.71
57.52
90.52
107.47
110.95
108.41
106.67
109.46
113.71
112.83
100.11
72.28
31.82
-14.88
-58.64
-90.86
-105.00
-99.08
-76.82
-46.35
-18.44
-0.43
5.86
5.75
7.01
14.15
24.76
29.02
16.36
-19.82
-76.38
-142.66
-203.88
-247.12
-264.88
-254.72
-219.73
-165.42
-100.74
-34.91
23.66
70.44
106.03
133.93
158.27
178.70
191.01
187.78
163.51
117.58
54.70
-15.71
-84.48
-143.55
-188.46
-216.14
-224.31
-211.75
-178.40
-127.81
-65.27
2.00
68.75
131.54
188.57
237.88
274.89
293.86
288.14
255.23
196.64
120.00
36.62
-41.42
-103.09
-142.12
-156.54
-150.07
-128.65
-99.47
-68.38
-38.15
-9.80
18.39
47.32
77.64
107.59
134.11
154.24
165.92
170.82
172.56
176.94
187.02
201.91
215.52
218.79
204.55
169.93
119.01
58.32
-4.61
-65.89
-124.19
-178.26
-225.80
-261.43
-280.78
-282.00
-269.33
-250.97
-235.54
-227.83
-225.07
-219.65
-201.08
-162.86
-104.53
-33.09
39.31
100.54
141.16
158.87
157.17
145.28
133.33
128.66
133.27
142.43
148.08
141.36
118.22
79.11
29.59
-23.57
-76.09
-126.09
-174.53
-220.56
-261.20
-289.98
-299.72
-285.80
-248.18
-192.18
-125.13
-55.28
11.49
70.33
117.55
150.61
168.19
172.28
166.80
156.87
144.73
129.29
106.76
73.32
29.80
-18.83
-64.41
-100.85
-126.08
-142.72
-154.34
-161.06
-159.33
-142.34
-106.51
-53.46
8.25
67.08
113.48
142.51
154.90
153.09
139.40
113.39
74.16
22.44
-38.49
-102.14
-161.69
-210.06
-241.90
-252.03
-236.82
-195.17
-129.13
-46.04
44.33
130.68
204.05
258.13
290.10
300.19
291.22
269.98
245.04
226.03
219.05
224.65
237.19
246.77
244.85
226.86
195.63
158.33
124.66
101.92
93.02
97.15
109.64
125.67
139.59
148.02
147.52
136.29
114.70
85.44
55.20
31.68
22.38
30.22
53.59
86.29
120.00
148.23
166.37
173.20
168.33
152.42
126.01
90.60
50.21
10.61
-20.27
-36.47
-35.04
-19.66
1.45
17.53
18.46
-0.49
-38.74
-89.79
-146.19
-200.79
-250.05
-293.50
-331.22
-363.90
-390.77
-412.19
-429.30
-444.78
-460.51
-475.29
-485.14
-483.03
-463.73
-424.93
-370.33
-307.44
-245.07
-190.34
-145.99
-112.25
-86.81
-68.35
-55.33
-46.38
-38.98
-28.71
-11.80
13.64
44.28
72.97
89.81
86.76
60.57
13.35
-46.62
-108.46
-160.38
-192.99
-200.55
-182.25
-142.44
-89.24
-33.36
16.32
53.82
77.61
89.39
92.49
91.08
88.86
88.88
92.00
97.15
99.91
94.07
76.95
48.98
17.00
-8.44
-18.19
-9.96
12.33
40.85
68.10
89.79
103.98
111.08
111.79
106.83
96.65
82.69
66.68
50.59
36.45
24.84
15.20
5.82
-5.15
-18.03
-30.07
-35.95
-29.81
-8.36
26.37
67.45
105.36
131.74
142.69
140.02
129.14
116.02
104.62
95.91
89.29
84.23
81.09
80.94
85.00
93.48
106.60
121.70
135.73
146.41
152.37
153.15
148.93
140.31
127.93
110.27
89.23
65.93
41.26
16.47
-6.82
-26.90
-42.32
-52.31
-57.37
-58.88
-59.44
-61.88
-68.27
-78.96
-92.73
-107.17
-119.07
-126.05
-126.25
-118.99
-104.11
-81.85
-53.71
-23.20
3.52
20.82
26.07
21.60
13.58
8.72
10.56
17.79
25.37
28.56
26.23
21.25
18.93
23.12
34.16
49.01
63.52
74.51
81.37
85.19
86.95
86.74
83.11
74.20
58.91
38.07
13.70
-10.92
-32.55
-49.02
-59.58
-65.30
-68.07
-70.01
-72.13
-75.00
-78.03
-80.05
-80.87
-80.09
-78.79
-78.41
-80.44
-85.55
-93.99
-104.26
-114.22
-122.24
-126.84
-127.76
-125.37
-120.15
-112.29
-101.31
-86.25
-65.88
-40.34
-10.41
21.18
50.70
74.43
88.53
90.69
79.61
57.16
26.87
-4.47
-29.59
-43.19
-42.96
-32.07
-16.03
-1.44
8.56
14.04
18.35
25.42
36.00
48.70
59.10
64.48
63.92
60.32
58.00
60.40
68.82
80.56
92.16
99.05
99.14
91.75
77.51
58.44
35.96
13.06
-7.79
-22.08
-27.31
-23.08
-12.65
-2.99
0.15
-5.97
-16.88
-25.12
-22.32
-5.76
19.73
44.44
56.55
50.75
29.52
4.28
-12.95
-15.12
-3.59
13.30
27.63
35.00
38.46
42.80
51.01
59.97
61.42
48.37
19.07
-18.66
-53.01
-71.63
-69.46
-50.30
-23.89
-1.67
9.63
8.06
-2.27
-16.65
-30.97
-43.29
-54.16
-63.86
-73.32
-81.80
-89.74
-97.37
-105.10
-112.43
-115.92
-111.07
-92.43
-59.75
-17.90
22.13
48.71
55.89
46.97
35.19
35.54
58.86
103.15
155.75
198.87
218.31
210.66
182.07
145.07
109.47
80.27
56.61
35.89
18.56
7.49
7.50
19.08
37.91
54.58
59.52
48.70
24.36
-5.54
-33.67
-55.63
-73.20
-90.64
-111.15
-133.99
-153.91
-165.20
-164.14
-153.24
-138.71
-128.00
-125.53
-130.10
-136.55
-138.32
-133.33
-124.48
-119.71
-127.28
-150.81
-187.91
-230.13
-268.89
-297.93
-316.77
-327.85
-333.08
-331.99
-320.19
-293.59
-250.14
-193.48
-130.42
-69.15
-15.83
27.45
61.26
88.35
110.63
130.37
148.70
166.92
186.89
210.08
237.90
269.29
300.95
325.78
336.24
325.65
290.52
233.69
163.06
91.25
30.00
-12.69
-36.22
-45.57
-48.61
-52.37
-58.12
-62.23
-57.62
-39.57
-8.46
30.02
70.05
108.33
145.37
184.71
228.29
274.24
315.60
343.29
350.72
339.08
315.49
289.06
267.75
255.24
252.13
257.61
270.95
275.38
260.66
224.63
173.90
119.98
71.77
32.29
0.00
-28.59
-56.07
-80.50
-98.72
-108.33
-109.20
-103.92
-96.04
-88.89
-84.59
-84.02
-84.58
-83.46
-78.90
-70.70
-59.97
-47.18
-32.36
-16.07
-0.90
10.00
12.22
2.85
-16.03
-41.88
-69.04
-92.05
-108.10
-117.68
-122.30
-123.61
-122.18
-118.43
-114.33
-113.03
-118.16
-131.53
-151.40
-170.26
-181.16
-179.41
-164.40
-139.98
-111.67
-84.37
-60.84
-41.78
-26.67
-15.01
-6.46
-0.70
2.47
3.90
4.59
5.67
8.00
11.96
17.49
24.42
32.55
41.87
52.55
64.68
77.97
91.83
104.85
115.19
121.13
121.38
115.38
103.37
86.35
65.61
43.33
21.24
0.66
-17.37
-32.19
-43.48
-51.30
-55.96
-57.88
-57.68
-56.22
-54.14
-51.88
-49.70
-47.67
-45.86
-44.33
-42.92
-41.54
-40.30
-39.15
-38.04
-36.92
-35.87
-35.29
-35.75
-37.95
-42.24
-48.84
-57.72
-67.79
-78.07
-86.83
-92.65
-94.43
-91.44
-83.14
-69.34
-50.21
-26.42
0.62
28.62
54.63
75.42
88.32
91.79
85.67
71.36
51.31
28.30
4.64
-18.28
-39.83
-60.02
-79.23
-98.27
-118.18
-140.39
-163.46
-183.84
-195.71
-192.69
-170.63
-129.96
-76.21
-18.24
35.19
78.49
109.75
131.38
147.12
159.55
169.36
176.37
180.91
184.05
186.74
188.04
184.70
172.51
148.82
114.60
75.35
38.88
12.16
-1.41
-2.76
4.11
14.84
26.64
38.62
50.92
63.10
73.17
78.32
76.17
66.03
49.08
27.82
4.98
-17.45
-38.53
-58.47
-77.78
-96.64
-114.78
-131.67
-146.54
-158.34
-164.43
-161.96
-148.48
-123.82
-90.97
-55.66
-24.65
-3.15
7.06
7.80
2.45
-5.60
-14.73
-24.69
-35.34
-45.54
-53.08
-54.96
-49.06
-35.22
-14.93
9.04
33.65
56.53
76.07
91.32
101.73
106.59
104.54
95.71
80.48
60.15
36.74
12.54
-10.34
-30.47
-47.62
-62.42
-75.67
-88.23
-100.32
-111.28
-119.62
-123.65
-121.99
-113.99
-99.93
-80.29
-56.05
-28.18
2.14
33.65
64.86
93.97
119.69
139.72
152.49
157.30
154.72
146.01
132.99
117.23
99.73
81.09
61.73
42.85
26.14
14.16
9.12
12.37
23.51
40.43
59.68
76.74
87.20
87.60
76.44
54.83
26.73
-2.02
-25.46
-39.26
-42.74
-38.77
-32.82
-30.72
-36.32
-49.76
-67.69
-84.97
-96.56
-99.72
-94.64
-84.00
-71.74
-61.79
-56.43
-56.01
-59.81
-66.25
-73.74
-81.13
-87.62
-92.48
-94.58
-91.65
-80.86
-59.99
-28.26
13.03
60.86
111.86
163.81
213.81
260.06
301.34
335.43
358.18
363.77
346.50
303.77
237.89
156.31
70.02
-9.89
-75.43
-122.87
-152.06
-164.78
-162.97
-148.91
-125.56
-97.00
-68.33
-44.64
-29.38
-23.32
-24.83
-30.55
-37.23
-42.46
-45.52
-47.00
-48.91
-53.35
-61.17
-71.24
-80.55
-85.77
-83.91
-73.97
-56.53
-34.21
-10.86
9.65
24.81
34.33
39.81
45.17
53.36
65.44
78.68
86.61
81.36
57.07
12.23
-49.95
-121.26
-193.16
-248.61
-270.35
-249.26
-190.02
-107.61
-17.80
62.06
132.15
193.59
243.68
277.92
291.80
282.06
248.64
195.05
126.04
50.27
-28.86
-116.28
-213.99
-322.03
-436.77
-551.43
-656.69
-744.28
-808.31
-826.28
-787.67
-695.46
-564.33
-412.14
-253.79
-99.01
43.59
165.61
259.63
319.49
345.76
346.07
337.22
327.26
319.99
315.24
311.25
306.87
299.15
286.67
270.78
254.46
239.95
229.48
224.52
219.35
212.00
199.64
180.63
156.48
131.37
110.13
98.07
98.46
110.71
130.81
149.49
148.72
116.79
54.71
-24.13
-99.76
-155.33
-181.20
-173.96
-137.06
-79.07
-12.01
49.62
90.76
101.24
84.76
49.27
9.36
-19.95
-28.32
-12.73
22.30
67.01
110.64
137.80
142.40
127.18
98.40
62.07
23.22
-13.71
-44.61
-65.69
-74.00
-70.68
-60.00
-50.19
-49.77
-63.84
-90.87
-122.46
-147.89
-157.85
-147.57
-117.15
-71.08
-15.27
43.43
102.14
157.73
206.54
246.42
276.80
297.90
308.16
304.36
282.95
242.87
186.92
121.16
53.45
-9.62
-62.13
-102.73
-133.91
-159.64
-183.73
-208.96
-237.59
-270.01
-305.96
-343.81
-380.73
-413.06
-436.20
-446.62
-442.64
-425.97
-400.49
-370.88
-340.50
-309.36
-273.85
-227.66
-165.92
-88.16
-0.88
83.32
149.47
185.48
187.39
160.60
119.21
80.02
57.77
60.88
90.03
139.53
199.74
260.72
312.67
348.44
362.58
352.20
317.91
263.74
197.73
128.99
67.22
18.72
-13.84
-31.90
-39.64
-41.90
-43.35
-46.39
-52.81
-62.72
-75.56
-90.20
-105.08
-118.98
-130.80
-140.77
-148.49
-154.03
-156.74
-155.40
-148.65
-134.96
-114.03
-86.17
-54.82
-25.09
-2.81
8.76
10.55
6.69
2.54
0.25
-1.00
-4.61
-13.03
-24.91
-34.19
-33.52
-19.91
3.71
29.34
49.69
62.38
70.70
81.83
104.04
142.69
195.90
255.47
309.12
344.88
354.21
333.30
284.38
216.86
145.20
84.10
44.84
33.66
51.91
96.17
158.47
213.89
237.30
216.82
161.35
90.23
19.81
-41.59
-91.84
-131.95
-163.38
-185.79
-198.68
-202.54
-199.90
-193.60
-184.71
-172.37
-155.43
-133.04
-104.66
-71.21
-34.78
1.39
34.47
63.69
90.38
112.28
128.74
139.01
141.07
131.51
105.79
60.69
-3.06
-80.25
-162.97
-234.91
-279.35
-288.79
-268.56
-232.43
-193.65
-158.77
-129.22
-98.81
-61.99
-17.06
33.79
86.76
137.74
176.07
193.73
188.79
166.83
136.60
104.20
71.33
40.51
10.20
-17.21
-35.50
-39.03
-26.94
-3.06
23.90
44.21
52.42
48.83
39.02
30.33
27.06
28.91
31.87
31.36
25.24
14.90
3.24
-6.26
-10.83
-9.83
-4.52
1.35
3.24
-2.86
-19.14
-44.55
-73.81
-98.23
-108.72
-99.99
-72.74
-32.70
12.44
56.46
95.51
127.31
148.75
155.22
141.15
103.36
44.20
-28.50
-100.53
-157.02
-186.41
-183.65
-150.44
-95.06
-30.81
27.36
66.36
78.89
64.27
28.12
-20.24
-66.74
-98.50
-110.88
-107.88
-95.85
-75.74
-45.95
-0.54
60.69
129.94
193.30
236.67
252.42
238.70
203.10
157.79
112.72
71.21
30.50
-14.78
-68.06
-127.18
-184.06
-226.59
-243.75
-231.94
-196.94
-152.42
-115.44
-101.02
-117.14
-161.60
-222.55
-275.91
-299.89
-283.78
-234.41
-170.93
-112.83
-71.13
-47.02
-36.00
-25.82
-8.17
20.62
59.98
106.46
154.49
197.28
224.29
226.45
201.33
153.14
93.60
38.46
2.69
-5.47
12.06
43.60
73.92
91.92
93.23
81.87
67.08
58.98
60.98
71.58
82.07
82.32
69.72
49.15
28.70
12.84
0.66
-12.87
-32.39
-57.98
-85.60
-105.91
-110.76
-97.96
-74.43
-51.07
-38.52
-42.10
-58.68
-81.42
-101.20
-113.32
-120.22
-131.21
-152.26
-182.29
-212.63
-231.56
-228.46
-196.36
-136.77
-58.76
23.34
99.89
165.91
218.61
253.98
255.85
215.86
140.94
67.53
15.39
-6.14
-0.03
28.34
70.43
118.17
168.24
219.25
268.28
306.17
323.81
313.79
273.38
205.69
120.16
32.37
-41.22
-87.89
-103.46
-88.68
-48.74
8.78
73.91
136.44
187.35
218.77
224.48
200.40
148.78
76.99
-3.89
-82.71
-149.32
-195.33
-214.88
-205.05
-167.86
-109.64
-41.54
22.77
70.42
93.52
91.35
68.76
33.04
-8.93
-51.23
-88.34
-114.78
-125.88
-119.53
-97.71
-66.95
-36.14
-13.77
-4.81
-9.38
-23.41
-41.52
-60.13
-78.24
-96.97
-116.79
-135.34
-146.67
-142.95
-117.83
-69.29
-2.53
71.24
137.69
184.53
205.43
200.72
175.82
138.05
94.68
52.13
17.19
-2.66
-0.10
29.03
82.50
149.88
214.02
256.62
264.34
233.59
170.32
87.09
-1.19
-80.51
-140.42
-175.22
-184.68
-174.20
-153.33
-133.27
-123.42
-128.44
-147.30
-175.55
-207.30
-236.24
-255.63
-258.33
-238.60
-195.18
-132.88
-61.74
5.17
56.67
87.28
96.79
88.19
64.00
24.89
-28.20
-86.81
-135.96
-160.43
-154.50
-124.69
-82.61
-38.32
1.67
31.65
52.34
64.07
63.97
51.81
31.49
10.63
-2.95
-4.80
5.42
23.88
44.07
59.13
65.87
64.29
58.80
56.59
64.63
86.81
120.44
157.52
187.16
197.89
181.33
136.02
67.03
-16.34
-104.59
-189.98
-264.71
-312.86
-323.14
-297.01
-247.35
-190.57
-144.83
-108.50
-77.16
-45.30
-7.01
42.39
100.94
163.41
223.15
275.51
317.12
343.50
351.22
337.79
300.47
237.91
154.53
54.89
-39.65
-104.16
-127.97
-117.19
-86.60
-50.83
-22.58
-3.44
6.66
8.72
2.59
-12.86
-35.31
-56.46
-65.66
-54.60
-20.57
30.17
84.93
126.95
140.98
120.74
70.47
2.41
-69.30
-133.04
-182.74
-216.93
-236.85
-244.57
-240.47
-223.88
-194.63
-154.47
-106.29
-52.73
4.00
61.62
115.19
157.16
178.34
171.29
134.55
74.50
5.32
-56.02
-94.26
-101.07
-76.50
-27.65
34.22
97.11
150.29
187.03
203.89
201.44
182.87
152.40
115.12
75.80
39.76
11.74
-4.09
-6.53
1.46
12.60
16.84
6.40
-21.96
-63.85
-110.02
-149.72
-175.19
-183.72
-176.32
-156.45
-126.49
-89.05
-46.68
-3.34
35.74
65.81
83.81
89.91
85.16
71.94
51.75
26.04
-2.74
-31.13
-54.17
-67.96
-69.74
-60.33
-42.63
-20.86
0.89
20.26
35.43
46.50
52.85
54.60
51.69
44.71
35.14
24.47
14.55
5.17
-4.19
-14.93
-27.45
-40.44
-51.21
-56.16
-53.49
-42.50
-25.51
-5.73
13.42
29.41
41.55
49.83
55.84
60.04
62.83
63.56
61.51
56.83
50.28
44.08
39.16
36.08
33.60
30.33
25.66
19.87
14.39
9.38
4.82
-0.80
-8.27
-17.10
-25.34
-30.59
-32.42
-31.71
-31.69
-34.69
-41.26
-49.32
-55.12
-55.95
-50.68
-41.80
-32.49
-25.78
-22.68
-22.13
-22.40
-21.61
-19.96
-18.08
-17.59
-19.20
-22.72
-27.46
-32.38
-37.74
-43.64
-51.39
-61.83
-75.70
-93.11
-113.15
-134.49
-154.22
-169.86
-178.58
-179.00
-171.51
-158.26
-142.76
-127.82
-115.88
-107.00
-100.77
-96.46
-93.74
-92.90
-93.34
-93.99
-91.83
-84.66
-71.43
-53.80
-34.57
-15.64
2.56
21.70
42.99
66.18
87.64
101.57
102.84
90.76
71.21
53.27
46.43
56.35
83.68
124.25
170.48
214.07
248.93
272.74
284.52
283.44
268.70
240.21
199.10
147.26
88.36
29.29
-19.89
-49.31
-52.71
-28.37
20.81
88.35
164.79
229.46
260.28
248.46
205.49
150.92
99.32
56.13
21.53
-6.53
-29.12
-43.22
-46.54
-38.33
-22.66
-6.15
5.26
9.76
9.82
10.33
16.85
31.21
49.70
62.71
60.19
36.93
-5.06
-58.39
-114.20
-163.97
-201.04
-219.82
-216.18
-187.65
-134.76
-62.94
17.74
94.55
156.64
196.91
212.81
204.53
174.01
124.52
60.58
-11.71
-86.19
-156.84
-218.46
-265.91
-293.80
-297.16
-273.78
-228.08
-171.01
-118.18
-83.71
-74.03
-85.41
-106.90
-125.99
-134.47
-131.68
-122.51
-113.56
-109.59
-109.88
-108.98
-100.34
-78.69
-42.50
5.41
59.25
112.44
159.71
200.71
235.79
260.94
272.99
272.34
261.36
241.47
216.77
185.12
146.81
104.70
59.80
11.77
-40.06
-93.03
-136.75
-159.47
-157.53
-147.42
-134.51
-118.87
-92.19
-51.50
1.92
60.15
110.24
137.85
134.73
104.13
56.26
5.91
-34.49
-57.35
-62.74
-56.77
-47.84
-42.06
-39.88
-40.79
-43.71
-48.92
-56.42
-65.62
-75.05
-81.30
-79.20
-62.53
-29.76
15.01
62.07
100.34
120.85
119.42
98.14
63.76
25.23
-12.13
-47.40
-82.50
-118.81
-154.55
-185.58
-206.49
-212.45
-201.00
-174.16
-137.53
-97.55
-59.51
-26.13
1.29
22.57
40.18
58.34
81.88
114.42
158.35
213.86
278.85
348.52
405.27
431.43
420.56
382.07
331.87
282.59
240.44
207.90
185.29
170.99
162.91
156.69
146.77
127.69
97.96
59.80
19.98
-13.76
-36.09
-44.20
-39.46
-25.51
-7.21
11.25
27.07
38.59
44.04
40.80
33.35
24.34
16.31
10.87
8.79
9.83
13.12
17.34
21.11
24.14
26.12
27.46
28.59
29.67
30.50
30.58
29.38
26.50
22.29
16.98
11.46
6.72
3.51
2.19
2.74
4.87
8.16
12.28
16.70
21.18
25.69
30.13
34.30
37.89
40.53
41.97
42.11
40.86
38.39
35.02
31.19
27.28
23.62
20.44
17.87
15.91
14.41
13.17
11.96
10.58
8.95
7.07
5.00
2.95
1.14
-0.20
-0.87
-0.77
0.15
1.80
4.02
6.60
9.36
11.30
11.83
11.22
10.24
9.64
9.76
10.58
11.95
13.67
14.65
14.18
12.26
9.32
5.71
1.43
-3.67
-9.60
-16.22
-25.18
-37.11
-50.75
-63.67
-73.87
-80.57
-83.99
-84.77
-83.67
-87.14
-99.14
-118.62
-141.00
-162.49
-182.02
-200.33
-218.52
-237.18
-267.88
-316.62
-378.95
-443.25
-499.83
-544.94
-579.11
-604.18
-621.57
-650.51
-701.73
-769.70
-837.84
-892.81
-930.73
-954.30
-967.96
-975.12
-1001.80
-1062.80
-1151.50
-1246.89
-1331.75
-1400.84
-1457.31
-1507.07
-1402.47
-1086.44
-622.46
-143.27
256.68
555.31
771.70
932.27
1055.41
1149.83
1194.30
1177.60
1112.23
1027.80
950.49
892.16
852.71
826.87
809.54
779.20
724.68
652.25
579.37
520.08
478.58
452.17
436.11
427.71
414.28
389.30
356.76
327.17
308.38
301.63
303.69
310.67
319.50
322.94
317.46
305.32
292.12
282.83
279.83
283.41
292.46
304.09
311.99
310.29
296.21
270.39
235.93
196.94
156.57
119.61
89.60
68.21
55.39
50.06
49.78
52.13
55.12
57.39
58.30
57.44
55.05
52.04
49.83
47.58
44.65
41.56
40.21
42.76
50.47
63.49
81.07
101.59
117.75
122.72
112.94
88.84
53.37
9.58
-39.83
-92.43
-146.19
-206.96
-279.21
-362.25
-449.59
-532.11
-602.75
-657.78
-696.49
-720.69
-743.50
-776.13
-822.81
-879.74
-939.54
-997.24
-1051.02
-1100.18
-1082.81
-963.73
-748.75
-484.33
-225.24
-7.46
155.29
264.95
332.23
371.05
384.82
376.06
348.90
308.83
265.51
226.37
196.66
180.90
182.87
197.51
219.31
246.42
276.10
305.76
332.09
353.35
370.22
384.20
390.93
391.37
382.08
363.43
339.48
314.38
291.58
273.29
259.82
247.27
231.95
212.62
191.65
173.97
157.76
144.08
134.49
129.01
124.86
110.96
81.40
37.06
-15.69
-63.66
-102.24
-129.67
-145.88
-153.48
-154.27
-148.95
-137.78
-121.04
-99.26
-71.14
-35.03
9.05
58.60
109.87
159.66
205.40
244.87
265.28
258.12
222.43
165.15
96.48
25.32
-42.23
-102.48
-151.93
-191.25
-218.24
-230.04
-225.59
-206.50
-175.67
-135.40
-85.95
-30.21
26.78
81.04
129.78
171.69
206.08
231.74
246.10
245.14
224.94
184.49
129.08
68.58
14.29
-25.19
-46.64
-52.50
-48.70
-41.48
-34.72
-28.82
-22.78
-16.21
-10.25
-6.90
-7.55
-11.94
-18.07
-23.32
-25.27
-22.78
-16.35
-7.69
0.97
7.95
12.59
15.20
16.67
17.09
16.10
13.01
7.55
-0.39
-9.95
-19.61
-27.54
-32.22
-34.06
-34.23
-34.19
-34.33
-34.88
-35.07
-33.84
-30.50
-21.38
-7.31
8.85
23.33
33.55
37.12
32.79
19.75
-2.45
-28.84
-55.38
-78.86
-98.40
-113.52
-125.10
-133.82
-140.69
-145.72
-146.97
-141.70
-126.25
-105.05
-76.38
-43.52
-12.91
8.50
17.66
16.50
8.95
-1.23
-12.56
-24.97
-40.77
-56.87
-70.95
-80.05
-82.64
-81.02
-81.10
-90.01
-111.70
-145.66
-185.18
-220.08
-239.97
-238.67
-216.92
-181.59
-142.04
-104.70
-71.13
-37.64
0.27
44.03
89.46
128.14
152.37
159.31
152.37
137.84
121.03
103.12
82.31
56.85
27.77
-0.81
-24.69
-43.55
-62.89
-91.46
-136.18
-196.99
-264.98
-325.50
-363.63
-369.39
-340.80
-283.39
-207.21
-123.35
-41.21
32.88
95.63
146.43
187.06
221.30
254.45
291.46
334.27
379.56
418.54
439.33
430.86
387.61
312.19
215.58
114.19
25.44
-36.79
-65.73
-63.27
-39.05
-6.62
21.54
38.85
46.22
50.09
57.39
70.59
85.70
94.54
90.32
72.45
48.30
30.24
29.85
52.58
95.05
146.68
193.72
223.95
229.70
209.31
167.10
112.03
55.93
10.76
-14.28
-15.58
3.54
33.46
61.25
75.17
68.58
42.25
3.35
-37.66
-71.42
-92.73
-101.30
-100.40
-94.19
-86.11
-78.21
-71.96
-68.75
-69.38
-72.70
-74.52
-68.85
-50.70
-19.76
18.30
53.58
76.56
82.53
73.19
54.74
33.42
12.31
-9.39
-33.95
-62.08
-91.52
-118.00
-138.26
-152.07
-162.49
-173.62
-187.95
-204.95
-221.22
-232.66
-236.20
-230.75
-216.57
-194.17
-163.83
-125.72
-80.82
-31.01
21.23
73.97
126.74
180.57
237.20
297.42
359.97
421.36
477.24
523.91
559.49
583.71
596.58
597.24
583.53
553.23
505.74
443.67
372.82
300.71
234.12
176.74
128.57
86.82
47.78
8.72
-31.25
-71.37
-110.36
-147.23
-182.11
-216.04
-250.54
-287.15
-327.17
-371.70
-421.28
-475.10
-529.84
-579.52
-616.31
-633.00
-625.90
-596.62
-551.71
-500.06
-449.48
-404.10
-364.01
-326.82
-289.97
-252.41
-214.68
-177.67
-141.16
-103.40
-61.84
-14.49
38.79
96.18
154.48
210.81
263.20
310.38
351.13
384.14
408.71
425.69
437.54
446.87
454.20
456.34
446.92
419.64
371.97
307.27
233.99
161.93
97.97
43.76
-3.84
-50.46
-100.95
-157.49
-218.67
-279.44
-331.67
-365.71
-373.31
-350.70
-300.70
-232.57
-159.27
-93.23
-42.43
-8.49
12.82
29.18
48.55
75.90
111.20
149.02
180.15
194.86
186.53
154.05
102.11
38.95
-26.96
-89.45
-145.79
-196.06
-241.77
-285.10
-327.73
-370.27
-411.47
-447.95
-474.92
-487.72
-483.93
-464.58
-433.67
-396.67
-358.53
-322.51
-290.11
-261.80
-237.61
-217.32
-200.27
-185.11
-170.32
-154.78
-138.34
-121.72
-105.85
-91.46
-78.58
-66.65
-55.05
-43.48
-31.97
-20.55
-8.78
4.45
20.63
40.92
65.31
92.30
119.33
143.81
164.35
181.54
197.73
215.90
238.81
268.10
304.00
345.10
387.88
426.55
453.27
460.09
442.02
400.16
342.97
284.17
238.26
215.17
217.36
240.34
276.66
320.31
369.01
422.75
480.10
535.09
577.24
595.24
582.15
539.01
474.97
403.08
334.81
275.93
225.70
179.03
130.44
77.47
22.51
-27.47
-63.04
-75.22
-58.86
-14.73
49.94
123.45
193.30
249.80
288.29
308.87
314.12
307.22
290.92
267.64
240.37
213.18
190.14
174.40
166.82
165.19
165.44
163.36
156.15
143.19
125.96
106.77
87.94
70.86
54.71
37.74
18.58
-2.91
-25.78
-48.11
-68.67
-86.43
-100.98
-115.39
-132.75
-154.24
-178.38
-202.34
-222.49
-238.07
-249.17
-256.50
-267.00
-286.48
-316.21
-352.09
-388.16
-417.76
-440.76
-458.48
-472.24
-492.08
-525.73
-573.74
-629.21
-683.31
-726.85
-760.92
-788.39
-811.46
-843.31
-894.09
-964.69
-1046.22
-1126.58
-1192.42
-1242.96
-1279.36
-1228.54
-1049.46
-755.33
-410.73
-86.88
146.13
305.35
410.72
476.15
511.69
517.90
495.18
453.12
409.17
379.66
376.09
392.27
417.72
444.15
458.59
453.65
431.16
400.11
371.20
354.16
347.59
347.80
351.70
351.37
340.22
316.48
282.98
246.22
213.63
186.24
163.26
143.79
124.70
103.42
79.79
55.64
35.98
25.64
24.89
31.41
42.00
53.59
64.42
74.99
87.34
107.37
140.38
187.57
246.06
310.31
374.85
434.87
486.88
506.07
475.35
393.24
276.01
147.16
24.45
-82.85
-172.30
-244.17
-299.58
-336.73
-355.22
-357.28
-347.28
-331.14
-312.93
-295.16
-278.04
-260.42
-238.01
-206.69
-164.20
-112.15
-54.39
7.05
65.52
114.41
148.72
168.28
176.38
177.17
173.20
164.79
153.40
139.76
124.90
110.39
98.29
90.07
85.90
89.25
95.97
103.95
110.97
115.66
117.21
115.82
111.70
105.00
95.53
74.13
42.83
5.58
-33.42
-71.23
-105.59
-135.54
-160.61
-181.03
-197.76
-209.96
-218.03
-222.54
-225.19
-226.28
-225.86
-223.59
-218.96
-211.95
-201.21
-186.57
-168.16
-147.01
-123.24
-98.82
-75.19
-52.79
-32.59
-14.36
1.12
17.28
32.26
44.26
51.50
52.68
47.87
36.74
19.97
-2.24
-29.11
-60.34
-94.11
-127.64
-162.45
-195.86
-224.67
-245.47
-256.04
-255.20
-243.64
-222.88
-195.01
-162.77
-128.09
-93.11
-59.78
-30.29
-6.87
8.65
15.22
13.49
4.93
-7.22
-18.36
-24.35
-22.79
-13.90
0.63
18.12
36.98
56.12
76.06
100.85
133.85
175.84
223.62
271.83
314.20
346.57
366.47
373.74
374.94
376.32
381.55
390.44
401.04
411.38
421.26
431.31
442.18
461.66
496.71
551.53
625.47
713.47
808.10
901.67
987.38
1016.57
958.29
808.38
594.51
359.14
136.58
-56.31
-215.97
-344.46
-445.71
-516.17
-551.39
-554.90
-535.02
-502.42
-466.86
-434.84
-409.93
-395.08
-387.05
-383.24
-380.35
-376.00
-369.44
-362.22
-354.72
-343.78
-324.10
-286.72
-224.89
-136.88
-31.77
72.58
156.02
204.06
211.53
182.43
129.12
63.69
2.41
-40.60
-59.13
-57.10
-46.11
-34.60
-24.97
-15.43
-3.38
14.37
36.40
57.91
71.97
75.81
68.45
51.38
27.26
0.70
-22.10
-35.69
-36.31
-25.29
-4.22
20.48
41.15
50.70
46.25
29.95
6.31
-9.45
-25.58
-38.14
-45.94
-48.12
-44.68
-36.51
-25.72
-16.43
-12.51
-18.10
-31.61
-51.19
-74.47
-99.93
-127.08
-155.81
-186.42
-218.36
-252.59
-287.25
-320.82
-349.61
-366.97
-364.64
-335.92
-281.05
-208.68
-135.66
-77.76
-45.19
-38.76
-51.11
-72.47
-95.09
-115.50
-131.91
-142.30
-141.04
-122.72
-87.83
-45.59
-12.43
-4.30
-28.87
-80.94
-144.92
-198.97
-224.29
-212.65
-168.59
-107.07
-47.38
-6.94
4.01
-15.86
-56.55
-100.34
-128.98
-129.89
-99.48
-42.57
30.70
115.57
198.31
264.23
305.31
321.86
318.14
298.79
268.38
232.53
197.59
168.11
147.47
136.23
131.84
129.20
123.82
113.51
99.11
83.35
68.32
56.38
48.39
43.56
39.28
33.07
23.65
11.49
-1.60
-14.23
-24.19
-29.92
-30.77
-27.57
-21.51
-13.57
-4.65
4.95
14.40
23.70
32.55
40.92
48.30
54.08
58.29
60.78
61.91
61.60
60.53
59.06
58.01
58.61
62.20
70.76
84.53
102.01
118.83
129.66
129.50
115.91
90.22
53.95
12.08
-30.75
-70.75
-105.91
-135.40
-158.86
-176.27
-187.41
-192.77
-192.32
-186.62
-175.75
-159.53
-138.28
-112.87
-84.54
-53.81
-21.01
14.28
51.57
89.49
126.22
158.92
184.79
201.78
209.63
209.70
205.27
200.82
201.35
210.71
228.16
247.24
256.95
246.02
207.32
140.93
54.09
-43.06
-134.52
-205.07
-246.35
-259.67
-252.48
-232.74
-205.62
-174.07
-140.55
-107.81
-79.69
-59.51
-48.44
-44.81
-44.60
-43.70
-39.46
-31.37
-20.68
-10.01
-1.99
2.02
2.60
1.97
2.62
6.21
13.21
23.09
34.26
45.08
54.45
62.22
69.09
75.84
82.56
89.10
94.88
98.92
100.46
99.16
95.36
89.95
84.02
78.08
72.56
67.56
62.98
58.71
54.61
50.78
47.60
45.50
44.40
44.48
45.88
48.76
53.24
59.30
66.81
75.79
86.09
96.73
107.01
116.20
123.51
128.17
129.20
125.36
114.90
100.75
83.83
64.98
45.19
25.51
7.23
-8.36
-19.92
-26.26
-26.45
-20.63
-9.22
6.98
26.76
48.69
71.15
92.67
111.96
128.12
140.17
147.80
151.25
151.22
148.83
145.20
141.46
138.52
136.94
136.63
137.22
138.24
139.10
139.30
138.39
135.91
131.56
125.08
116.18
104.74
91.01
75.59
59.35
43.24
28.09
14.42
2.22
-8.82
-19.20
-29.08
-38.07
-45.29
-49.66
-50.42
-47.53
-42.03
-35.72
-30.63
-28.28
-29.16
-32.72
-37.81
-43.60
-50.28
-59.35
-73.14
-93.77
-121.90
-156.04
-192.81
-227.84
-257.51
-280.10
-296.18
-308.00
-318.65
-331.02
-347.09
-367.35
-389.92
-410.75
-422.77
-417.50
-388.38
-334.96
-264.97
-192.66
-133.72
-99.23
-92.24
-106.67
-130.97
-153.37
-166.15
-167.03
-157.80
-141.37
-119.72
-95.28
-69.88
-45.37
-23.85
-7.54
1.88
4.35
1.99
-1.36
-6.04
-13.06
-23.46
-37.63
-55.65
-77.17
-100.12
-120.16
-131.63
-139.16
-147.79
-159.75
-172.92
-184.06
-191.82
-197.10
-202.26
-209.61
-235.55
-290.73
-373.77
-471.02
-565.60
-645.99
-707.99
-752.80
-783.16
-820.97
-881.49
-966.09
-1062.29
-1154.29
-1232.12
-1292.81
-1337.38
-1261.16
-1012.34
-613.71
-156.84
263.55
597.36
837.86
1000.27
1097.81
1159.14
1183.43
1168.00
1117.08
1045.52
970.17
901.79
844.56
799.07
766.12
730.42
681.84
618.15
546.82
478.13
418.58
369.60
328.64
291.92
244.95
188.31
130.98
87.93
69.92
77.34
102.64
135.08
166.56
184.23
188.67
182.81
169.95
151.39
125.89
92.42
51.93
12.48
-19.32
-36.80
-38.06
-26.70
-9.72
4.78
10.72
5.11
-12.41
-42.03
-83.56
-130.47
-175.61
-211.35
-231.35
-230.67
-207.06
-162.39
-104.05
-42.78
10.13
46.30
63.71
65.89
59.49
50.37
41.63
33.82
26.71
20.36
14.60
9.55
4.85
-0.32
-6.83
-15.66
-27.07
-40.22
-53.20
-64.35
-72.39
-76.83
-78.68
-77.97
-75.16
-70.62
-64.51
-56.51
-46.78
-35.92
-25.11
-15.74
-9.03
-5.94
-6.81
-11.34
-18.45
-27.09
-36.43
-46.04
-55.77
-65.61
-75.69
-86.11
-96.85
-107.37
-117.26
-126.13
-133.72
-139.74
-143.78
-145.24
-143.09
-139.32
-134.51
-129.04
-123.17
-117.13
-111.07
-105.12
-99.42
-94.10
-89.35
-84.83
-80.36
-75.75
-70.95
-65.87
-60.52
-55.02
-49.52
-44.30
-39.20
-34.24
-29.38
-24.67
-20.15
-15.87
-11.93
-8.45
-5.61
-3.29
-1.47
-0.05
1.06
1.93
2.66
3.26
3.77
4.11
4.47
4.95
5.72
6.97
8.80
11.31
14.43
18.14
22.38
27.28
33.09
40.12
48.65
58.73
70.18
82.50
95.04
107.17
118.47
128.82
138.43
147.73
157.12
166.88
177.12
187.76
198.70
209.86
221.24
232.90
245.19
258.67
274.24
292.58
313.55
335.65
355.73
369.60
373.14
363.91
342.13
310.55
273.51
235.36
199.48
167.83
141.40
120.70
105.82
96.07
89.59
83.63
75.43
63.49
48.17
31.37
15.36
1.47
-10.27
-20.83
-30.96
-40.49
-48.36
-53.39
-54.99
-53.64
-50.71
-47.74
-45.94
-45.73
-47.00
-49.23
-51.81
-54.45
-57.00
-59.75
-63.09
-67.33
-72.50
-78.12
-83.40
-87.26
-88.49
-85.77
-77.94
-64.21
-44.60
-20.30
6.31
32.06
53.95
69.70
78.32
79.95
75.72
67.41
57.02
46.64
38.04
32.37
29.74
29.28
29.51
28.92
26.55
22.29
16.75
10.75
4.98
-0.18
-4.71
-8.63
-11.91
-14.48
-16.31
-17.46
-18.09
-18.38
-18.42
-18.32
-18.19
-18.29
-18.98
-20.63
-23.24
-26.45
-29.58
-31.71
-32.27
-31.14
-28.83
-26.12
-23.77
-22.17
-21.17
-20.34
-19.22
-17.68
-15.99
-14.67
-14.17
-14.50
-15.38
-16.31
-16.83
-16.65
-15.66
-13.79
-10.94
-7.03
-2.05
3.76
9.96
16.11
21.92
27.24
32.05
36.23
39.32
40.87
40.50
38.26
34.74
30.84
27.56
25.49
24.76
24.83
24.85
24.14
22.42
19.78
16.51
12.65
7.92
1.99
-5.33
-13.71
-22.27
-29.99
-36.06
-40.37
-43.32
-45.70
-48.21
-51.32
-55.29
-60.19
-66.00
-72.34
-78.53
-83.65
-86.74
-87.00
-83.82
-76.82
-65.94
-51.72
-35.22
-18.06
-2.27
10.31
18.55
22.34
22.56
20.83
18.72
17.54
17.99
20.07
23.25
26.59
29.06
29.89
28.96
26.85
24.59
23.06
22.56
22.65
22.31
20.47
16.55
10.66
3.53
-3.97
-10.98
-16.92
-21.27
-23.66
-24.00
-22.56
-20.07
-17.52
-15.72
-14.82
-14.51
-14.05
-12.83
-10.70
-7.95
-5.13
-2.76
-1.01
0.42
2.01
4.13
6.81
9.62
11.96
13.35
13.62
12.93
11.72
10.23
8.45
6.19
3.28
-0.08
-3.23
-5.44
-6.32
-6.05
-5.39
-5.18
-5.98
-7.75
-9.84
-11.46
-12.10
-11.71
-10.71
-9.72
-9.30
-9.71
-10.87
-12.39
-13.75
-14.44
-14.11
-12.80
-10.84
-8.85
-7.36
-6.60
-6.41
-6.27
-5.67
-4.19
-1.76
1.42
5.05
8.93
12.92
16.89
20.60
23.71
25.82
26.42
25.17
22.02
17.30
11.71
6.26
1.90
-0.80
-1.83
-1.81
-1.57
-1.81
-2.91
-4.64
-6.48
-7.77
-7.99
-6.97
-4.89
-2.14
0.95
4.10
7.25
10.32
13.17
15.43
16.66
16.54
15.19
13.24
11.61
11.20
12.38
14.84
17.68
19.82
20.37
19.01
16.01
11.98
7.67
3.78
1.02
0.07
1.22
4.12
7.46
9.34
8.15
3.51
-3.45
-10.61
-16.22
-20.02
-23.32
-28.11
-35.22
-43.49
-50.15
-52.54
-49.60
-42.55
-33.93
-26.05
-19.69
-14.15
-8.12
-0.96
6.68
13.25
17.10
17.48
14.84
10.60
6.36
3.44
2.42
3.35
6.02
10.17
15.48
21.09
25.27
25.50
19.45
6.41
-11.60
-29.95
-42.94
-46.07
-38.08
-21.49
-1.48
16.17
26.80
27.92
19.56
3.86
-15.38
-33.65
-46.60
-51.05
-45.78
-31.83
-12.30
8.64
26.52
37.73
40.18
33.78
20.59
4.17
-11.20
-21.89
-25.77
-22.92
-15.15
-5.32
3.58
9.42
11.35
10.00
7.10
4.69
4.26
6.21
9.85
13.75
16.43
16.88
14.79
10.63
5.38
0.18
-4.00
-6.46
-7.07
-5.95
-3.59
-0.83
1.55
2.71
2.23
0.42
-1.74
-3.08
-2.84
-1.38
-0.04
-0.12
-2.31
-5.86
-9.03
-10.06
-8.15
-3.92
1.04
5.08
7.41
8.02
7.43
5.89
3.25
-0.81
-6.19
-12.03
-16.99
-19.82
-20.22
-18.87
-17.12
-16.25
-16.70
-17.98
-18.99
-18.82
-17.25
-14.97
-13.05
-12.70
-14.96
-20.47
-29.57
-42.00
-56.81
-72.27
-86.22
-96.59
-101.99
-102.03
-97.29
-89.06
-78.91
-68.42
-58.85
-50.98
-44.93
-40.28
-36.28
-32.19
-27.44
-21.40
-13.41
-2.65
11.33
28.02
45.77
62.16
75.11
83.83
89.32
93.65
98.65
104.78
110.95
115.29
116.34
113.92
109.04
103.01
96.52
89.23
80.19
68.61
54.63
39.44
25.00
13.26
5.63
2.49
3.12
6.06
9.51
11.93
12.54
11.46
9.50
7.42
5.57
3.60
0.82
-3.29
-8.62
-14.28
-19.09
-22.06
-22.89
-21.94
-20.03
-18.07
-16.76
-16.43
-17.05
-18.44
-20.31
-22.35
-24.20
-25.57
-26.17
-25.69
-23.83
-20.36
-15.43
-9.63
-3.96
0.53
3.23
4.20
4.25
4.34
5.14
6.63
8.21
9.05
8.63
6.88
4.15
0.85
-2.78
-6.68
-10.69
-14.49
-17.51
-19.17
-19.23
-17.81
-15.35
-12.46
-9.72
-7.60
-6.43
-6.31
-7.21
-8.90
-10.95
-12.94
-14.49
-15.54
-16.17
-16.57
-16.83
-16.83
-16.31
-15.03
-12.96
-10.38
-7.80
-5.85
-5.10
-5.87
-8.12
-11.41
-15.10
-18.56
-21.37
-23.29
-24.10
-23.51
-21.17
-16.85
-10.82
-3.92
2.56
7.39
9.72
9.38
7.04
3.72
0.71
-1.03
-1.08
0.35
2.50
4.42
5.31
4.90
3.44
1.75
0.77
1.36
3.86
8.03
13.05
17.65
20.59
21.02
18.88
14.76
9.83
5.34
2.30
1.27
2.28
4.95
8.46
11.88
14.26
15.02
14.13
12.10
9.82
8.06
7.24
7.28
7.80
8.50
9.39
10.69
12.57
15.10
17.98
20.87
23.30
24.90
25.31
24.19
21.39
17.00
11.55
5.85
0.90
-2.57
-4.25
-4.30
-3.19
-1.35
0.88
3.30
5.74
7.92
9.55
10.33
10.22
9.36
8.12
6.95
6.25
6.18
6.62
7.32
7.91
8.25
8.31
8.25
8.16
8.03
7.79
7.36
6.78
6.11
5.34
4.24
2.55
0.12
-2.97
-6.29
-9.34
-11.68
-13.17
-13.90
-14.04
-13.84
-13.48
-13.10
-12.82
-12.61
-12.21
-11.26
-9.47
-6.84
-3.83
-1.09
0.85
1.85
2.38
3.11
4.65
7.06
9.81
11.98
12.66
11.37
8.40
4.89
2.33
2.06
4.58
9.60
16.12
23.08
29.74
35.88
41.55
46.53
50.26
51.92
51.02
47.80
43.34
39.11
36.25
35.21
35.41
35.64
34.60
31.23
25.24
17.24
8.77
1.99
-0.89
1.51
9.30
21.05
34.37
46.72
56.19
62.14
65.14
66.57
67.95
70.55
75.01
81.30
88.31
94.09
96.60
94.98
90.11
84.46
80.90
81.35
85.72
91.72
95.59
93.89
84.77
68.56
47.48
25.02
5.05
-9.22
-17.24
-22.26
-30.59
-49.27
-82.93
-131.65
-191.07
-253.99
-308.56
-342.24
-346.36
-319.94
-269.39
-204.00
-131.63
-57.74
13.74
79.38
135.46
178.55
207.84
224.57
231.82
233.60
233.31
232.84
232.42
230.37
223.95
210.45
189.68
163.47
135.04
107.60
83.08
61.91
42.57
22.61
-0.21
-26.64
-55.53
-84.39
-110.51
-132.58
-150.95
-167.74
-185.68
-207.16
-233.25
-263.76
-297.77
-333.87
-370.30
-404.31
-432.23
-450.36
-457.11
-454.88
-449.85
-449.36
-457.63
-472.92
-487.15
-489.48
-471.38
-430.62
-372.19
-305.36
-239.56
-180.77
-130.70
-87.88
-49.91
-14.87
18.49
50.63
81.94
112.72
142.73
171.01
195.29
211.95
216.04
203.10
171.45
124.35
69.49
16.04
-29.53
-66.30
-97.97
-129.21
-160.74
-187.57
-201.00
-193.85
-165.29
-121.69
-73.61
-30.05
5.30
34.69
63.11
94.44
129.07
164.07
195.77
221.91
243.16
262.64
284.35
311.69
346.16
387.42
433.10
479.05
519.54
547.90
557.78
544.90
508.69
452.57
383.16
307.93
233.18
162.68
97.43
36.39
-22.51
-80.57
-136.99
-188.16
-228.74
-254.27
-263.46
-259.41
-247.78
-233.87
-219.82
-204.71
-187.18
-168.55
-153.61
-147.60
-152.35
-163.52
-172.79
-172.97
-162.29
-145.31
-128.87
-116.91
-107.86
-96.74
-79.25
-55.63
-30.83
-11.24
-1.53
-2.99
-15.28
-38.55
-73.96
-121.42
-176.67
-230.56
-271.32
-289.46
-281.67
-251.98
-209.00
-161.65
-115.74
-73.31
-34.31
1.45
32.82
58.16
76.79
90.06
101.91
117.41
140.95
174.02
213.94
253.64
283.54
294.17
278.98
236.73
171.96
94.31
16.04
-50.62
-96.14
-115.36
-108.06
-78.55
-34.29
15.84
63.83
103.79
133.05
152.10
163.60
171.55
180.47
194.61
216.96
248.18
285.12
320.30
343.41
344.53
319.28
272.36
217.29
171.51
148.87
152.99
175.60
201.33
215.39
210.91
190.88
164.38
140.29
122.28
108.21
93.32
74.81
53.68
33.72
17.67
4.44
-11.15
-35.98
-74.84
-127.57
-188.38
-247.90
-296.33
-326.77
-337.39
-331.25
-314.74
-294.87
-276.84
-262.89
-252.81
-245.42
-240.03
-237.05
-236.93
-238.83
-239.85
-235.65
-222.73
-200.47
-171.63
-140.97
-112.87
-89.18
-68.72
-48.68
-26.55
-1.51
25.58
53.38
81.25
109.27
137.36
164.11
186.47
201.02
205.71
201.16
190.34
176.92
163.49
150.79
138.19
124.80
110.49
96.02
82.59
71.14
62.23
56.20
53.27
53.20
54.80
55.86
53.93
47.68
37.63
25.81
14.27
3.23
-9.21
-25.86
-47.91
-73.28
-96.69
-111.65
-113.57
-101.54
-78.55
-49.64
-19.53
9.00
35.22
59.35
81.45
100.40
114.12
120.08
116.37
102.78
81.51
57.27
36.34
25.16
27.90
45.23
73.56
106.25
136.33
159.02
173.40
181.40
186.19
189.58
191.90
192.00
189.06
184.12
179.92
179.77
185.49
196.63
210.77
225.83
240.16
252.71
262.57
267.71
265.00
250.98
223.55
183.24
134.26
81.63
29.49
-20.05
-67.16
-113.26
-159.55
-206.05
-256.75
-309.73
-359.24
-397.95
-420.39
-425.45
-416.15
-397.70
-375.92
-355.17
-336.64
-318.60
-296.14
-263.39
-216.47
-156.30
-88.85
-24.57
25.85
58.37
69.58
59.87
32.40
-6.93
-50.46
-88.33
-111.02
-111.51
-87.07
-43.03
10.54
60.90
96.95
111.61
104.72
81.16
49.00
18.46
-5.57
-18.82
-20.76
-15.35
-10.84
-16.25
-39.16
-82.84
-143.05
-212.55
-278.86
-326.45
-341.08
-316.18
-254.82
-168.80
-76.33
15.96
103.43
183.47
254.49
316.22
362.38
389.15
393.79
364.82
300.44
208.63
108.02
19.20
-44.84
-82.74
-100.63
-107.46
-109.95
-108.44
-101.93
-90.02
-74.94
-61.22
-53.27
-52.22
-56.10
-61.31
-62.42
-56.94
-45.49
-31.35
-18.76
-10.76
-7.39
-6.63
-5.81
-2.03
5.24
14.40
22.20
24.74
18.85
3.40
-20.22
-47.85
-71.62
-84.09
-81.07
-63.27
-36.78
-10.20
9.26
18.18
17.79
12.25
5.49
-0.61
-6.11
-12.34
-19.97
-27.84
-33.72
-35.27
-31.43
-23.10
-12.12
-0.73
9.38
17.51
23.55
27.47
29.07
27.74
22.44
12.76
-0.87
-16.81
-32.23
-43.86
-49.11
-46.13
-34.58
-16.29
6.12
29.19
49.80
65.67
75.58
78.28
74.53
65.74
52.68
36.28
17.15
-3.80
-25.17
-44.89
-60.70
-69.96
-70.57
-62.04
-45.40
-23.19
1.30
24.70
44.16
57.90
65.22
66.50
62.59
55.21
46.38
37.62
29.33
20.20
8.34
-7.98
-27.31
-46.58
-61.99
-69.79
-67.83
-55.19
-31.51
2.26
42.88
85.01
121.44
144.88
150.29
135.52
102.23
54.62
-1.36
-59.11
-110.95
-148.69
-167.32
-166.04
-149.40
-124.22
-97.56
-73.88
-53.70
-34.70
-13.90
9.36
32.80
50.52
56.63
47.49
23.08
-11.48
-48.89
-81.66
-104.62
-115.10
-112.72
-97.75
-70.32
-31.78
15.04
64.28
108.51
140.00
153.24
146.65
122.69
87.65
49.86
17.97
-2.51
-10.58
-10.31
-9.90
-17.71
-40.38
-78.65
-126.50
-171.47
-199.75
-201.10
-171.50
-115.43
-42.44
35.73
109.54
173.00
222.94
256.32
268.08
253.12
207.59
132.93
36.87
-66.45
-159.38
-225.43
-253.39
-241.26
-195.53
-129.23
-56.91
10.24
67.62
117.77
166.92
220.66
272.92
313.08
330.02
319.76
288.52
247.87
208.53
174.88
145.49
115.42
81.72
45.11
9.83
-18.44
-36.34
-44.24
-48.06
-55.96
-76.06
-112.19
-161.87
-216.87
-262.19
-285.90
-283.01
-256.84
-216.57
-172.91
-133.43
-100.75
-73.74
-49.98
-28.92
-11.71
0.12
5.88
6.79
5.24
4.55
6.93
13.30
22.54
32.38
41.32
48.42
54.43
60.29
67.42
76.09
85.66
94.78
101.17
103.72
101.50
95.27
86.06
75.52
65.20
55.89
48.39
42.26
37.73
34.39
32.43
32.05
33.29
36.59
41.63
48.74
56.89
65.95
74.94
83.08
90.24
95.99
100.76
104.30
107.13
108.15
106.91
101.83
90.99
73.68
49.31
18.36
-19.62
-58.82
-95.62
-126.88
-151.91
-171.20
-184.46
-191.27
-190.32
-181.04
-163.44
-138.80
-109.01
-79.38
-55.49
-40.53
-35.21
-37.99
-46.85
-60.19
-77.33
-98.23
-127.34
-168.88
-223.58
-288.49
-358.71
-430.28
-501.15
-570.28
-608.48
-593.61
-518.04
-393.20
-242.55
-90.90
41.64
142.07
205.83
234.63
235.69
217.05
187.39
156.04
131.32
118.95
121.95
140.23
173.97
211.82
238.53
243.13
225.22
193.80
161.52
138.85
130.33
134.41
143.92
152.52
157.81
161.62
166.65
173.81
182.61
191.61
199.23
203.93
204.14
199.61
190.93
178.66
162.13
142.07
120.73
101.31
86.90
80.26
83.45
97.15
119.96
146.75
173.23
196.27
213.21
221.29
217.85
199.74
166.11
119.81
56.60
-26.29
-122.85
-225.13
-324.81
-414.59
-488.66
-542.82
-574.49
-586.82
-581.86
-561.18
-527.38
-485.11
-441.29
-403.55
-378.39
-346.60
-300.71
-243.23
-185.03
-136.59
-100.94
-73.91
-48.08
-17.72
17.69
49.40
68.79
72.12
63.49
52.91
50.41
61.04
82.68
108.13
125.52
132.13
131.36
130.69
137.10
153.09
176.71
203.24
227.64
244.04
249.31
241.92
222.35
192.34
153.74
109.51
63.80
21.80
-12.07
-32.65
-37.50
-27.77
-7.38
14.49
28.50
30.41
23.20
14.22
10.80
15.29
26.41
41.02
56.13
71.09
86.63
102.83
117.86
130.42
136.85
135.68
127.76
114.70
98.31
79.04
55.37
23.23
-18.07
-68.29
-124.55
-180.96
-230.01
-263.30
-274.39
-262.07
-231.64
-193.52
-160.01
-141.26
-136.35
-139.61
-142.50
-137.18
-119.12
-87.76
-45.30
-0.19
37.44
59.22
60.94
46.06
25.23
12.48
18.72
46.25
87.78
130.69
163.60
180.75
184.23
180.49
175.48
173.98
172.79
168.89
162.27
155.84
151.72
149.19
143.20
127.06
96.94
54.89
9.93
-26.03
-44.22
-43.64
-30.34
-14.06
-2.59
1.39
-0.52
-4.57
-8.71
-14.41
-26.38
-45.53
-67.82
-85.18
-89.46
-77.18
-50.69
-17.17
15.94
42.61
59.93
67.55
65.75
54.33
31.83
-4.84
-52.61
-104.40
-150.33
-180.04
-186.32
-169.07
-134.97
-95.56
-61.98
-40.75
-33.12
-35.80
-43.72
-52.54
-61.24
-70.30
-80.63
-91.58
-100.78
-106.35
-107.56
-105.71
-101.79
-98.12
-96.59
-98.27
-103.25
-110.39
-118.88
-128.13
-137.67
-146.00
-152.01
-154.39
-151.51
-141.86
-123.77
-97.04
-62.66
-22.28
22.68
69.37
114.21
153.87
185.81
209.36
225.04
235.06
234.03
221.15
196.11
158.93
110.85
55.12
-2.51
-54.67
-93.82
-110.92
-99.35
-58.22
7.55
89.71
179.09
267.36
348.17
416.01
470.30
511.75
541.04
559.02
567.19
567.62
561.11
547.33
502.02
413.81
289.90
155.24
38.78
-41.04
-80.78
-89.34
-76.88
-55.33
-28.55
1.65
33.02
60.40
76.44
74.55
44.02
-13.06
-83.60
-144.65
-182.19
-195.11
-193.35
-193.07
-204.26
-234.36
-281.09
-335.56
-384.77
-419.94
-438.35
-441.92
-433.04
-411.94
-381.81
-348.68
-323.80
-319.63
-346.29
-406.43
-492.86
-590.93
-664.13
-683.16
-636.61
-536.77
-406.80
-266.07
-124.50
13.20
141.32
251.39
331.43
374.14
380.32
359.66
325.81
290.56
260.39
237.14
219.88
204.96
189.49
172.49
155.76
141.90
132.92
128.62
128.25
130.28
132.32
133.80
132.09
126.93
118.93
108.80
96.11
80.44
61.25
38.40
12.16
-16.67
-45.39
-70.85
-90.18
-101.95
-105.79
-102.56
-94.44
-83.70
-73.50
-65.46
-60.55
-58.81
-60.36
-64.94
-71.73
-79.90
-87.26
-91.47
-92.15
-87.06
-73.17
-48.35
-11.60
37.45
96.79
162.91
229.36
288.95
334.94
363.28
374.37
372.49
364.93
357.41
352.85
349.25
341.67
325.53
297.96
260.18
215.50
168.71
122.48
78.23
35.42
-7.16
-49.15
-89.56
-126.20
-157.85
-183.42
-203.70
-218.84
-228.17
-230.09
-221.74
-201.70
-169.99
-129.55
-84.29
-38.97
2.58
37.61
63.05
76.16
73.04
50.80
9.30
-46.96
-108.16
-162.26
-198.14
-211.03
-203.25
-184.00
-163.86
-149.16
-138.77
-123.58
-92.19
-35.96
43.61
135.81
222.44
284.17
306.53
282.92
217.21
119.82
5.41
-112.14
-219.09
-303.90
-358.71
-381.11
-375.95
-352.53
-323.72
-302.19
-297.17
-307.90
-323.94
-330.12
-312.51
-263.91
-184.11
-81.12
29.24
125.41
189.77
212.66
193.91
142.93
76.75
18.34
-11.13
-0.48
46.18
118.21
202.71
288.34
366.68
418.73
429.41
399.64
364.32
334.94
314.68
298.22
286.91
282.05
284.73
296.29
317.05
342.23
359.64
358.84
332.53
279.89
204.63
116.31
28.20
-47.06
-102.76
-141.59
-167.08
-182.90
-190.36
-191.40
-187.78
-182.00
-177.20
-177.24
-187.37
-208.03
-236.89
-268.09
-296.57
-317.54
-327.31
-324.23
-308.36
-283.14
-251.39
-216.66
-180.69
-145.30
-111.33
-79.04
-49.38
-23.27
-3.18
10.21
16.88
18.84
19.04
20.16
24.43
31.88
42.10
53.00
63.23
71.94
79.08
85.42
91.21
96.88
101.58
104.97
106.10
103.91
97.23
84.13
63.53
35.10
1.43
-33.09
-61.96
-78.66
-78.66
-59.97
-24.36
24.70
81.30
139.05
190.51
227.55
242.68
230.36
189.87
124.84
44.74
-39.23
-116.68
-180.29
-227.55
-258.54
-274.91
-276.64
-263.68
-236.17
-196.45
-150.26
-104.69
-67.29
-42.63
-32.40
-34.38
-44.52
-58.10
-70.40
-78.16
-78.48
-70.60
-54.38
-31.09
-2.83
28.47
60.67
92.48
121.88
147.74
167.49
178.65
178.75
165.78
139.80
102.26
57.41
9.71
-35.60
-74.68
-105.39
-126.66
-139.12
-143.09
-139.74
-129.36
-112.86
-91.29
-65.68
-37.83
-9.35
16.67
37.72
51.02
55.54
52.52
45.25
38.99
37.96
45.39
60.15
78.64
95.23
104.30
102.36
88.08
63.41
30.97
-4.90
-40.39
-71.95
-96.22
-110.94
-114.40
-107.51
-92.53
-74.51
-58.57
-48.40
-44.87
-44.88
-44.03
-37.39
-23.97
-6.20
10.34
19.75
19.22
9.79
-2.95
-13.01
-14.89
-6.87
9.42
30.30
51.02
67.87
77.17
77.47
68.05
50.65
29.17
8.56
-5.80
-10.95
-5.88
6.53
22.25
36.89
47.24
52.15
51.82
48.07
42.50
37.30
34.53
36.50
45.74
63.26
87.84
114.26
134.94
140.69
124.46
84.03
22.76
-50.62
-125.78
-192.20
-242.55
-272.03
-278.53
-261.80
-222.24
-162.42
-86.95
-4.86
72.93
135.24
173.57
184.45
169.49
136.69
96.59
59.52
31.43
13.53
4.28
0.41
-1.67
-6.78
-16.46
-29.99
-43.68
-53.10
-54.33
-44.31
-24.26
-1.33
9.98
-1.22
-38.11
-93.22
-151.17
-193.94
-204.34
-172.73
-99.80
1.19
116.22
233.52
345.39
446.77
522.80
557.89
548.14
520.81
482.93
433.01
362.33
270.58
163.42
50.23
-55.84
-142.90
-204.77
-244.73
-267.65
-277.93
-279.19
-275.11
-269.77
-265.40
-261.81
-257.66
-252.29
-243.01
-227.23
-205.81
-184.28
-170.65
-170.30
-182.91
-203.57
-225.35
-240.44
-242.98
-230.78
-206.00
-172.19
-132.60
-88.45
-40.99
8.43
58.85
110.52
164.74
221.80
280.32
334.61
376.74
397.25
389.52
353.21
294.12
222.19
146.57
73.81
5.60
-57.78
-115.35
-163.39
-195.58
-205.67
-189.55
-147.83
-85.17
-10.55
64.29
126.85
165.37
172.30
145.88
91.54
19.80
-56.56
-126.77
-185.15
-230.87
-267.08
-296.57
-320.43
-335.72
-336.73
-317.16
-272.02
-200.22
-104.12
9.08
129.30
243.26
336.22
394.75
409.30
378.82
311.55
224.60
138.07
69.57
28.57
14.48
19.58
32.13
41.81
41.01
26.42
-1.60
-39.30
-79.29
-112.53
-129.05
-122.45
-90.95
-39.47
22.03
82.13
130.48
161.38
172.30
164.89
141.61
106.19
62.95
16.89
-25.66
-59.57
-80.49
-88.09
-84.75
-75.24
-64.56
-56.09
-51.70
-50.65
-52.41
-55.24
-57.98
-59.52
-58.70
-55.03
-47.84
-37.97
-25.77
-13.01
-1.12
8.60
15.14
18.63
19.13
18.17
16.30
14.57
13.22
12.01
10.87
9.21
7.25
4.09
-0.52
-7.25
-15.98
-25.28
-32.76
-34.88
-29.49
-15.42
4.86
26.32
42.42
47.21
38.01
15.75
-14.09
-44.89
-69.66
-83.65
-84.96
-73.91
-52.93
-25.01
5.27
33.36
53.91
62.30
55.89
34.74
2.54
-34.95
-70.24
-96.94
-110.56
-109.41
-94.77
-69.70
-38.47
-4.92
26.85
53.11
70.06
73.87
61.15
29.65
-19.87
-82.80
-149.55
-207.49
-243.80
-248.74
-218.18
-154.55
-67.06
30.49
122.16
193.38
232.86
234.09
196.68
128.12
42.98
-41.32
-108.32
-145.88
-148.22
-116.82
-59.42
12.29
87.38
157.37
214.07
249.01
255.50
231.48
179.98
109.17
30.02
-43.37
-96.51
-119.53
-108.36
-62.89
15.07
119.30
240.07
348.75
409.89
405.90
348.61
266.01
181.99
110.29
53.06
8.27
-28.61
-58.52
-80.57
-97.51
-115.06
-138.43
-168.72
-206.65
-247.97
-287.55
-317.61
-322.39
-300.84
-262.06
-223.78
-183.10
-145.86
-107.09
-63.08
-12.13
41.29
85.84
112.47
114.22
94.72
62.19
32.23
18.33
29.37
63.31
104.31
133.04
135.67
124.70
110.93
103.48
95.49
85.62
78.17
69.00
55.14
40.84
35.94
46.52
75.94
119.45
166.21
199.82
203.51
170.32
104.97
21.17
-67.09
-146.74
-208.57
-245.67
-255.23
-239.76
-204.22
-156.74
-107.11
-65.77
-37.31
-23.21
-17.79
-12.46
-3.63
5.69
9.39
1.39
-23.86
-68.47
-128.93
-195.62
-254.18
-290.24
-292.50
-256.84
-189.21
-103.21
-14.25
66.75
136.43
197.60
254.90
311.21
366.30
415.96
453.93
473.21
468.04
434.60
371.86
282.41
172.76
53.47
-64.08
-169.00
-253.85
-314.98
-352.66
-369.87
-370.80
-359.86
-339.40
-310.47
-272.57
-224.97
-168.67
-107.25
-46.64
7.25
50.15
82.11
106.91
130.49
158.52
192.63
229.51
260.13
273.68
260.38
216.15
144.64
56.41
-33.10
-108.86
-158.33
-175.52
-160.51
-119.22
-61.39
2.13
60.87
108.03
139.83
157.45
164.40
164.57
160.13
150.51
133.74
107.10
70.76
27.22
-17.73
-57.18
-85.73
-100.69
-103.49
-97.43
-87.83
-79.05
-74.87
-76.99
-84.85
-96.88
-109.60
-119.62
-122.43
-114.96
-95.95
-67.17
-31.96
5.92
40.93
67.83
80.99
77.10
55.71
19.70
-25.82
-72.98
-112.85
-140.25
-154.39
-159.06
-159.74
-161.66
-168.81
-183.91
-205.40
-226.69
-239.44
-235.58
-209.42
-159.01
-87.10
5.45
101.64
177.29
218.32
227.42
216.37
196.22
173.08
149.21
124.54
98.83
74.77
56.68
47.31
45.35
47.09
48.31
46.64
41.59
33.69
25.97
21.77
22.68
26.66
29.85
28.29
20.71
7.70
-8.29
-22.58
-30.62
-29.55
-19.76
-3.66
15.30
34.22
51.36
65.07
74.95
81.00
82.74
79.08
68.36
49.48
23.66
-4.44
-27.87
-38.80
-31.40
-5.42
33.88
76.13
107.68
116.24
94.58
42.50
-33.66
-122.50
-210.79
-280.55
-316.85
-315.24
-283.81
-237.12
-187.70
-144.87
-103.52
-57.47
-2.54
61.10
130.34
201.81
265.35
310.35
329.85
325.08
302.81
271.71
237.11
199.58
157.44
110.08
61.20
17.31
-14.44
-30.17
-32.08
-25.76
-19.27
-20.72
-36.08
-66.38
-107.72
-149.85
-182.25
-196.69
-189.84
-165.02
-130.44
-95.25
-65.54
-43.51
-28.81
-18.02
-8.36
3.10
17.97
35.63
52.06
60.75
54.64
29.02
-15.93
-75.22
-137.17
-186.42
-211.40
-209.93
-187.49
-152.17
-111.03
-68.84
-31.29
-0.37
20.02
27.09
21.66
9.23
-1.17
-1.29
13.62
42.31
78.47
112.23
134.72
142.23
136.82
125.90
117.80
119.17
131.29
150.30
168.00
174.59
162.33
126.71
68.59
-6.82
-89.96
-169.79
-235.79
-279.01
-293.57
-277.09
-232.59
-166.93
-89.65
-9.89
65.37
131.66
188.10
235.10
272.90
298.46
306.33
291.06
249.74
183.86
98.59
2.79
-96.45
-183.84
-243.31
-267.00
-258.18
-226.93
-183.68
-137.18
-94.29
-55.28
-19.35
14.74
48.69
84.81
124.79
169.25
212.45
248.72
272.11
277.03
259.10
214.99
144.55
51.78
-54.91
-163.73
-253.32
-304.22
-311.01
-284.03
-241.44
-197.91
-160.02
-127.66
-98.33
-70.43
-45.53
-27.96
-20.04
-22.18
-31.66
-43.04
-49.94
-46.32
-27.97
5.95
52.53
107.25
160.40
200.29
219.16
216.24
197.77
171.60
143.57
115.26
86.54
57.31
29.22
6.32
-8.21
-12.98
-11.05
-7.68
-9.51
-21.06
-43.16
-72.96
-104.54
-132.44
-153.04
-167.01
-177.31
-187.20
-198.45
-209.80
-217.86
-218.17
-208.32
-185.17
-150.73
-109.11
-63.94
-17.41
30.42
79.73
130.50
180.61
226.55
264.44
291.31
305.62
305.54
289.11
253.98
199.97
130.64
53.18
-22.82
-88.83
-139.52
-174.09
-193.95
-200.32
-192.42
-167.47
-124.49
-65.91
1.04
67.33
125.06
169.92
201.20
219.22
223.70
211.70
180.28
127.67
56.91
-23.81
-102.62
-166.31
-203.81
-207.76
-177.22
-116.89
-37.24
48.05
126.01
186.39
224.52
239.88
235.63
215.16
181.63
137.49
85.06
28.40
-28.23
-79.64
-122.10
-152.88
-171.62
-179.96
-180.41
-176.46
-170.43
-164.78
-160.06
-155.58
-148.48
-135.56
-115.34
-88.86
-60.48
-35.62
-20.14
-17.63
-28.31
-48.26
-70.66
-88.93
-97.86
-95.68
-83.64
-66.82
-52.78
-48.16
-54.46
-66.04
-73.04
-64.56
-33.59
20.62
92.45
169.37
232.41
265.70
267.61
248.01
218.37
183.67
143.17
95.52
42.07
-11.03
-55.18
-82.00
-90.22
-84.31
-72.33
-63.42
-64.33
-78.81
-105.41
-138.19
-168.08
-186.34
-187.48
-167.28
-126.30
-68.53
-1.24
68.57
135.88
197.97
252.83
296.79
324.72
329.66
307.14
257.38
187.67
111.34
43.04
-5.72
-31.43
-37.85
-35.23
-34.50
-43.08
-62.57
-88.36
-113.38
-130.02
-134.24
-124.60
-102.72
-71.53
-33.61
8.01
50.40
88.40
117.09
131.09
128.06
109.17
78.86
44.03
10.25
-18.14
-40.59
-57.37
-69.58
-77.46
-80.35
-78.04
-70.15
-58.28
-43.74
-28.75
-14.95
-3.40
5.38
12.11
17.23
22.21
26.65
29.63
28.90
22.04
8.17
-11.98
-34.73
-56.40
-72.69
-81.54
-82.67
-77.24
-67.32
-54.28
-39.98
-24.93
-10.42
3.02
15.43
27.32
39.87
52.96
65.76
74.77
76.55
68.32
49.65
23.06
-7.64
-37.83
-64.94
-87.02
-103.65
-114.57
-119.37
-118.00
-110.29
-97.03
-78.57
-56.21
-31.58
-7.80
10.10
16.27
5.31
-24.78
-71.81
-127.60
-180.06
-215.56
-222.72
-196.27
-137.97
-56.67
35.59
126.10
205.96
270.64
319.52
353.45
372.21
374.65
359.34
326.62
278.92
220.93
157.35
92.78
31.24
-23.76
-66.81
-89.67
-83.11
-40.85
36.37
136.78
240.19
322.70
362.77
348.33
280.55
171.74
39.97
-96.07
-223.33
-325.94
-385.27
-389.74
-342.92
-260.87
-164.07
-77.01
-5.80
47.63
83.97
105.62
115.54
115.95
108.41
92.44
66.23
27.63
-26.56
-96.08
-176.06
-257.04
-328.56
-380.24
-406.76
-408.10
-389.13
-359.36
-327.97
-302.37
-286.67
-284.39
-285.20
-279.31
-257.84
-217.31
-162.78
-102.93
-51.83
-7.24
36.54
86.32
145.69
215.48
291.79
362.15
411.50
428.99
415.15
378.95
334.13
290.85
253.59
221.48
190.90
160.29
130.98
106.90
89.92
79.60
72.75
65.69
56.01
43.03
27.59
11.11
-5.71
-25.01
-49.69
-81.32
-117.88
-151.43
-174.01
-180.36
-170.02
-146.78
-117.06
-86.78
-59.52
-36.58
-18.07
-4.46
3.84
7.25
7.35
6.45
6.91
10.69
18.35
29.02
40.66
51.02
58.75
63.26
64.99
64.85
63.86
62.56
60.67
57.55
52.55
45.65
37.13
27.99
19.54
13.07
9.78
9.92
13.39
19.70
28.27
38.20
48.28
57.65
65.64
72.03
76.44
78.84
79.32
78.29
76.10
72.21
66.69
59.74
51.82
42.82
32.20
18.56
7.20
0.64
-2.57
-4.47
-7.23
-11.63
-17.51
-23.58
-27.99
-35.56
-44.58
-54.98
-65.72
-75.67
-83.07
-86.59
-85.88
-81.82
-78.06
-71.76
-66.44
-65.84
-73.01
-89.22
-113.99
-146.11
-183.47
-224.66
-267.76
-313.27
-361.23
-411.69
-464.91
-519.75
-573.63
-620.51
-652.80
-662.27
-645.17
-602.76
-541.07
-470.01
-398.69
-334.03
-278.19
-230.70
-189.71
-154.35
-124.97
-101.32
-83.18
-68.61
-56.03
-43.84
-31.83
-21.18
-13.45
-10.32
-11.62
-16.47
-22.35
-27.05
-28.76
-26.43
-20.71
-12.37
-2.96
7.03
17.24
28.24
40.61
54.41
69.81
85.82
101.70
116.06
128.00
136.84
142.14
143.93
141.81
136.00
125.94
111.66
92.87
69.62
42.92
14.01
-14.52
-40.17
-59.75
-71.09
-72.52
-63.61
-45.27
-18.39
15.45
55.58
101.11
151.57
205.60
260.89
314.61
362.86
402.68
431.48
448.73
454.75
451.27
440.62
425.23
408.47
392.80
380.38
370.71
361.62
349.47
331.46
307.96
282.66
262.55
253.74
259.93
279.25
305.75
331.44
348.69
353.17
342.91
318.70
281.50
233.45
177.63
119.00
64.85
23.00
0.38
-0.96
16.51
44.73
73.78
95.11
103.69
99.70
86.30
68.94
51.78
38.01
28.68
23.58
21.99
22.08
21.90
17.90
6.76
-15.40
-50.68
-97.88
-151.76
-202.14
-237.09
-245.38
-222.20
-170.61
-101.99
-32.08
24.95
60.04
71.85
63.20
39.22
3.68
-40.65
-90.13
-138.82
-177.84
-198.96
-196.50
-171.28
-129.25
-78.84
-27.31
22.14
69.14
114.69
156.73
190.88
210.38
209.36
185.88
142.45
86.82
28.71
-21.19
-55.23
-69.51
-64.93
-46.52
-20.59
6.45
31.28
52.31
69.64
83.03
91.07
92.34
85.87
72.59
53.64
30.72
4.20
-26.36
-61.20
-99.95
-141.25
-184.28
-228.34
-274.18
-321.96
-370.92
-419.14
-462.93
-498.43
-521.32
-528.42
-516.99
-486.13
-436.66
-371.58
-296.63
-218.39
-144.25
-79.81
-29.02
6.78
28.61
39.10
42.70
43.86
47.22
55.37
68.93
86.13
103.96
119.67
131.65
140.61
148.45
158.17
171.88
189.56
208.53
222.72
224.76
207.90
170.01
115.09
54.07
1.23
-30.84
-35.05
-12.84
28.77
79.91
133.22
184.64
232.61
275.54
309.35
328.70
328.17
306.76
268.26
221.16
174.80
135.82
107.24
87.85
75.44
67.62
64.00
65.27
72.22
84.82
101.10
118.52
133.87
144.88
149.02
144.74
131.44
109.49
80.77
46.83
10.49
-24.46
-53.29
-71.94
-77.74
-70.08
-51.89
-28.71
-10.02
-3.89
-13.09
-35.35
-64.06
-90.65
-105.82
-103.05
-79.56
-40.47
5.91
53.42
96.24
131.28
158.34
181.37
206.27
238.77
278.42
322.12
370.15
421.30
475.59
532.80
593.61
658.86
728.45
797.67
818.89
760.33
614.07
405.18
175.17
-38.96
-216.89
-341.09
-426.87
-489.49
-532.63
-558.07
-566.90
-565.20
-562.86
-567.18
-580.72
-600.17
-616.05
-615.43
-598.91
-569.21
-531.88
-493.43
-455.40
-418.56
-383.08
-347.72
-309.42
-268.19
-224.74
-181.01
-138.37
-95.76
-52.72
-10.76
26.48
55.59
73.96
82.67
85.57
86.39
87.34
85.70
76.14
53.42
16.21
-31.66
-82.23
-126.66
-159.91
-180.76
-193.00
-201.68
-210.36
-219.90
-227.83
-230.73
-225.12
-210.20
-186.49
-156.47
-123.13
-89.39
-58.35
-31.70
-10.48
6.99
23.33
42.14
65.85
94.37
125.23
153.61
175.16
186.05
185.22
173.67
154.40
132.06
111.82
98.93
95.87
102.32
112.79
118.54
110.01
80.29
28.92
-38.22
-109.14
-171.06
-213.42
-231.69
-227.59
-207.03
-177.56
-145.04
-113.49
-84.16
-57.72
-34.56
-15.30
-0.85
8.64
13.41
15.35
16.87
21.40
32.43
52.67
83.17
121.57
162.99
199.85
226.08
238.54
239.29
234.50
231.34
234.74
243.29
250.93
248.62
229.99
194.72
149.05
103.61
68.05
47.65
40.18
38.60
33.83
18.57
-10.11
-51.00
-99.29
-149.04
-192.88
-224.07
-236.34
-225.85
-193.01
-142.46
-83.46
-26.12
19.88
49.06
59.89
54.77
38.74
17.38
-3.46
-20.43
-31.87
-39.21
-45.11
-51.81
-60.08
-67.79
-71.99
-69.40
-60.00
-46.22
-32.47
-22.92
-19.42
-21.91
-28.24
-37.20
-47.38
-58.24
-68.26
-74.61
-74.27
-65.24
-49.55
-32.14
-20.50
-20.24
-33.01
-55.82
-82.44
-107.16
-125.37
-135.24
-135.26
-124.59
-103.02
-72.28
-37.62
-6.12
15.31
25.01
26.88
29.44
41.11
65.26
99.14
133.98
159.78
167.68
154.06
119.93
70.57
14.56
-37.39
-73.26
-83.69
-63.87
-16.46
49.57
121.22
184.61
229.32
250.19
249.22
232.57
208.07
181.73
156.12
130.08
99.52
60.70
10.24
-47.58
-102.36
-142.50
-162.29
-164.59
-155.97
-142.20
-124.17
-100.35
-68.25
-29.24
10.94
44.66
64.72
69.62
61.37
46.07
30.60
21.12
19.64
23.07
24.95
17.41
-4.68
-42.37
-91.77
-146.26
-195.49
-231.35
-250.01
-251.59
-241.03
-225.76
-214.29
-212.61
-221.64
-236.26
-246.53
-241.78
-214.08
-163.16
-96.25
-25.53
37.32
85.84
120.49
147.22
169.60
189.32
204.81
212.27
208.18
191.95
166.97
138.48
111.61
88.73
69.87
53.79
40.65
30.53
24.48
23.30
25.98
30.44
34.34
37.63
43.22
55.76
80.11
118.71
166.10
212.21
245.53
257.47
246.47
217.76
179.84
140.86
104.80
73.04
39.90
-0.39
-51.45
-113.28
-181.89
-251.29
-309.90
-347.71
-360.37
-350.06
-322.24
-282.62
-235.79
-185.28
-135.81
-93.12
-63.24
-49.67
-50.84
-60.26
-68.48
-67.19
-50.89
-19.19
24.46
74.34
124.00
167.79
201.40
222.29
229.27
223.23
206.49
183.65
160.63
142.95
134.51
136.08
145.05
153.54
156.63
151.88
140.46
126.28
113.41
106.60
104.32
101.37
91.27
68.46
30.18
-22.34
-83.46
-146.07
-202.72
-242.51
-259.55
-254.24
-232.18
-200.18
-163.52
-125.05
-87.27
-52.20
-21.85
1.56
18.14
29.90
40.14
51.91
66.87
82.92
97.65
108.08
111.08
105.46
91.83
72.37
49.82
26.75
3.28
-20.34
-43.82
-67.08
-89.19
-108.98
-125.24
-137.17
-134.99
-117.47
-87.49
-50.51
-12.27
23.27
54.32
80.76
103.94
125.02
141.93
155.18
165.27
172.53
177.73
182.25
187.18
193.43
200.41
205.01
203.36
191.14
165.85
126.39
74.03
11.29
-57.61
-128.60
-198.69
-265.90
-329.18
-387.95
-442.51
-493.33
-541.18
-584.62
-619.81
-640.82
-642.57
-622.14
-580.49
-522.61
-455.33
-385.96
-319.08
-256.26
-197.22
-143.43
-97.00
-60.33
-34.63
-17.70
-6.24
3.72
15.54
31.11
49.06
68.02
87.73
109.83
139.53
174.38
206.41
226.61
245.97
269.67
301.14
333.90
365.70
400.27
441.57
491.10
547.74
608.49
667.42
719.66
761.03
758.16
693.66
573.00
420.95
267.03
132.17
24.08
-57.29
-116.62
-157.54
-185.00
-201.36
-208.97
-210.28
-206.69
-199.16
-186.54
-167.79
-145.57
-120.78
-95.97
-76.82
-69.41
-76.05
-94.14
-114.83
-126.87
-122.75
-96.80
-48.74
15.03
81.36
134.41
161.68
163.14
157.38
150.17
138.22
113.54
64.39
-11.99
-107.20
-206.76
-294.19
-352.65
-372.90
-354.70
-307.90
-248.00
-196.48
-156.17
-125.72
-103.30
-88.36
-81.14
-78.81
-74.99
-63.30
-41.54
-12.86
12.95
26.35
23.31
5.31
-20.31
-46.38
-69.64
-90.40
-108.75
-123.13
-127.93
-115.46
-81.83
-27.49
40.26
109.24
167.72
209.21
232.53
241.12
240.87
235.71
228.21
216.00
193.22
155.77
106.94
58.07
24.58
20.28
49.46
107.94
182.12
247.19
279.00
267.38
223.59
169.74
131.49
106.24
81.40
43.13
-17.78
-102.52
-200.91
-293.64
-359.34
-383.40
-366.43
-319.70
-260.11
-202.96
-156.90
-126.82
-107.80
-96.44
-90.59
-88.22
-83.55
-69.80
-43.38
-4.87
37.26
69.83
78.04
53.36
-1.53
-70.63
-130.55
-160.04
-147.67
-96.09
-19.77
59.22
119.91
149.60
147.86
124.91
96.22
76.64
75.70
95.90
131.70
172.14
204.21
216.82
203.20
162.56
99.88
26.01
-43.82
-93.80
-112.15
-94.54
-45.82
21.21
91.49
147.58
175.21
171.51
147.03
117.02
91.14
73.46
57.08
35.15
3.20
-40.06
-94.01
-156.71
-220.46
-272.34
-301.75
-306.04
-290.79
-264.61
-232.68
-194.87
-149.32
-97.49
-48.33
-13.05
-1.27
-15.89
-49.03
-86.01
-114.00
-126.26
-122.47
-105.65
-81.25
-51.16
-14.16
31.62
85.72
144.56
197.93
229.42
245.59
246.23
236.69
222.56
206.86
188.89
166.93
141.80
119.19
108.18
112.65
130.55
151.83
164.03
158.99
138.70
113.87
98.26
101.07
119.08
140.41
149.36
135.20
96.73
41.72
-19.55
-79.49
-134.32
-183.13
-222.24
-244.48
-240.49
-203.72
-135.99
-51.92
24.03
67.44
63.15
11.00
-76.64
-180.77
-283.47
-362.22
-398.24
-387.48
-342.66
-283.48
-223.94
-169.78
-121.85
-80.38
-46.09
-20.47
-5.73
-1.17
-2.38
-3.80
-2.10
2.96
9.97
18.25
28.63
42.71
62.68
90.13
123.98
159.52
189.93
209.26
210.62
196.39
171.89
143.05
115.18
91.99
75.21
65.31
61.77
62.37
63.16
57.52
39.81
8.96
-29.49
-64.90
-86.02
-85.90
-65.59
-32.70
1.52
27.90
42.95
48.56
48.89
47.13
44.06
38.67
30.49
20.29
10.32
3.32
1.29
3.93
8.35
9.75
3.09
-14.59
-42.73
-76.70
-109.03
-131.50
-139.87
-134.56
-120.13
-102.27
-85.14
-70.04
-56.03
-41.58
-26.65
-13.55
-4.91
-1.89
-2.19
-0.67
8.65
29.29
60.01
94.70
123.78
139.98
140.31
127.02
105.57
81.76
59.57
40.81
26.18
15.83
10.18
7.81
5.49
-1.17
-15.61
-37.81
-63.87
-87.23
-101.36
-101.14
-84.79
-53.71
-11.62
36.03
82.56
120.28
141.80
141.77
119.87
80.70
32.82
-14.46
-54.14
-82.97
-101.01
-108.28
-106.44
-95.96
-77.51
-53.19
-27.19
-4.45
11.97
22.92
34.12
52.15
81.13
119.62
161.42
197.98
221.49
226.87
212.85
181.53
137.39
87.00
37.09
-5.07
-32.56
-40.72
-29.13
-1.37
36.56
77.99
117.62
149.15
168.41
174.09
167.73
151.99
130.54
107.01
84.01
63.26
40.95
13.01
-23.19
-62.15
-99.63
-132.72
-160.88
-186.01
-211.13
-245.18
-294.64
-360.46
-437.41
-517.47
-591.93
-653.64
-698.16
-695.87
-634.16
-520.39
-378.68
-235.23
-107.30
-1.13
83.80
146.02
192.29
220.83
229.18
217.69
190.07
150.76
103.32
54.00
11.44
-13.04
-15.44
2.79
35.19
72.66
106.08
129.30
140.76
142.65
139.75
132.88
122.38
109.76
97.91
90.76
91.67
102.18
121.41
146.88
173.17
196.15
215.13
232.67
252.64
277.61
307.19
332.23
341.61
323.61
271.73
188.11
82.96
-29.12
-133.96
-221.64
-281.58
-306.26
-296.16
-259.17
-206.17
-146.81
-88.10
-34.51
11.28
48.26
76.47
96.59
110.71
121.78
132.55
143.91
155.32
165.79
174.20
179.53
181.16
179.64
176.55
173.83
171.98
170.81
169.68
167.77
164.13
157.78
147.92
133.69
118.89
105.21
93.50
83.93
76.37
70.38
65.27
60.54
55.95
51.49
46.64
41.12
34.84
27.98
21.01
14.48
8.97
5.11
3.43
3.66
5.36
7.91
10.61
12.92
14.52
15.33
15.57
15.79
16.34
17.71
20.28
24.23
29.47
35.60
41.98
47.88
52.54
55.23
55.53
53.38
49.15
43.56
37.57
32.26
28.62
27.46
29.15
33.67
40.56
48.99
57.93
66.29
72.97
77.06
77.92
75.17
68.82
59.18
46.89
32.75
17.70
2.72
-11.31
-23.58
-33.53
-40.79
-45.18
-46.68
-45.46
-41.92
-36.61
-30.23
-23.47
-17.00
-11.41
-7.21
-4.82
-4.60
-6.84
-11.73
-19.37
-29.59
-41.95
-55.63
-69.47
-82.14
-92.28
-98.86
-101.39
-100.09
-95.75
-89.59
-82.90
-76.74
-71.88
-68.74
-67.60
-68.80
-72.78
-79.98
-90.51
-103.87
-118.92
-134.12
-147.93
-159.42
-168.56
-176.23
-183.85
-192.69
-203.38
-215.59
-228.32
-240.49
-251.38
-260.99
-269.76
-278.39
-287.59
-298.60
-313.08
-332.85
-358.48
-387.24
-412.12
-423.06
-410.96
-372.27
-311.51
-239.75
-169.37
-108.59
-59.02
-17.64
18.88
50.84
75.76
91.33
98.44
101.52
105.45
111.70
116.44
112.67
94.50
60.94
16.52
-31.67
-78.11
-121.77
-165.63
-214.18
-269.53
-328.79
-384.25
-425.40
-442.90
-431.89
-393.98
-336.51
-269.25
-201.11
-137.16
-78.35
-23.14
30.25
82.80
134.84
187.01
240.52
295.83
350.85
399.93
435.10
448.71
436.82
400.80
346.62
281.66
212.57
144.65
80.88
23.20
-26.31
-65.86
-94.98
-115.27
-130.16
-142.87
-153.90
-162.14
-165.74
-163.03
-154.01
-140.69
-126.56
-116.39
-112.98
-114.03
-115.11
-110.72
-94.81
-63.17
-15.46
43.62
102.05
147.45
175.74
185.14
176.62
156.49
133.31
114.17
101.94
88.22
64.68
36.42
6.05
-27.66
-63.85
-101.89
-142.70
-188.54
-251.94
-338.84
-431.07
-515.69
-588.97
-645.99
-682.20
-694.80
-683.94
-666.79
-657.05
-641.20
-614.21
-581.93
-545.85
-505.01
-458.58
-321.73
-66.82
160.61
306.77
396.34
437.51
443.18
431.18
420.99
428.32
446.57
464.91
492.25
524.76
547.53
552.85
539.80
511.41
471.54
412.70
331.45
246.12
168.60
100.96
45.75
4.56
-22.29
-35.52
-43.07
-50.20
-48.95
-36.31
-15.86
9.71
38.33
68.26
97.28
119.83
132.39
139.83
147.05
157.11
172.45
192.44
212.37
225.01
223.01
204.31
175.70
148.09
132.49
136.94
163.68
208.42
261.76
311.92
347.64
360.84
348.20
311.54
256.96
192.49
125.59
60.92
0.01
-57.35
-110.85
-158.09
-195.29
-219.15
-228.99
-227.09
-217.22
-202.38
-183.35
-159.19
-129.06
-94.05
-57.13
-21.63
10.93
41.85
74.27
110.38
149.90
188.34
218.43
233.03
227.90
203.87
166.83
126.21
91.70
70.82
66.09
74.90
91.40
109.19
123.59
132.45
135.74
133.59
127.09
116.27
101.10
82.31
61.42
40.79
23.34
12.50
10.27
22.55
52.68
102.12
168.92
247.01
326.70
396.98
448.57
472.68
473.66
456.37
427.88
394.90
362.25
332.53
306.89
285.73
262.37
241.85
222.45
202.02
178.66
151.57
121.54
90.90
62.60
30.93
4.85
-16.31
-34.70
-53.53
-76.58
-107.33
-148.27
-151.82
-179.04
-220.21
-272.62
-331.91
-392.81
-449.88
-497.87
-531.89
-548.08
-555.18
-546.08
-520.87
-479.04
-421.35
-350.83
-272.34
-191.15
-112.14
-52.17
-11.59
9.60
16.80
15.56
8.05
-7.16
-33.20
-73.12
-143.49
-246.05
-375.09
-515.35
-650.48
-769.35
-867.06
-943.36
-1000.40
-1057.13
-1121.63
-1190.98
-1251.79
-1291.06
-1303.94
-1293.57
-1267.02
-1139.07
-878.95
-521.27
-149.48
162.23
383.57
522.50
605.17
659.39
704.73
734.87
739.45
715.76
672.28
622.63
577.91
543.56
519.73
503.49
481.21
443.09
393.77
346.52
314.50
304.15
314.79
341.29
377.16
410.57
432.86
442.53
442.99
438.40
429.78
415.39
392.61
351.35
289.26
210.19
123.44
39.57
-32.28
-87.69
-127.22
-152.58
-165.92
-169.20
-165.21
-155.79
-142.69
-127.22
-110.86
-95.90
-84.71
-79.66
-80.93
-89.00
-103.45
-123.67
-148.33
-175.56
-203.47
-229.77
-252.83
-270.52
-282.23
-287.79
-288.00
-284.05
-276.76
-267.43
-257.04
-246.98
-237.77
-230.26
-224.52
-219.96
-215.66
-208.70
-196.63
-177.32
-150.24
-115.36
-73.42
-25.23
28.31
85.75
148.56
216.87
289.20
361.43
428.36
485.10
528.40
556.87
570.59
576.41
581.07
589.43
602.75
619.61
637.50
654.01
666.97
674.12
680.60
691.13
708.72
733.15
762.54
795.58
832.54
875.08
881.71
825.41
698.58
518.82
317.62
122.82
-49.85
-194.72
-310.75
-398.84
-454.91
-478.84
-476.16
-457.55
-434.55
-414.93
-401.06
-391.85
-385.87
-377.75
-364.26
-344.73
-320.83
-295.22
-269.95
-246.11
-224.24
-205.55
-188.42
-171.60
-154.41
-137.02
-119.94
-103.50
-87.78
-72.93
-59.23
-45.42
-30.24
-13.71
2.12
13.19
15.09
5.52
-14.28
-39.40
-62.84
-78.15
-83.43
-80.13
-72.21
-64.18
-58.80
-57.28
-59.40
-64.84
-73.40
-85.26
-99.98
-115.98
-130.60
-140.70
-143.63
-138.62
-127.54
-114.09
-102.55
-95.29
-91.95
-89.69
-84.58
-73.90
-57.70
-38.92
-21.73
-9.76
-4.87
-6.45
-12.30
-19.24
-24.00
-24.01
-17.33
-3.44
16.70
39.49
59.30
69.34
63.78
40.68
2.25
-45.19
-93.22
-134.35
-161.57
-169.81
-158.00
-129.97
-91.74
-50.65
-13.80
13.94
30.73
38.46
42.86
46.24
47.19
47.16
44.14
34.05
17.88
1.58
-5.99
4.11
34.96
79.40
127.04
169.05
201.17
225.45
247.40
260.42
258.94
256.31
251.71
233.77
199.28
151.48
98.34
48.25
6.98
-22.86
-42.83
-59.27
-75.37
-88.57
-92.94
-81.22
-48.90
2.97
67.56
132.20
179.74
197.40
181.66
137.35
75.63
8.88
-53.94
-108.67
-156.19
-201.44
-248.22
-296.67
-345.07
-390.72
-430.99
-463.49
-485.08
-492.56
-484.57
-461.29
-424.46
-377.84
-325.78
-272.43
-221.26
-174.68
-134.48
-101.74
-76.28
-55.84
-37.05
-16.08
10.04
42.57
80.98
122.80
163.79
199.12
224.92
239.60
245.64
249.21
258.22
279.39
314.42
358.42
400.61
427.56
428.48
400.39
350.52
294.22
248.87
226.14
227.09
242.13
255.98
255.58
235.89
201.45
162.07
127.41
102.28
86.24
76.22
69.42
65.17
63.92
64.71
63.16
52.13
24.42
-22.91
-85.51
-152.27
-208.31
-240.98
-244.77
-223.46
-188.34
-153.17
-128.76
-119.07
-121.17
-127.56
-130.31
-124.10
-107.09
-80.57
-47.29
-11.03
23.97
52.52
68.98
68.26
47.08
5.48
-53.32
-123.06
-195.69
-261.88
-312.20
-338.81
-337.80
-311.44
-267.92
-218.95
-174.69
-139.93
-112.36
-84.79
-49.81
-3.99
50.04
105.26
153.33
188.36
208.24
214.16
208.95
195.33
175.26
149.67
119.36
84.86
46.62
5.11
-39.01
-83.91
-126.24
-160.97
-182.74
-187.28
-172.99
-141.45
-96.24
-41.52
19.21
82.47
144.06
198.09
238.06
259.31
261.13
247.77
226.53
204.32
184.50
165.83
144.05
114.98
77.49
33.91
-11.15
-53.60
-91.02
-122.45
-146.70
-161.14
-162.39
-147.79
-117.80
-76.23
-28.83
19.54
66.92
113.51
159.20
200.45
230.04
239.47
223.68
184.79
132.16
79.36
38.27
14.90
7.84
10.25
13.62
10.98
-1.11
-22.36
-49.03
-75.25
-94.25
-100.83
-93.61
-75.99
-54.95
-37.75
-28.53
-26.09
-24.87
-18.30
-2.57
20.85
46.15
65.46
72.67
65.19
44.79
16.44
-13.47
-38.72
-55.54
-63.09
-64.14
-63.61
-66.62
-75.97
-90.34
-104.68
-112.00
-106.91
-87.86
-58.52
-26.25
0.28
13.61
9.62
-12.09
-47.66
-90.01
-129.75
-157.61
-167.17
-157.30
-133.07
-103.32
-77.57
-62.04
-58.73
-65.98
-80.60
-99.36
-118.39
-132.40
-134.04
-116.33
-76.31
-18.42
45.42
99.95
132.33
137.77
120.11
89.16
55.56
26.59
4.96
-10.34
-21.93
-33.08
-46.51
-64.87
-90.02
-122.20
-159.20
-195.97
-225.70
-241.54
-238.73
-216.04
-177.41
-131.87
-91.22
-66.52
-63.13
-77.80
-99.98
-116.24
-116.18
-97.18
-65.09
-30.23
-2.90
11.70
14.58
10.22
4.13
0.97
4.33
17.12
42.16
80.17
129.10
182.90
230.81
261.21
266.28
245.65
207.25
164.74
131.52
109.65
96.59
83.00
59.05
20.71
-28.64
-81.47
-127.92
-166.82
-199.21
-225.48
-246.01
-259.69
-264.70
-259.99
-246.61
-227.52
-206.80
-187.40
-169.76
-153.20
-135.68
-115.01
-89.92
-60.61
-28.53
4.24
36.53
68.65
101.40
135.60
171.48
208.20
244.05
276.97
305.76
331.01
354.90
379.66
405.93
432.32
455.86
473.22
481.60
479.48
467.01
446.18
420.77
395.02
372.96
357.08
347.02
338.88
326.21
302.44
263.81
211.43
150.14
87.50
32.25
-8.00
-28.50
-28.78
-12.80
12.22
37.74
54.49
54.91
35.02
-5.55
-63.67
-133.62
-208.08
-280.06
-335.88
-362.53
-355.14
-319.00
-266.30
-209.00
-155.24
-108.85
-70.37
-38.19
-10.42
13.54
33.73
48.10
54.61
51.81
39.54
19.11
-7.26
-37.55
-70.18
-103.87
-140.55
-182.40
-230.90
-285.62
-344.64
-405.67
-467.71
-530.23
-573.68
-580.97
-542.15
-460.11
-348.61
-226.03
-109.60
-12.42
58.99
105.28
129.54
137.02
132.71
120.58
103.76
85.21
67.85
54.48
47.04
43.55
40.88
35.84
26.83
14.56
1.56
-9.47
-15.68
-15.63
-10.97
-4.53
0.85
3.55
3.76
3.28
4.19
8.11
15.36
24.32
32.50
37.61
38.62
36.18
32.83
31.39
34.13
41.82
53.69
67.99
83.02
98.30
112.28
126.18
142.29
163.21
190.60
224.40
261.94
297.76
324.75
336.25
328.92
303.37
264.28
218.78
174.13
135.28
102.95
73.98
43.21
6.40
-38.43
-90.28
-145.71
-199.01
-241.62
-265.85
-268.56
-252.38
-222.98
-186.13
-146.01
-105.51
-67.04
-32.85
-5.38
14.10
26.11
33.49
39.97
48.91
62.17
79.58
99.57
119.34
136.21
149.01
157.49
162.15
163.67
162.64
158.74
151.80
141.40
127.65
111.91
96.50
84.28
77.41
77.06
82.24
91.24
100.42
106.18
106.25
99.74
87.00
67.94
46.84
25.84
6.77
-11.56
-30.63
-50.72
-70.87
-89.46
-105.62
-119.51
-132.54
-145.83
-163.86
-189.69
-223.13
-260.72
-297.69
-330.30
-357.20
-379.21
-398.40
-422.51
-458.12
-507.66
-568.52
-635.15
-701.48
-762.81
-815.44
-822.58
-761.05
-629.88
-453.30
-265.73
-94.57
46.94
156.19
237.11
295.39
331.34
345.33
339.23
319.51
291.92
260.43
226.31
190.31
152.00
107.46
55.59
-0.13
-51.10
-88.07
-105.45
-103.51
-82.64
-48.69
-12.17
18.17
38.21
49.58
56.77
64.04
73.70
90.16
115.77
148.91
185.68
221.72
254.34
282.79
307.67
330.72
359.40
399.86
453.88
518.42
587.71
655.88
717.94
769.40
773.72
709.83
581.07
414.63
243.52
90.51
-35.36
-134.13
-210.59
-270.58
-313.90
-340.08
-351.36
-351.84
-344.98
-332.51
-314.63
-291.44
-263.38
-227.03
-179.75
-121.97
-59.37
0.84
53.16
95.18
127.07
150.41
168.91
183.81
192.48
190.02
172.66
141.46
102.80
65.82
38.51
25.62
26.72
36.27
48.48
58.96
66.23
70.84
73.51
74.23
72.75
69.00
63.57
58.11
53.72
51.41
51.18
51.79
51.10
46.84
37.25
20.98
3.45
-11.69
-21.35
-23.65
-18.04
-5.31
12.96
34.95
58.88
83.49
106.86
127.42
143.79
154.84
159.84
158.67
151.81
140.37
125.95
109.55
92.19
74.73
57.70
41.42
26.00
11.42
-2.36
-15.22
-27.40
-38.85
-49.35
-58.69
-66.76
-73.78
-80.25
-86.91
-94.44
-103.51
-114.36
-126.80
-140.53
-155.19
-170.61
-186.69
-203.38
-220.55
-238.20
-256.67
-276.62
-298.71
-322.62
-346.49
-366.77
-379.23
-380.39
-369.03
-346.70
-317.00
-284.00
-250.82
-219.19
-189.75
-162.84
-139.10
-119.32
-103.84
-91.97
-82.03
-72.15
-61.18
-49.37
-38.14
-29.28
-23.59
-20.11
-16.34
-9.56
1.45
15.39
28.65
36.96
37.48
30.40
18.90
7.60
0.36
-1.16
2.25
8.31
14.70
20.03
24.13
27.39
29.81
30.66
28.63
22.59
12.45
-0.19
-12.28
-20.64
-23.12
-19.75
-12.95
-6.81
-4.94
-8.65
-16.31
-24.32
-29.37
-29.94
-27.05
-23.24
-21.11
-21.99
-25.61
-31.16
-38.40
-48.10
-60.63
-74.32
-85.10
-88.30
-81.16
-64.73
-44.24
-26.85
-18.87
-22.27
-33.82
-46.78
-55.19
-55.88
-48.52
-34.65
-15.90
5.04
26.36
47.57
68.81
88.13
103.50
114.53
122.62
130.98
139.56
147.51
154.75
161.86
166.85
167.82
165.23
161.81
161.95
163.58
161.99
152.51
130.99
91.63
30.86
-48.16
-135.56
-217.20
-286.94
-342.99
-385.43
-382.67
-314.21
-188.23
-36.86
87.77
185.01
261.80
322.49
371.39
406.78
423.49
414.31
377.65
318.93
250.37
181.86
122.24
77.26
36.19
-8.01
-62.76
-131.65
-201.98
-262.41
-310.21
-347.89
-380.37
-413.07
-427.26
-415.94
-382.55
-336.38
-284.37
-229.42
-170.40
-106.17
-39.35
24.40
74.11
102.64
110.55
104.58
92.06
78.23
65.29
52.97
41.29
28.26
14.28
0.83
-8.39
-11.84
-10.36
-6.26
-1.84
2.11
4.02
3.55
1.43
-1.36
-4.65
-9.17
-15.70
-24.79
-35.86
-48.52
-61.69
-73.87
-83.50
-89.46
-93.26
-95.69
-97.49
-98.69
-99.39
-99.32
-98.18
-95.67
-91.95
-87.56
-82.78
-78.00
-73.31
-68.79
-64.36
-60.00
-55.74
-51.70
-48.14
-44.90
-41.95
-39.12
-36.28
-33.42
-30.53
-27.83
-25.44
-23.52
-21.83
-20.05
-17.80
-14.68
-10.55
-5.40
0.37
6.39
12.37
18.37
24.73
31.88
40.15
49.42
59.16
68.37
76.08
81.75
85.52
88.35
91.52
96.42
103.67
113.30
124.61
136.66
148.90
161.20
174.21
188.63
205.58
225.81
250.05
278.24
308.87
338.80
362.98
376.37
375.12
358.80
330.45
295.61
260.17
227.93
200.29
176.21
154.54
134.76
117.56
104.04
94.40
87.88
82.34
76.11
68.02
58.28
47.95
38.08
29.50
22.07
15.69
9.65
3.89
-1.75
-7.13
-12.00
-16.25
-19.50
-21.96
-23.61
-25.04
-26.77
-29.19
-32.37
-35.53
-37.96
-38.55
-37.29
-34.59
-31.60
-29.49
-28.65
-29.09
-29.85
-30.55
-30.78
-30.91
-31.32
-31.95
-32.54
-32.21
-30.82
-28.23
-25.28
-22.63
-20.65
-19.25
-17.73
-15.80
-13.12
-10.36
-8.10
-7.03
-7.43
-8.92
-11.07
-13.05
-14.72
-15.86
-16.83
-17.85
-18.90
-19.88
-20.16
-19.63
-17.98
-15.67
-13.06
-10.58
-8.53
-6.72
-5.31
-4.02
-3.29
-3.24
-4.14
-5.93
-8.18
-10.47
-12.06
-12.99
-13.23
-13.48
-14.27
-15.85
-18.14
-20.33
-21.95
-22.31
-21.69
-20.48
-19.36
-18.94
-19.21
-20.18
-21.13
-21.82
-21.83
-21.12
-19.82
-17.94
-15.71
-12.93
-9.95
-6.89
-4.33
-2.64
-1.90
-1.80
-1.49
-0.48
1.86
5.06
8.54
11.49
13.30
14.04
13.74
12.84
11.09
8.47
4.71
-0.01
-5.04
-9.74
-13.25
-15.69
-17.22
-18.70
-20.62
-22.99
-25.28
-26.37
-25.77
-23.04
-18.84
-13.77
-8.40
-2.80
3.56
10.98
19.75
28.99
37.58
43.91
46.77
45.74
41.06
33.89
25.23
16.42
8.15
1.05
-4.48
-8.27
-10.04
-10.19
-8.93
-7.33
-6.10
-5.90
-6.88
-8.51
-10.35
-11.71
-12.76
-13.55
-14.58
-16.07
-17.99
-20.24
-22.30
-24.27
-25.96
-27.76
-29.85
-32.33
-35.03
-37.26
-38.51
-37.95
-35.72
-32.15
-28.13
-24.44
-21.16
-17.89
-13.47
-7.33
0.82
10.19
19.66
28.23
35.13
40.32
43.57
44.98
44.05
40.53
34.20
25.12
13.81
0.76
-12.89
-26.25
-38.11
-47.93
-55.77
-62.44
-69.32
-77.37
-87.22
-98.46
-110.60
-123.00
-135.38
-147.77
-160.14
-172.67
-185.75
-200.74
-219.23
-242.29
-268.74
-294.29
-312.25
-315.40
-299.06
-262.78
-210.82
-150.31
-88.68
-31.55
18.37
60.47
95.46
124.05
146.88
164.56
177.98
188.49
197.40
205.84
214.23
222.55
230.41
237.75
245.20
254.02
265.43
279.35
293.88
305.14
308.78
301.66
283.33
256.49
225.86
196.45
171.72
152.95
139.29
128.88
119.83
110.75
100.91
89.89
77.45
63.58
48.75
33.85
20.08
8.59
0.01
-5.69
-9.37
-12.34
-16.02
-21.48
-29.17
-38.85
-49.68
-60.52
-70.22
-78.08
-84.06
-88.66
-92.76
-97.04
-101.74
-106.50
-110.84
-114.19
-116.09
-116.16
-114.05
-109.66
-103.39
-96.41
-90.47
-87.38
-88.17
-92.80
-100.35
-109.75
-120.51
-132.86
-147.18
-163.20
-179.35
-193.05
-201.43
-202.58
-196.26
-184.11
-169.05
-154.27
-142.30
-134.02
-128.41
-122.76
-113.53
-97.30
-71.93
-37.35
4.20
48.26
89.23
121.62
141.79
149.31
147.37
141.76
138.74
142.91
155.56
174.87
196.98
217.75
233.59
241.41
238.46
222.47
192.91
151.93
104.81
58.41
18.78
-11.05
-31.90
-47.31
-61.30
-76.21
-91.86
-106.11
-116.47
-121.38
-120.66
-115.10
-105.45
-91.92
-74.12
-51.82
-25.60
2.63
29.81
52.76
69.26
78.92
83.07
84.09
84.33
85.31
87.49
90.46
93.51
95.83
96.79
95.91
92.88
87.52
79.87
70.15
58.73
46.22
33.41
21.31
10.90
2.92
-2.43
-5.53
-7.08
-7.91
-8.61
-9.66
-11.38
-14.08
-18.02
-23.28
-29.61
-36.44
-43.11
-49.04
-54.00
-58.03
-61.19
-63.40
-64.34
-63.56
-60.84
-56.35
-50.69
-44.79
-39.65
-36.00
-33.99
-33.12
-32.29
-30.18
-25.65
-18.30
-8.58
2.29
12.84
21.93
29.17
34.91
39.86
44.67
49.55
54.38
58.82
62.76
66.24
69.43
72.42
75.07
77.09
78.02
77.42
74.84
70.01
63.00
54.29
44.92
36.06
28.64
22.88
18.30
14.11
9.65
4.96
0.60
-2.57
-4.04
-3.97
-3.11
-2.43
-2.60
-3.88
-6.01
-8.61
-11.42
-14.54
-18.38
-23.44
-30.11
-38.28
-47.45
-56.66
-64.91
-71.48
-76.15
-79.30
-81.69
-84.13
-86.76
-88.61
-87.33
-79.53
-61.87
-31.97
10.36
62.64
119.65
174.15
218.38
245.98
253.89
243.12
218.39
186.03
151.65
118.26
86.12
54.21
22.10
-8.78
-35.85
-56.87
-71.76
-82.74
-93.05
-104.98
-118.34
-130.69
-138.47
-139.13
-132.18
-119.55
-104.58
-90.69
-80.23
-73.85
-70.88
-69.78
-69.16
-68.26
-67.19
-66.57
-66.88
-68.15
-69.83
-71.28
-72.03
-71.96
-71.05
-68.93
-64.87
-58.00
-47.89
-34.73
-19.20
-1.97
16.72
36.97
58.94
81.96
104.59
124.76
140.66
151.42
157.19
158.84
157.19
152.79
145.59
135.48
122.46
106.86
89.21
70.02
49.91
29.75
10.99
-4.64
-15.60
-21.29
-22.56
-21.57
-21.06
-23.24
-29.12
-38.19
-48.96
-59.76
-69.36
-77.38
-83.90
-89.18
-93.14
-95.46
-95.79
-94.11
-90.88
-86.91
-83.06
-79.53
-75.89
-71.03
-63.73
-53.54
-41.08
-28.02
-16.41
-7.83
-2.66
-0.18
0.87
1.55
2.20
2.65
2.57
2.00
1.27
0.72
0.31
-0.51
-2.23
-4.84
-7.58
-9.38
-9.48
-8.07
-6.12
-4.77
-4.56
-5.04
-5.20
-4.00
-1.16
2.76
6.74
9.89
11.85
12.84
13.29
13.39
12.98
11.66
9.07
5.25
0.65
-3.93
-7.72
-10.16
-11.10
-10.73
-9.59
-8.29
-7.39
-7.21
-7.61
-8.13
-7.91
-6.12
-2.24
3.60
10.56
17.40
22.77
25.82
26.31
24.79
22.22
19.67
17.95
17.43
18.04
19.29
20.59
21.37
21.24
20.18
18.43
16.47
14.78
13.63
12.88
12.15
10.94
8.90
6.05
2.56
-1.24
-5.17
-9.21
-13.37
-17.52
-21.36
-24.51
-26.62
-27.70
-27.93
-27.58
-26.82
-25.57
-23.70
-21.12
-17.94
-14.42
-10.92
-7.64
-4.66
-2.02
0.23
1.94
2.94
3.25
3.09
2.89
3.11
3.98
5.36
6.93
8.29
9.22
9.77
10.07
10.18
9.90
8.93
6.98
4.19
1.06
-1.69
-3.44
-3.97
-3.51
-2.55
-1.59
-0.85
-0.27
0.39
1.35
2.74
4.48
6.36
8.13
9.46
10.19
10.24
9.69
8.69
7.40
5.85
3.97
1.70
-0.92
-3.65
-6.13
-8.00
-9.10
-9.47
-9.38
-9.18
-9.08
-9.08
-8.85
-7.98
-6.09
-3.15
0.55
4.40
7.84
10.55
12.52
14.15
15.78
17.59
19.41
20.78
21.19
20.30
18.13
14.95
11.33
7.79
4.68
2.20
0.41
-0.63
-0.96
-0.68
-0.09
0.33
0.11
-1.10
-3.24
-5.95
-8.70
-11.05
-12.79
-14.01
-14.88
-15.61
-16.30
-16.89
-17.21
-17.09
-16.41
-15.23
-13.85
-12.67
-12.13
-12.46
-13.61
-15.26
-16.94
-18.19
-18.72
-18.46
-17.48
-15.83
-13.65
-11.14
-8.55
-6.25
-4.54
-3.58
-3.33
-3.48
-3.62
-3.38
-2.65
-1.52
-0.28
0.82
1.71
2.42
3.15
4.03
5.11
6.29
7.38
8.11
8.34
8.01
7.29
6.40
5.56
4.85
4.28
3.75
3.17
2.51
1.84
1.20
0.67
0.32
0.15
0.19
0.41
0.70
0.98
1.23
1.48
1.82
2.24
2.62
2.73
2.40
1.70
0.89
0.41
0.49
1.09
1.82
2.23
1.98
1.13
0.08
-0.69
-0.81
-0.21
0.97
2.41
3.83
5.00
5.72
5.83
5.22
3.92
2.23
0.66
-0.32
-0.55
-0.30
-0.12
-0.53
-1.61
-2.88
-3.55
-3.05
-1.31
1.08
3.31
4.72
5.18
5.03
4.83
4.98
5.42
5.78
5.61
4.76
3.45
2.22
1.58
1.80
2.67
3.57
3.81
2.89
0.73
-2.35
-5.82
-9.16
-12.04
-14.39
-16.23
-17.64
-18.62
-19.10
-18.97
-18.14
-16.62
-14.57
-12.31
-10.22
-8.65
-7.78
-7.53
-7.61
-7.63
-7.23
-6.26
-4.76
-2.95
-1.12
0.39
1.35
1.62
1.29
0.64
0.07
-0.03
0.60
1.97
3.82
5.79
7.40
8.30
8.33
7.60
6.53
5.64
5.42
6.04
7.31
8.64
9.36
8.91
7.10
4.19
0.79
-2.37
-4.71
-5.84
-5.75
-4.74
-3.21
-1.64
-0.33
0.61
1.26
1.80
2.41
3.19
4.13
5.16
6.17
7.14
8.04
8.86
9.50
9.71
9.22
7.85
5.64
2.90
0.20
-1.91
-3.08
-3.34
-3.02
-2.70
-2.91
-3.99
-6.06
-8.99
-12.44
-15.97
-19.07
-21.27
-22.29
-22.09
-20.89
-19.03
-16.85
-14.57
-12.27
-9.94
-7.60
-5.25
-2.97
-0.76
1.38
3.49
5.56
7.55
9.32
10.67
11.38
11.20
10.03
7.96
5.35
2.79
0.99
0.41
1.09
2.57
4.01
4.66
4.19
2.84
1.32
0.39
0.44
1.29
2.36
2.98
2.82
2.03
1.15
0.76
1.20
2.38
3.93
5.38
6.38
6.86
7.03
7.19
7.66
8.56
9.82
11.16
12.20
12.60
12.21
11.11
9.57
7.91
6.38
5.08
3.98
2.99
1.97
0.83
-0.57
-2.40
-4.72
-7.54
-10.56
-13.41
-15.65
-17.00
-17.32
-16.71
-15.41
-13.71
-11.93
-10.30
-8.90
-7.65
-6.37
-4.85
-2.89
-0.52
1.96
4.13
5.59
6.12
5.78
4.93
4.02
3.48
3.49
4.00
4.69
5.19
5.15
4.43
3.08
1.33
-0.54
-2.37
-3.95
-5.12
-5.58
-4.91
-2.73
1.00
5.89
11.12
15.74
19.06
20.86
21.33
20.85
19.68
17.82
15.13
11.64
7.68
3.91
1.02
-0.53
-0.74
-0.03
0.99
1.73
1.82
1.19
-0.05
-1.72
-3.68
-5.82
-8.07
-10.28
-12.22
-13.65
-14.41
-14.42
-13.83
-12.88
-11.82
-10.81
-9.92
-9.13
-8.37
-7.59
-6.73
-5.73
-4.67
-3.71
-3.10
-3.08
-3.73
-4.95
-6.38
-7.60
-8.26
-8.30
-7.89
-7.40
-7.10
-7.05
-7.08
-6.91
-6.35
-5.50
-4.62
-3.99
-3.72
-3.64
-3.40
-2.70
-1.48
0.03
1.43
2.41
2.92
3.16
3.40
3.83
4.36
4.75
4.70
4.12
3.13
2.02
1.09
0.41
-0.08
-0.58
-1.22
-2.04
-2.95
-3.93
-5.00
-6.30
-7.95
-9.89
-11.79
-13.22
-13.75
-13.15
-11.49
-9.05
-6.19
-3.22
-0.29
2.42
4.76
6.55
7.64
8.04
7.91
7.55
7.15
6.80
6.40
5.70
4.56
3.01
1.28
-0.27
-1.32
-1.80
-1.82
-1.71
-1.85
-2.47
-3.49
-4.65
-5.63
-6.23
-6.56
-6.95
-7.77
-9.14
-10.80
-12.25
-13.00
-12.94
-12.34
-11.68
-11.35
-11.41
-11.57
-11.46
-10.84
-9.86
-8.88
-8.28
-8.30
-8.91
-9.86
-10.79
-11.29
-11.03
-9.89
-7.99
-5.80
-4.08
-3.51
-4.46
-6.69
-9.42
-11.52
-11.88
-9.82
-5.28
1.14
8.24
14.48
18.41
19.10
16.80
13.15
10.82
12.57
20.08
32.97
48.61
62.98
72.27
74.46
70.15
62.15
54.13
48.86
47.05
47.22
46.62
42.80
34.80
23.69
11.98
2.55
-2.71
-3.57
-1.38
1.69
3.75
3.87
2.30
0.06
-1.56
-1.40
1.35
7.14
15.79
25.90
34.34
36.73
29.04
9.82
-18.08
-47.73
-70.59
-80.14
-74.75
-58.09
-37.02
-17.93
-4.05
5.23
12.70
20.83
29.90
38.15
43.19
43.82
40.76
36.11
32.06
29.80
29.21
29.40
29.38
28.68
27.44
26.06
24.91
24.16
23.75
23.47
23.16
22.67
22.00
21.37
21.29
22.37
25.00
29.10
33.94
38.44
41.57
42.90
42.74
42.08
42.19
44.12
48.40
54.96
63.33
72.89
83.25
94.22
105.77
117.72
129.36
139.23
145.35
145.74
139.05
125.33
106.08
84.13
62.73
44.58
31.04
21.71
14.62
6.84
-4.57
-21.66
-44.86
-72.73
-102.44
-130.57
-154.23
-171.74
-183.10
-189.92
-194.83
-200.51
-208.22
-216.80
-222.10
-217.99
-198.52
-160.74
-106.65
-43.44
18.72
70.43
106.09
125.44
132.33
132.17
129.30
125.97
122.96
120.84
121.16
125.76
135.77
150.10
165.36
176.89
180.78
175.66
163.12
147.05
131.76
120.25
113.11
108.43
102.74
92.33
74.83
50.12
20.54
-10.06
-37.68
-59.83
-76.16
-87.95
-97.20
-105.12
-111.81
-116.87
-120.49
-123.85
-128.23
-133.29
-135.78
-131.09
-115.99
-91.72
-64.28
-41.51
-29.00
-26.21
-26.74
-21.95
-6.15
19.86
49.14
72.23
81.68
74.54
52.52
19.43
-21.18
-67.05
-116.08
-164.57
-205.93
-231.42
-233.82
-210.59
-166.60
-113.87
-67.64
-40.62
-37.79
-54.56
-78.95
-98.93
-106.90
-102.87
-93.57
-88.42
-95.11
-116.47
-150.15
-190.95
-236.79
-287.47
-342.93
-400.09
-451.32
-485.91
-494.11
-471.24
-419.77
-352.97
-286.33
-231.89
-194.43
-172.33
-161.96
-161.54
-171.84
-194.04
-233.05
-289.85
-360.77
-438.67
-516.36
-589.98
-659.59
-726.58
-752.58
-707.60
-578.40
-379.78
-148.06
78.01
272.65
425.95
539.99
622.68
676.72
703.89
706.33
688.75
658.73
624.96
594.32
571.12
556.79
545.90
533.15
512.87
482.06
441.51
394.54
344.88
295.84
250.04
206.42
163.63
120.76
77.19
33.76
-7.80
-45.73
-78.67
-105.36
-126.46
-143.03
-146.27
-133.25
-105.40
-67.09
-23.86
19.58
60.73
98.19
131.55
160.44
184.98
203.15
212.28
210.23
195.72
168.51
129.04
79.11
20.85
-36.87
-83.06
-108.95
-111.90
-96.29
-71.34
-47.07
-30.07
-21.73
-19.69
-20.94
-23.16
-26.15
-30.69
-36.96
-44.01
-49.83
-52.47
-51.53
-48.85
-46.73
-48.00
-54.17
-64.82
-78.34
-92.52
-105.21
-114.88
-122.09
-125.78
-125.48
-120.16
-108.05
-87.37
-57.10
-17.43
29.89
81.55
134.13
182.99
223.98
254.23
271.97
276.63
268.56
248.66
213.86
168.35
116.53
62.52
9.91
-38.62
-81.07
-116.19
-143.78
-164.18
-177.22
-184.12
-187.04
-186.64
-183.39
-177.59
-169.63
-160.20
-150.22
-140.09
-131.12
-124.57
-121.20
-121.58
-125.44
-132.30
-141.51
-152.51
-164.53
-177.44
-190.87
-204.20
-216.86
-227.31
-234.48
-237.78
-237.47
-234.13
-230.21
-226.77
-223.48
-218.81
-208.27
-187.64
-153.83
-106.07
-46.13
22.75
97.29
174.61
252.26
331.49
412.61
494.42
573.23
642.81
696.85
731.00
743.63
735.82
715.57
691.41
671.84
663.15
666.51
679.01
694.04
702.55
672.01
583.63
434.88
245.46
49.62
-120.86
-245.46
-317.75
-342.67
-332.07
-295.96
-247.21
