1515712887.00
64.000000
-0.00
-0.00
-0.00
-0.00
-0.00
-0.00
-0.00
-0.00
-0.00
-0.00
0.00
0.01
0.01
-0.00
-0.03
-0.05
-0.05
0.00
0.13
0.36
0.66
1.01
1.37
1.72
2.06
2.40
2.79
3.24
3.80
4.42
5.06
5.66
6.20
6.68
7.15
7.68
8.31
9.14
10.09
11.04
11.88
12.56
13.14
13.76
14.65
15.96
17.91
20.32
22.90
25.38
27.58
29.57
31.68
34.32
37.81
42.54
48.15
54.10
59.83
64.97
69.58
74.14
79.34
85.71
93.76
103.00
112.62
121.73
129.77
136.75
143.30
150.75
157.77
166.64
177.95
191.79
206.97
220.57
228.25
225.36
208.53
176.87
132.76
80.05
23.07
-34.94
-92.44
-149.16
-205.23
-260.37
-313.74
-363.87
-409.83
-450.91
-486.50
-515.74
-537.23
-549.22
-549.96
-538.37
-514.21
-478.67
-433.88
-382.45
-327.02
-269.84
-212.63
-156.66
-102.95
-52.37
-5.90
35.58
71.43
101.35
125.50
144.38
158.69
169.15
176.37
180.75
182.57
182.07
179.51
175.23
169.65
163.18
156.15
148.81
141.30
133.69
126.02
118.33
110.69
103.16
95.80
88.68
81.83
75.25
68.95
62.95
57.25
51.86
46.78
42.03
37.59
33.45
29.61
26.07
22.81
19.83
17.11
14.67
12.48
10.54
8.83
7.35
6.07
4.97
4.05
3.27
2.62
2.09
1.65
1.30
1.01
0.79
0.61
0.47
0.37
0.28
0.22
0.18
0.15
0.13
0.12
0.12
0.13
0.14
0.16
0.19
0.22
0.26
0.30
0.33
0.38
0.42
0.46
0.51
0.56
0.60
0.65
0.71
0.77
0.83
0.91
0.99
1.08
1.18
1.30
1.43
1.57
1.73
1.91
2.11
2.33
2.57
2.84
3.13
3.45
3.80
4.18
4.60
5.05
5.54
6.07
6.64
7.24
7.89
8.59
9.32
10.11
10.93
11.81
12.72
13.69
14.71
15.81
16.96
18.19
19.45
20.73
21.98
23.10
24.02
24.59
24.73
24.29
23.19
21.35
18.75
15.41
11.41
6.94
2.22
-2.46
-6.84
-10.68
-13.80
-16.13
-17.65
-18.41
-18.49
-18.01
-17.09
-15.87
-14.53
-13.24
-12.24
-11.63
-11.48
-11.70
-12.15
-12.59
-12.79
-12.62
-12.08
-11.30
-10.53
-9.87
-9.33
-8.90
-8.37
-7.54
-6.41
-5.22
-4.39
-4.34
-5.26
-6.95
-9.14
-11.21
-12.55
-12.93
-12.65
-12.45
-13.13
-15.10
-18.22
-22.22
-26.34
-29.78
-32.23
-33.97
-35.77
-38.57
-43.25
-50.55
-61.41
-75.55
-91.23
-105.38
-114.47
-115.74
-108.55
-94.96
-75.04
-52.98
-33.10
-17.96
-7.70
-0.69
5.11
10.89
16.55
21.32
23.89
24.16
23.05
21.75
20.95
20.50
19.56
17.27
13.40
8.01
2.03
-3.50
-8.10
-12.04
-16.02
-20.61
-25.64
-30.02
-32.43
-31.48
-26.56
-18.19
-7.90
2.23
10.50
16.01
18.85
19.64
19.28
18.48
17.58
16.74
16.02
15.56
15.56
16.14
17.14
18.16
18.73
18.39
16.91
14.30
10.90
7.17
3.63
0.66
-1.65
-3.65
-5.99
-9.39
-14.21
-20.13
-26.16
-30.98
-33.36
-32.71
-29.10
-23.17
-15.87
-8.21
-1.21
4.17
7.09
7.02
3.98
-1.32
-7.66
-13.59
-17.89
-19.85
-19.35
-16.84
-13.07
-9.01
-5.37
-2.66
-0.96
-0.07
0.31
0.34
-0.06
-1.11
-3.05
-6.00
-9.88
-14.42
-19.09
-23.16
-25.71
-25.84
-22.97
-17.15
-9.16
-0.32
8.00
14.82
19.81
23.22
25.50
27.05
27.96
28.22
27.87
27.09
26.22
25.38
24.55
23.47
21.96
20.06
18.07
16.38
15.15
14.21
13.03
10.98
7.58
2.64
-3.65
-10.84
-18.20
-24.83
-29.62
-31.49
-29.68
-24.03
-15.13
-4.22
7.15
17.63
26.35
33.02
37.77
40.91
42.72
43.42
43.18
42.26
41.00
39.75
38.74
37.94
37.11
35.88
33.93
31.17
27.69
23.75
19.62
15.45
11.24
6.76
1.69
-4.27
-11.18
-18.66
-25.86
-31.65
-34.93
-35.13
-32.41
-27.58
-21.72
-15.77
-10.17
-5.01
-0.28
3.81
6.76
8.03
7.43
5.28
2.31
-0.69
-3.29
-5.63
-8.25
-11.72
-16.33
-21.88
-27.77
-33.19
-37.45
-40.18
-41.31
-41.09
-39.79
-37.69
-34.76
-30.68
-24.82
-16.44
-4.92
9.87
27.50
46.82
66.31
84.35
99.59
111.26
119.24
123.91
126.03
126.45
126.02
125.49
125.49
126.48
128.61
131.70
135.25
138.59
141.15
142.71
143.48
143.92
144.42
144.97
145.06
143.77
139.94
132.39
120.06
102.11
78.36
49.63
18.15
-12.66
-38.98
-57.72
-67.56
-69.31
-65.44
-59.08
-53.24
-50.23
-51.71
-58.81
-72.02
-90.99
-114.16
-138.81
-161.61
-179.44
-190.21
-193.19
-188.87
-178.41
-163.11
-144.14
-122.55
-99.43
-75.99
-53.50
-33.02
-15.24
-0.38
11.65
21.20
28.82
35.37
42.04
50.31
61.64
77.06
96.82
120.23
145.82
171.68
195.81
216.40
231.86
240.93
242.84
237.35
224.94
207.03
185.74
163.62
142.61
123.35
104.79
84.89
61.54
33.84
2.79
-28.81
-57.38
-80.11
-96.11
-106.64
-114.14
-121.33
-130.04
-140.58
-151.61
-160.54
-164.51
-161.34
-149.98
-129.81
-101.39
-66.52
-27.93
11.07
47.81
79.72
104.43
120.12
127.11
126.23
118.35
104.43
85.41
64.01
42.79
23.52
7.42
-2.51
-4.38
1.45
12.31
23.52
32.76
38.77
41.69
43.76
51.05
68.07
94.98
127.28
157.19
180.35
194.77
200.74
183.49
139.64
80.10
24.29
-4.32
-9.11
3.05
26.57
53.37
77.91
98.45
113.74
121.88
120.68
107.73
84.74
54.32
18.87
-18.97
-54.80
-85.63
-111.20
-133.61
-156.41
-180.16
-204.09
-226.92
-246.89
-261.53
-269.68
-272.11
-270.82
-268.31
-264.94
-260.32
-254.17
-246.20
-236.02
-223.94
-211.23
-199.80
-191.64
-187.25
-185.96
-186.23
-185.78
-182.11
-173.30
-158.55
-138.39
-114.28
-87.86
-60.84
-34.78
-10.92
9.89
27.28
41.20
51.78
59.53
65.40
70.72
76.77
84.41
93.60
103.41
112.29
118.22
119.97
117.32
111.00
101.91
90.77
78.05
64.14
49.47
33.77
17.18
0.28
-16.22
-31.99
-47.41
-63.40
-81.02
-100.91
-123.98
-149.14
-173.11
-191.51
-201.05
-200.76
-192.04
-177.59
-160.16
-143.20
-128.10
-114.13
-99.62
-83.59
-66.27
-48.46
-30.78
-3.14
37.29
85.33
130.89
166.09
188.42
199.31
201.96
199.90
196.26
191.13
184.40
176.57
168.54
161.01
154.11
147.63
141.18
134.87
127.08
116.56
102.91
86.48
67.64
46.26
21.86
-5.87
-36.56
-69.56
-102.56
-131.68
-152.73
-162.59
-160.26
-146.88
-125.24
-99.01
-72.51
-49.40
-31.96
-20.85
-15.20
-13.10
-12.26
-10.67
-7.15
-1.49
6.04
15.07
25.08
35.24
44.16
50.10
51.55
47.95
40.08
30.03
20.46
13.69
10.98
12.25
16.43
22.16
28.39
34.67
41.01
47.41
53.47
58.34
61.01
60.72
57.55
52.37
46.53
41.33
37.53
35.30
34.29
34.04
34.10
34.03
33.31
31.38
27.77
22.34
15.35
7.49
-0.45
-7.69
-13.75
-18.43
-21.77
-23.95
-25.18
-25.73
-25.85
-25.76
-25.60
-25.35
-24.94
-24.29
-23.28
-21.87
-20.05
-17.84
-15.37
-12.88
-10.70
-9.09
-8.16
-7.71
-7.39
-6.76
-5.58
-3.97
-2.35
-1.23
-0.93
-1.37
-2.12
-2.64
-2.56
-1.94
-1.13
-0.61
-0.69
-1.45
-2.72
-4.30
-6.06
-7.86
-9.50
-10.65
-10.88
-9.89
-7.71
-4.82
-1.99
-0.01
0.64
-0.16
-2.01
-4.04
-5.38
-5.45
-4.27
-2.17
0.20
2.28
3.50
3.62
2.85
1.67
0.59
-0.06
-0.10
0.41
1.38
2.22
2.60
2.65
2.78
3.35
4.44
6.11
8.26
10.79
12.18
11.16
7.65
2.61
-2.66
-7.11
-9.64
-9.98
-8.02
-6.88
-8.99
-14.28
-20.53
-25.34
-27.56
-26.55
-23.30
-18.58
-17.27
-22.39
-32.93
-45.17
-56.12
-65.92
-76.03
-90.17
-110.72
-144.06
-192.87
-253.52
-318.17
-379.16
-432.15
-474.40
-506.92
-493.74
-418.39
-296.01
-163.95
-53.40
25.18
67.96
91.68
107.45
121.10
128.40
124.29
111.41
94.59
79.51
70.19
70.35
80.13
98.68
119.60
137.09
149.33
157.83
165.40
173.40
182.76
192.02
199.93
203.19
200.21
192.66
184.09
177.99
175.81
177.47
180.50
182.13
178.84
168.78
152.85
134.00
115.90
101.39
92.11
87.98
88.29
91.75
97.42
104.77
113.15
121.27
127.13
128.63
124.29
113.90
98.71
80.97
63.17
47.32
34.36
24.04
15.01
5.28
-7.06
-23.27
-43.53
-66.97
-91.91
-116.38
-138.44
-156.41
-169.05
-175.73
-176.60
-172.58
-165.24
-156.24
-146.87
-137.71
-128.67
-119.43
-109.87
-100.40
-91.83
-85.05
-80.46
-77.89
-76.69
-76.01
-75.07
-73.10
-69.27
-62.65
-52.69
-39.58
-24.61
-10.00
2.02
10.08
14.43
16.59
18.44
21.15
24.59
27.65
28.99
27.97
24.64
19.40
12.34
3.06
-9.04
-24.26
-42.46
-63.46
-87.55
-115.66
-148.65
-186.10
-225.28
-261.37
-288.66
-302.67
-301.96
-288.99
-269.31
-249.53
-234.87
-227.37
-225.34
-224.60
-220.49
-209.98
-192.69
-170.34
-145.23
-118.84
-91.58
-63.67
-36.43
-12.90
3.20
9.62
7.58
2.25
1.26
11.86
38.24
80.38
134.89
197.23
263.71
332.11
400.75
467.05
526.57
573.50
602.27
609.54
595.39
562.97
517.11
462.50
402.81
340.57
278.06
218.02
163.77
118.44
83.72
58.98
41.31
26.52
10.74
-8.25
-30.21
-52.95
-73.48
-89.37
-99.45
-103.92
-103.66
-99.67
-92.67
-83.19
-71.96
-60.01
-48.61
-38.87
-31.45
-26.42
-23.40
-21.80
-21.06
-20.82
-20.77
-20.73
-20.52
-20.08
-19.51
-18.88
-18.17
-17.16
-15.53
-13.19
-10.34
-7.62
-5.75
-5.14
-5.62
-6.48
-6.82
-6.05
-4.16
-1.77
0.27
1.34
1.32
0.62
-0.14
-0.51
-0.48
-0.45
-0.84
-1.84
-3.20
-4.44
-5.20
-5.57
-6.10
-7.43
-9.76
-12.51
-14.54
-14.79
-12.93
-9.61
-6.10
-3.59
-2.66
-3.05
-4.10
-5.13
-5.86
-6.28
-6.38
-6.02
-5.08
-3.67
-2.37
-2.02
-3.26
-6.07
-9.77
-13.32
-15.93
-17.46
-18.24
-18.75
-19.22
-19.42
-18.85
-17.19
-14.54
-11.40
-8.47
-6.17
-4.56
-3.42
-2.41
-1.42
-0.53
0.11
0.43
0.57
0.71
1.05
1.58
2.20
2.74
3.06
3.12
2.86
2.19
0.90
-1.12
-3.82
-6.90
-9.89
-12.31
-13.85
-14.48
-14.38
-13.88
-13.26
-12.70
-12.25
-11.89
-11.58
-11.17
-10.52
-9.40
-7.67
-5.34
-2.65
0.01
2.26
3.85
4.72
5.00
4.93
4.72
4.47
4.18
3.71
2.97
1.88
0.53
-0.97
-2.52
-4.10
-5.76
-7.59
-9.60
-11.67
-13.65
-15.38
-16.81
-17.98
-18.98
-19.81
-20.36
-20.49
-20.05
-19.00
-17.37
-15.23
-12.73
-10.02
-7.32
-4.89
-2.93
-1.52
-0.60
0.00
0.49
1.00
1.51
1.89
1.94
1.50
0.68
-0.18
-0.57
-0.04
1.51
3.67
5.58
6.31
5.28
2.63
-0.81
-3.78
-5.02
-4.01
-1.05
2.65
5.51
6.21
4.20
-0.07
-5.46
-10.43
-13.61
-14.09
-11.78
-7.59
-3.44
-1.81
-4.69
-12.75
-24.65
-37.44
-47.80
-53.52
-54.53
-52.87
-51.59
-53.30
-59.14
-68.60
-79.93
-90.97
-99.84
-105.35
-107.19
-106.18
-104.03
-102.98
-105.04
-111.21
-121.07
-132.71
-143.34
-150.06
-150.68
-144.16
-130.82
-112.17
-90.45
-68.26
-47.95
-31.21
-18.72
-10.06
-3.83
1.88
8.73
17.51
27.71
37.63
45.16
48.62
47.58
42.97
36.62
30.25
24.93
20.70
16.91
12.63
6.92
-1.06
-12.10
-26.63
-44.42
-64.39
-84.65
-102.76
-116.33
-123.48
-123.22
-115.70
-102.16
-84.77
-66.02
-48.02
-31.82
-17.17
-3.02
11.60
26.70
41.06
52.76
60.06
62.30
60.08
55.03
49.06
43.96
40.93
40.47
42.43
46.04
50.16
53.47
54.82
53.51
49.39
42.87
34.85
26.41
18.58
11.98
6.59
1.64
-4.13
-11.98
-22.45
-34.92
-47.56
-57.88
-63.62
-63.59
-58.04
-48.55
-37.39
-26.63
-17.54
-10.20
-3.84
2.79
10.64
20.05
30.61
41.31
50.99
58.59
63.51
65.56
65.08
62.68
59.16
55.28
51.54
48.03
44.40
40.13
34.85
28.70
22.36
16.79
12.83
10.77
10.17
10.01
9.00
5.99
0.33
-7.83
-17.56
-27.22
-34.92
-38.94
-38.26
-32.83
-23.47
-11.60
1.22
13.66
24.80
34.11
41.37
46.59
49.96
51.87
52.86
53.52
54.29
55.37
56.66
57.91
58.83
59.22
59.11
58.64
58.10
57.65
57.34
56.98
56.23
54.79
52.43
49.13
44.91
39.83
33.86
27.02
19.55
12.15
5.98
2.36
2.36
6.28
13.57
23.03
33.30
43.37
52.73
61.22
68.63
74.41
77.65
77.50
73.66
66.68
57.89
48.89
40.93
34.54
29.49
25.10
20.80
16.37
12.00
8.04
4.68
1.91
-0.56
-3.01
-5.60
-8.38
-11.32
-14.49
-18.02
-22.05
-26.44
-30.71
-34.03
-35.36
-33.79
-28.83
-20.60
-9.88
2.07
13.89
24.39
32.81
38.90
42.87
45.12
46.15
46.37
46.10
45.61
45.10
44.70
44.45
44.16
43.54
42.24
40.05
37.02
33.40
29.60
25.94
22.57
19.38
16.03
12.15
7.36
1.51
-5.37
-12.88
-20.33
-26.68
-30.85
-31.98
-29.71
-24.35
-16.81
-8.22
0.36
8.27
15.21
21.09
25.87
29.43
31.68
32.72
32.93
32.92
33.27
34.30
35.94
37.73
39.02
39.27
38.21
35.89
32.64
28.91
25.07
21.30
17.49
13.37
8.51
2.57
-4.56
-12.60
-20.80
-28.07
-33.11
-34.83
-32.59
-26.44
-17.07
-5.68
6.41
17.99
28.17
36.34
42.19
45.65
46.91
46.34
44.53
42.11
39.64
37.43
35.51
33.69
31.62
28.99
25.61
21.49
16.77
11.63
6.27
0.77
-4.83
-10.59
-16.62
-23.06
-29.90
-36.92
-43.52
-48.75
-51.47
-50.77
-46.33
-38.56
-28.46
-17.27
-6.06
4.46
13.89
21.92
28.12
32.03
33.38
32.38
29.81
26.88
24.73
23.94
24.36
25.14
25.23
23.87
20.89
16.77
12.32
8.27
4.92
2.06
-0.84
-4.33
-8.79
-14.29
-20.63
-27.27
-33.43
-38.13
-40.38
-39.56
-35.62
-29.11
-21.06
-12.56
-4.45
2.84
9.16
14.42
18.49
21.20
22.48
22.57
22.00
21.35
21.04
21.16
21.37
21.16
19.98
17.54
13.91
9.44
4.63
-0.09
-4.47
-8.54
-12.54
-16.77
-21.55
-27.07
-33.26
-39.75
-45.79
-50.29
-52.13
-50.44
-45.00
-36.36
-25.82
-14.93
-5.13
2.78
8.57
12.56
15.28
17.17
18.51
19.42
20.02
20.50
21.11
22.09
23.50
25.16
26.62
27.27
26.53
24.13
20.17
15.16
9.78
4.63
-0.00
-4.18
-8.22
-12.54
-17.50
-23.41
-30.49
-38.85
-48.29
-58.13
-67.15
-73.87
-76.89
-75.46
-69.70
-60.51
-49.21
-37.02
-24.73
-12.71
-1.06
10.11
20.45
29.44
36.57
41.63
44.85
46.86
48.44
50.16
52.18
54.17
55.50
55.60
54.11
51.05
46.65
41.18
34.82
27.64
19.59
10.82
1.62
-7.54
-16.20
-24.11
-31.35
-38.23
-44.97
-51.40
-56.73
-59.75
-59.25
-54.54
-45.93
-34.65
-22.44
-10.90
-1.07
6.77
12.77
17.20
20.15
21.58
21.49
20.11
17.87
15.29
12.74
10.29
7.72
4.78
1.33
-2.49
-6.33
-9.66
-12.07
-13.28
-13.27
-12.24
-10.50
-8.36
-6.07
-3.84
-1.92
-0.65
-0.48
-1.77
-4.54
-8.27
-11.79
-13.54
-11.99
-6.17
3.99
17.54
32.83
47.97
61.36
72.04
79.76
84.77
87.51
88.41
87.78
85.91
83.24
80.36
77.90
76.31
75.69
75.79
76.24
76.82
77.43
77.89
77.59
75.49
70.52
62.15
50.94
38.42
26.51
16.51
8.42
0.84
-8.48
-21.65
-39.74
-62.33
-87.43
-111.97
-132.39
-145.57
-149.51
-143.97
-130.57
-112.47
-93.63
-77.94
-68.42
-66.42
-71.24
-80.19
-89.23
-94.22
-92.22
-82.52
-66.69
-47.76
-28.90
-12.27
1.48
12.77
22.32
30.46
36.88
41.02
42.46
41.31
38.09
33.46
27.83
21.26
13.62
4.91
-4.59
-14.30
-23.63
-32.22
-40.01
-47.05
-53.25
-58.07
-60.55
-59.60
-54.48
-45.24
-32.79
-18.73
-4.94
6.92
15.70
20.97
22.86
22.06
19.49
16.14
12.83
10.19
8.49
7.73
7.66
7.86
7.90
7.45
6.30
4.39
1.80
-1.28
-4.70
-8.31
-12.02
-15.77
-19.52
-23.22
-26.85
-30.52
-34.43
-38.86
-43.96
-49.50
-54.73
-58.44
-59.27
-56.19
-49.00
-38.42
-25.93
-13.31
-2.09
6.78
12.96
16.63
18.27
18.52
18.08
17.67
17.84
18.93
20.96
23.65
26.59
29.28
31.27
32.15
31.65
29.70
26.54
22.69
18.85
15.70
13.51
12.11
10.85
8.91
5.66
0.87
-5.26
-12.33
-19.86
-27.46
-34.74
-41.07
-45.56
-47.26
-45.44
-40.04
-31.81
-22.10
-12.47
-4.20
2.01
5.93
7.67
7.48
5.65
2.53
-1.32
-5.29
-8.77
-11.32
-12.89
-13.72
-14.28
-14.95
-15.98
-17.34
-18.84
-20.30
-21.58
-22.71
-23.71
-24.50
-24.90
-24.65
-23.71
-22.41
-21.45
-21.64
-23.50
-26.88
-30.79
-33.65
-33.76
-29.91
-21.82
-10.22
3.40
17.16
29.39
38.93
45.29
48.65
49.63
49.02
47.51
45.63
43.59
41.50
39.32
37.02
34.62
32.06
29.20
25.77
21.50
16.21
9.97
3.16
-3.72
-10.20
-15.97
-21.02
-25.56
-29.92
-34.41
-39.29
-44.73
-50.76
-57.07
-62.94
-67.17
-68.31
-65.14
-57.21
-45.17
-30.61
-15.64
-2.14
8.69
16.48
21.43
24.02
24.70
23.82
21.85
19.38
17.15
15.83
15.79
16.90
18.68
20.44
21.57
21.67
20.65
18.55
15.55
11.85
7.65
3.17
-1.37
-5.81
-10.15
-14.55
-19.39
-24.96
-31.21
-37.43
-42.30
-44.11
-41.39
-33.48
-20.96
-5.66
9.90
23.29
33.00
38.94
42.28
44.85
48.29
53.38
59.81
66.48
72.04
75.44
76.19
74.28
69.97
63.54
55.30
45.59
34.98
24.23
14.15
5.42
-1.71
-7.40
-12.17
-16.67
-21.48
-26.91
-33.04
-39.71
-46.59
-53.25
-59.08
-63.32
-65.10
-63.64
-58.48
-49.71
-38.06
-24.78
-11.40
0.61
10.17
16.82
20.72
22.52
23.09
23.23
23.52
24.26
25.51
27.16
28.90
30.23
30.53
29.24
26.01
20.92
14.40
7.09
-0.43
-7.74
-14.65
-21.01
-26.71
-31.62
-35.72
-39.21
-42.45
-45.83
-49.53
-53.22
-56.06
-56.83
-54.37
-47.97
-37.69
-24.48
-9.82
4.61
17.47
28.01
36.11
42.10
46.45
49.58
51.82
53.44
54.76
56.07
57.55
59.14
60.48
61.00
60.10
57.33
52.55
45.86
37.57
28.09
17.88
7.45
-2.69
-12.15
-20.73
-28.58
-36.14
-44.00
-52.66
-62.20
-72.10
-81.18
-87.84
-90.50
-88.16
-80.84
-69.63
-56.44
-43.38
-32.17
-23.73
-18.26
-15.34
-14.36
-14.68
-15.71
-16.88
-17.63
-17.49
-16.18
-13.68
-10.25
-6.32
-2.38
1.06
3.56
4.81
4.71
3.51
1.62
-0.41
-2.15
-3.45
-4.37
-5.19
-6.19
-7.59
-9.43
-11.44
-13.05
-13.30
-11.15
-5.69
3.42
15.75
30.15
45.15
59.38
71.95
82.37
90.29
95.21
96.42
93.24
85.41
73.44
58.60
42.55
26.90
12.76
0.56
-9.85
-18.90
-27.05
-34.50
-41.29
-47.25
-52.22
-56.10
-58.89
-60.63
-61.47
-61.62
-61.44
-61.49
-62.42
-64.66
-68.08
-71.67
-73.53
-71.42
-63.50
-49.22
-29.64
-7.23
14.99
34.43
49.69
60.78
68.68
74.80
80.34
86.07
92.37
99.39
107.09
115.25
123.38
130.67
136.16
139.01
138.73
135.35
129.48
122.13
114.50
107.64
102.20
98.28
95.36
92.48
88.40
81.94
72.20
58.84
42.33
23.88
5.40
-11.01
-23.57
-31.34
-34.51
-34.31
-32.56
-31.19
-31.74
-35.23
-42.09
-52.33
-65.58
-81.22
-98.43
-116.34
-134.15
-151.18
-166.75
-180.17
-190.71
-197.79
-201.31
-201.65
-199.55
-195.72
-190.46
-183.57
-174.65
-163.47
-150.39
-136.35
-122.61
-110.42
-100.77
-94.27
-91.18
-91.27
-93.70
-96.90
-98.79
-97.24
-90.73
-78.95
-62.86
-44.40
-25.82
-9.00
4.82
15.16
22.03
25.73
26.69
25.50
22.90
19.77
17.00
15.25
14.80
15.47
16.72
17.95
18.70
18.77
18.24
17.37
16.37
15.35
14.26
12.91
11.09
8.67
5.51
1.53
-3.33
-8.95
-14.85
-20.16
-23.62
-23.94
-20.12
-11.85
0.28
14.93
30.28
44.51
56.26
64.85
70.25
72.88
73.40
72.49
70.78
68.83
67.18
66.25
66.20
66.82
67.52
67.52
66.06
62.81
57.92
52.01
45.87
40.18
35.23
30.91
26.82
22.47
17.43
11.37
4.16
-3.99
-12.42
-19.87
-24.78
-25.67
-21.77
-13.46
-2.16
10.07
21.28
30.26
36.73
41.07
43.80
45.32
45.76
45.26
44.14
43.08
42.87
44.14
47.03
51.07
55.35
58.67
59.97
58.60
54.48
48.07
40.22
31.79
23.28
14.73
5.66
-4.52
-16.27
-29.54
-43.68
-57.54
-69.71
-78.71
-83.35
-82.98
-77.60
-67.90
-55.19
-41.00
-26.80
-13.76
-2.60
6.31
12.93
17.39
20.05
21.46
22.33
23.42
25.31
28.22
31.84
35.34
37.63
37.61
34.44
27.79
17.92
5.53
-8.32
-22.54
-36.12
-48.38
-58.95
-67.78
-75.04
-80.86
-85.20
-87.64
-87.47
-83.82
-76.07
-64.03
-48.23
-29.80
-10.27
8.86
26.38
41.48
53.76
62.99
69.03
71.83
71.49
68.51
63.74
58.29
53.24
49.29
46.55
44.62
42.78
40.32
36.85
32.35
27.15
21.65
16.23
11.05
6.16
1.47
-3.19
-7.99
-13.18
-18.88
-25.01
-31.06
-36.06
-38.75
-37.89
-32.83
-23.74
-11.70
1.57
14.35
25.35
33.97
40.22
44.47
47.10
48.44
48.69
48.16
47.27
46.57
46.50
47.12
48.08
48.54
47.59
44.48
39.00
31.53
22.82
13.76
4.97
-3.23
-10.87
-18.10
-25.07
-31.91
-38.71
-45.61
-52.58
-59.24
-64.67
-67.49
-66.31
-60.23
-49.40
-35.02
-19.16
-4.00
8.76
18.23
24.36
27.65
28.78
28.40
27.06
25.36
23.90
23.30
23.98
25.94
28.72
31.48
33.31
33.56
32.09
29.32
25.99
22.87
20.46
18.79
17.53
16.11
13.89
10.31
4.90
-2.61
-12.06
-22.67
-32.91
-40.88
-44.80
-43.71
-37.81
-28.39
-17.20
-5.88
4.45
13.31
20.49
25.90
29.40
31.06
31.22
30.59
29.95
29.78
29.99
29.88
28.39
24.45
17.39
7.07
-5.97
-20.65
-35.52
-49.08
-60.08
-67.87
-72.44
-74.44
-74.84
-74.72
-74.87
-75.62
-76.65
-77.12
-75.76
-71.29
-62.85
-50.28
-34.39
-16.74
0.76
16.34
28.84
37.90
43.75
47.00
48.24
47.98
46.62
44.62
42.52
40.90
40.17
40.37
41.10
41.56
40.88
38.44
34.16
28.51
22.33
16.45
11.42
7.28
3.66
-0.09
-4.63
-10.39
-17.43
-25.38
-33.46
-40.49
-45.15
-46.21
-42.92
-35.32
-24.30
-11.38
1.72
13.55
23.19
30.32
35.07
37.77
38.81
38.64
37.79
36.85
36.39
36.74
37.93
39.59
41.17
42.12
42.09
41.03
39.15
36.79
34.22
31.58
28.86
25.86
22.33
18.01
12.76
6.65
0.09
-6.08
-10.65
-12.28
-9.85
-2.96
7.70
20.31
32.28
40.95
44.25
41.19
31.95
17.61
-0.20
-19.79
-39.55
-58.05
-74.11
-86.85
-95.91
-101.54
-104.55
-105.95
-106.68
-107.18
-107.37
-106.79
-104.96
-101.60
-96.87
-91.25
-85.41
-80.06
-75.77
-72.88
-71.43
-70.98
-70.56
-68.74
-64.03
-55.31
-42.32
-25.84
-7.47
10.79
27.18
40.46
50.19
56.49
59.86
60.88
60.15
58.24
55.72
53.15
50.99
49.45
48.40
47.38
45.76
42.99
38.85
33.54
27.64
21.87
16.82
12.68
9.24
5.92
2.02
-3.02
-9.41
-16.81
-24.35
-30.75
-34.62
-34.91
-31.18
-23.81
-13.87
-2.72
8.33
18.27
26.55
32.88
37.18
39.48
39.99
39.14
37.73
36.63
36.66
38.19
41.01
44.36
47.22
48.65
48.17
45.87
42.31
38.35
34.72
31.84
29.70
27.99
26.23
23.93
20.74
16.49
11.31
5.76
0.75
-2.52
-2.93
0.13
6.50
15.21
24.83
33.86
41.18
46.20
48.90
49.59
48.79
47.16
45.44
44.29
44.26
45.63
48.34
52.08
56.35
60.62
64.40
67.42
69.66
71.43
73.25
75.52
78.09
79.97
79.46
74.51
63.57
46.10
22.84
-4.26
-32.52
-59.05
-81.13
-96.70
-104.64
-105.11
-99.52
-90.28
-80.11
-71.28
-65.05
-61.54
-60.00
-59.23
-58.05
-55.65
-51.68
-46.24
-39.74
-32.77
-25.82
-19.22
-13.15
-7.78
-3.47
-0.82
-0.47
-2.88
-8.04
-15.51
-24.64
-34.82
-45.68
-57.03
-68.67
-80.22
-91.03
-100.28
-107.09
-110.81
-111.07
-107.86
-101.58
-93.02
-83.29
-73.61
-65.00
-57.93
-52.27
-47.36
-42.35
-36.51
-29.44
-20.99
-11.20
-0.16
11.96
24.70
37.12
47.92
55.64
59.14
58.05
52.89
45.01
36.15
28.00
21.80
18.05
16.54
16.53
16.95
16.86
15.64
13.24
10.18
7.45
6.19
7.40
11.59
18.56
27.48
37.05
45.89
52.78
56.88
57.75
55.31
49.83
41.92
32.55
22.95
14.30
7.47
2.79
0.10
-1.05
-1.03
-0.01
2.02
4.88
7.97
10.32
10.81
8.64
3.46
-4.58
-15.06
-27.38
-40.66
-53.56
-64.07
-69.95
-69.33
-61.55
-47.53
-29.54
-10.43
7.27
21.86
32.57
39.16
41.56
39.72
33.85
24.63
13.34
1.68
-8.69
-16.59
-21.59
-23.93
-24.34
-23.76
-23.14
-23.28
-24.77
-27.88
-32.46
-38.01
-43.75
-48.92
-52.90
-55.52
-56.95
-57.65
-58.00
-58.06
-57.34
-54.85
-49.39
-40.07
-26.73
-10.11
8.31
26.76
43.63
57.76
68.49
75.49
78.72
78.31
74.74
68.87
61.90
55.17
49.80
46.41
44.91
44.65
44.65
43.99
42.09
38.80
34.31
28.88
22.72
15.93
8.57
0.79
-7.19
-15.21
-23.24
-31.26
-39.06
-45.91
-50.66
-51.99
-48.93
-41.25
-29.64
-15.46
-0.39
13.96
26.35
35.86
42.04
44.78
44.49
41.99
38.42
35.01
32.78
32.30
33.53
35.98
38.78
41.04
41.96
41.09
38.40
34.23
29.40
24.86
21.57
20.10
20.41
21.81
23.09
22.96
20.47
15.43
8.55
1.24
-4.78
-8.09
-7.96
-4.58
1.09
7.75
14.25
19.89
24.56
28.42
31.60
33.88
34.75
33.64
30.41
25.61
20.47
16.57
15.25
17.26
22.69
31.26
42.47
55.51
68.92
80.42
87.38
87.88
81.73
70.80
58.25
47.11
39.09
34.40
32.69
34.33
40.99
55.12
78.51
110.74
148.74
187.32
220.80
244.56
256.22
255.82
245.44
228.38
208.19
187.88
169.50
154.13
142.11
133.51
128.26
126.11
126.49
128.35
130.38
131.29
130.21
126.88
121.56
114.65
106.50
97.14
86.30
73.60
58.71
41.61
22.61
2.26
-18.75
-39.79
-60.41
-80.47
-100.02
-119.32
-138.59
-158.06
-177.88
-198.35
-219.86
-242.76
-266.98
-291.65
-314.97
-334.54
-348.09
-354.21
-352.77
-344.82
-332.10
-316.38
-299.15
-281.53
-264.38
-248.55
-234.60
-222.79
-212.88
-204.29
-196.43
-188.93
-181.89
-175.55
-170.16
-165.59
-161.23
-155.95
-148.33
-136.97
-120.87
-99.92
-75.07
-48.34
-22.43
-0.03
16.96
28.02
34.07
37.14
39.54
43.15
48.87
56.67
65.84
75.39
84.49
92.42
98.69
102.90
104.84
104.55
102.44
99.21
95.69
92.52
90.03
88.21
86.75
85.21
83.12
80.03
75.75
70.40
64.44
58.42
52.62
46.85
40.30
31.94
20.88
6.84
-9.88
-28.52
-48.19
-68.05
-87.21
-104.76
-119.68
-131.13
-138.67
-142.38
-142.76
-140.33
-135.31
-127.61
-116.98
-103.44
-87.51
-70.22
-52.75
-36.20
-21.32
-8.57
1.81
9.64
14.98
18.12
19.75
20.76
21.97
23.92
26.59
29.58
32.16
33.71
33.82
32.48
30.08
27.25
24.68
22.89
22.01
21.72
21.44
20.59
18.87
16.39
13.56
10.94
8.94
7.74
7.27
7.28
7.50
7.64
7.55
7.10
6.19
4.79
2.88
0.66
-1.59
-3.39
-4.34
-4.14
-2.78
-0.51
2.21
4.82
6.89
8.17
8.66
8.51
7.92
7.09
6.16
5.23
4.40
3.77
3.40
3.34
3.54
3.93
4.48
5.23
6.32
7.88
9.95
12.44
15.19
18.11
21.12
24.25
27.50
30.89
34.48
38.33
42.61
47.43
52.84
58.64
64.53
70.11
75.20
79.87
84.45
89.37
94.85
100.80
106.89
112.76
118.37
124.12
130.72
138.77
148.44
159.22
170.12
179.84
187.06
190.49
188.80
180.82
165.64
143.18
114.20
80.32
43.22
4.02
-37.14
-80.72
-126.72
-173.73
-218.49
-256.72
-284.61
-300.28
-304.60
-300.68
-292.56
-283.67
-275.89
-269.54
-264.12
-259.15
-254.58
-250.58
-247.01
-243.12
-237.83
-230.35
-220.73
-210.07
-200.07
-192.24
-187.21
-184.46
-182.64
-180.27
-176.53
-171.71
-167.11
-164.44
-164.86
-168.31
-173.14
-176.62
-175.98
-169.41
-156.67
-138.80
-117.26
-92.96
-66.01
-36.10
-3.43
30.74
64.22
94.67
120.61
141.88
159.43
174.50
187.73
198.97
207.54
212.98
215.59
216.44
216.90
217.93
219.58
220.94
220.69
217.67
211.45
202.42
191.51
179.70
167.52
155.03
142.19
129.58
118.84
112.51
113.11
121.71
136.98
155.18
171.45
181.72
184.31
180.31
172.65
164.43
157.35
151.25
144.50
135.09
121.58
103.69
82.27
58.91
35.63
14.16
-4.45
-20.40
-35.21
-51.50
-72.21
-99.41
-133.46
-172.41
-212.46
-248.77
-276.66
-292.93
-296.58
-289.04
-273.50
-253.88
-233.61
-214.81
-197.90
-181.93
-165.16
-145.79
-122.64
-95.34
-64.44
-31.25
2.31
34.04
61.83
84.02
99.92
109.88
115.28
118.02
120.04
122.71
126.47
130.79
134.48
136.28
135.32
131.42
125.06
117.00
107.95
98.21
87.65
75.87
62.55
47.55
31.00
13.23
-5.34
-24.06
-42.08
-58.24
-71.21
-79.72
-82.93
-80.76
-73.82
-63.43
-51.09
-38.37
-26.49
-16.34
-8.40
-2.74
0.89
3.06
4.45
5.79
7.64
10.31
13.74
17.56
21.28
24.29
26.23
26.89
26.32
24.74
22.29
18.98
14.42
8.05
-0.73
-12.19
-26.06
-41.38
-56.55
-69.66
-78.88
-82.96
-81.53
-75.13
-64.93
-52.28
-38.32
-23.77
-9.17
5.01
18.04
29.12
37.49
42.80
45.25
45.46
44.31
42.55
40.70
38.97
37.38
35.81
34.03
31.89
29.17
25.70
21.31
15.83
9.19
1.44
-7.17
-16.22
-25.26
-34.11
-42.96
-52.34
-62.72
-74.06
-85.45
-95.33
-101.87
-103.57
-99.68
-90.27
-76.12
-58.34
-38.19
-17.00
3.88
23.10
39.51
52.35
61.34
66.62
68.62
68.09
65.99
63.55
62.04
62.44
65.02
69.13
73.44
76.37
76.78
74.33
69.51
63.34
56.85
50.76
45.34
40.42
35.38
29.28
20.95
9.23
-6.59
-26.51
-49.42
-73.08
-94.47
-110.41
-118.45
-117.60
-108.72
-94.26
-77.59
-61.82
-49.03
-39.88
-33.78
-29.46
-25.58
-21.14
-15.60
-9.00
-1.76
5.36
11.40
15.59
17.60
17.72
16.69
15.50
14.90
15.22
16.25
17.38
17.94
17.39
15.59
12.88
9.89
7.35
5.76
5.18
5.14
4.84
3.32
-0.10
-5.60
-12.57
-19.64
-24.85
-26.18
-22.13
-12.19
2.88
21.39
41.28
60.62
78.10
92.92
104.70
113.14
118.14
119.88
119.07
116.88
114.58
113.12
112.67
112.58
111.76
109.13
104.16
96.97
88.30
79.12
70.37
62.62
55.89
49.65
42.89
34.49
23.68
10.32
-5.05
-21.58
-38.62
-56.02
-74.09
-93.17
-112.79
-131.37
-146.24
-154.45
-153.67
-143.09
-123.67
-97.72
-68.30
-38.24
-9.66
16.32
39.25
59.04
75.54
88.51
97.77
103.48
106.25
107.00
106.62
105.71
104.49
102.97
101.23
99.53
98.29
97.76
97.71
97.37
95.62
91.48
84.61
75.47
65.19
55.12
46.32
39.21
33.49
28.29
22.23
13.57
0.41
-18.86
-44.89
-76.70
-111.31
-144.12
-170.12
-185.41
-188.46
-180.42
-164.42
-144.08
-122.29
-100.49
-78.85
-57.11
-35.20
-13.64
6.68
25.04
41.27
55.86
69.62
83.04
96.08
108.09
118.08
125.16
128.82
128.98
125.84
119.83
111.42
101.19
89.83
77.99
66.20
54.67
43.42
32.28
21.10
9.87
-1.24
-11.84
-21.34
-28.94
-33.74
-34.96
-32.28
-26.10
-17.51
-8.03
0.91
8.29
13.79
17.48
19.67
20.58
20.36
19.17
17.26
15.02
12.84
10.97
9.47
8.16
6.92
5.67
4.53
3.44
2.28
0.72
-1.63
-4.94
-9.20
-14.14
-19.45
-24.97
-30.71
-36.79
-43.29
-50.08
-56.65
-62.23
-65.86
-66.64
-64.00
-57.88
-48.85
-37.93
-26.30
-15.01
-4.83
3.72
10.22
14.30
15.72
14.52
11.28
6.95
2.65
-0.81
-3.14
-4.58
-5.76
-7.28
-9.61
-12.93
-17.17
-22.10
-27.44
-32.85
-37.95
-42.50
-46.41
-49.85
-53.34
-57.56
-63.06
-69.92
-77.48
-84.31
-88.57
-88.42
-82.73
-71.42
-55.52
-36.83
-17.38
1.15
17.70
31.79
43.29
52.24
58.73
63.08
65.89
68.09
70.52
73.68
77.35
80.68
82.54
81.92
78.35
71.84
62.83
51.92
39.73
26.91
14.16
2.22
-8.38
-17.48
-25.38
-32.66
-39.93
-47.45
-54.84
-61.12
-64.94
-65.01
-60.62
-51.87
-39.81
-25.96
-12.02
0.69
11.30
19.43
24.93
27.73
27.87
25.54
21.30
16.12
11.06
7.03
4.43
2.95
1.76
-0.25
-4.08
-10.30
-18.81
-29.22
-40.71
-52.39
-63.52
-73.70
-82.91
-91.62
-100.61
-110.64
-122.47
-135.76
-148.97
-159.47
-164.37
-161.60
-150.97
-134.53
-115.60
-98.29
-84.84
-75.32
-67.98
-60.36
-50.61
-38.24
-23.94
-8.42
7.39
23.96
42.33
62.77
84.38
105.20
123.16
134.95
143.11
148.32
151.56
152.86
150.84
144.26
133.49
121.05
110.62
104.96
100.15
90.21
69.13
34.92
-7.64
-49.47
-81.75
-99.86
-104.40
-100.52
-96.02
-92.38
-88.62
-82.63
-73.15
-60.66
-47.34
-35.75
-27.99
-24.00
-21.46
-18.37
-13.31
-6.04
2.55
10.96
17.91
22.52
24.91
25.97
26.17
25.73
24.55
22.36
18.89
14.13
8.18
1.42
-5.53
-12.55
-19.70
-27.15
-34.98
-42.74
-49.48
-53.76
-54.17
-49.68
-40.36
-27.18
-11.80
3.87
18.14
29.83
38.39
43.84
46.68
47.60
47.36
46.68
46.09
45.95
46.47
47.76
49.68
51.84
53.56
54.09
52.90
49.89
45.50
40.43
35.33
30.48
25.77
20.88
15.37
8.97
1.49
-7.08
-16.55
-26.27
-35.11
-41.55
-44.06
-41.62
-34.11
-22.35
-7.78
7.95
23.33
37.09
48.14
55.66
59.18
58.80
55.15
49.31
42.55
36.01
30.56
26.74
24.74
24.28
24.66
24.83
23.61
20.06
13.76
5.03
-5.26
-15.97
-26.09
-34.99
-42.50
-48.82
-54.28
-59.02
-62.74
-64.52
-62.87
-56.08
-42.68
-22.10
4.72
35.15
65.07
89.82
105.38
109.57
102.69
87.29
67.14
46.02
26.85
11.25
-0.15
-7.48
-11.25
-12.44
-12.43
-12.89
-15.22
-20.00
-26.76
-34.28
-41.18
-46.48
-50.07
-52.78
-56.00
-61.14
-69.16
-80.31
-94.02
-108.95
-122.87
-133.17
-137.48
-134.35
-123.61
-106.47
-85.14
-62.19
-39.93
-19.29
-0.35
16.93
32.28
45.21
55.54
63.61
70.16
75.75
81.63
88.15
94.06
96.76
93.58
83.13
65.78
43.29
17.70
-6.83
-26.80
-40.87
-50.18
-56.66
-61.69
-65.39
-67.10
-66.54
-60.25
-44.58
-17.39
20.87
67.66
119.49
173.06
226.48
267.07
286.61
284.87
268.77
244.42
212.25
170.03
118.15
66.94
18.55
-22.52
-53.40
-74.56
-89.12
-100.15
-108.91
-113.93
-113.95
-110.32
-103.15
-93.49
-83.44
-75.65
-72.05
-73.26
-78.91
-88.55
-102.51
-118.76
-134.53
-147.13
-154.56
-155.74
-150.50
-139.77
-125.61
-111.11
-97.93
-86.91
-78.35
-72.18
-67.98
-64.94
-61.97
-58.02
-52.45
-44.44
-33.58
-20.17
-5.17
10.03
24.01
35.71
44.50
50.23
53.32
54.33
53.76
51.89
48.66
43.84
37.16
28.51
18.25
7.34
-2.68
-9.96
-12.85
-10.46
-3.01
8.18
21.15
33.81
44.54
52.38
56.98
58.42
57.14
53.89
49.74
45.91
43.47
42.96
44.18
46.28
48.21
49.05
48.43
46.40
43.27
39.31
34.68
29.35
23.31
16.61
9.31
1.38
-7.32
-16.90
-27.15
-37.22
-45.53
-50.09
-49.14
-41.80
-28.49
-10.89
8.62
27.49
43.68
55.93
63.70
67.10
66.67
63.33
58.22
52.60
47.61
44.08
42.22
41.66
41.49
40.59
37.98
33.23
26.59
18.95
11.47
5.21
0.64
-2.53
-5.44
-9.82
-17.40
-29.30
-45.32
-63.52
-80.51
-92.34
-95.80
-89.55
-74.59
-53.88
-31.27
-10.31
6.47
17.84
23.76
25.15
23.83
22.43
23.86
30.46
42.82
58.92
74.41
83.85
82.85
69.75
46.41
17.44
-11.49
-35.42
-51.28
-58.11
-56.61
-48.70
-37.24
-25.89
-18.71
-19.27
-29.35
-47.83
-70.58
-91.49
-104.42
-105.31
-93.40
-71.18
-43.15
-14.09
12.37
34.35
51.43
64.01
72.59
77.53
79.19
78.18
75.54
72.45
69.83
67.93
66.23
63.65
59.22
52.58
44.27
35.54
27.69
21.54
16.96
12.88
7.82
0.51
-9.72
-22.64
-37.25
-51.96
-64.87
-74.05
-77.85
-75.37
-66.70
-53.19
-37.08
-21.00
-7.30
2.60
8.45
11.16
12.34
13.80
16.89
22.05
28.72
35.61
41.20
44.35
44.75
42.82
39.48
35.54
31.46
27.28
22.82
17.94
12.80
7.69
2.92
-1.34
-5.26
-9.22
-13.73
-19.31
-26.35
-35.11
-45.53
-57.08
-68.57
-78.19
-83.72
-83.19
-75.57
-61.26
-42.10
-20.82
-0.17
17.82
32.19
42.79
49.85
53.64
54.46
52.79
49.50
45.70
42.45
40.29
39.14
38.32
36.93
34.19
29.73
23.63
16.34
8.53
0.88
-6.19
-12.59
-18.59
-24.74
-31.58
-39.55
-48.79
-59.08
-69.80
-79.77
-87.36
-90.61
-87.87
-78.38
-62.70
-42.72
-21.01
-0.07
18.38
33.59
45.46
54.18
59.89
62.63
62.56
60.26
56.67
52.92
50.00
48.38
47.85
47.66
46.78
44.32
39.88
33.68
26.39
18.89
11.90
5.75
0.37
-4.62
-9.77
-15.69
-23.01
-32.14
-42.99
-54.62
-65.23
-72.51
-74.36
-69.68
-58.82
-43.50
-26.16
-9.16
5.79
17.94
27.25
34.02
38.58
41.14
41.89
41.11
39.22
36.73
34.13
31.69
29.44
27.17
24.61
21.53
17.85
13.65
9.13
4.40
-0.42
-5.35
-10.44
-15.80
-21.60
-28.07
-35.48
-44.08
-53.88
-64.46
-74.78
-83.12
-87.49
-86.07
-77.97
-63.51
-44.32
-22.82
-1.52
17.53
33.15
44.97
53.17
58.20
60.57
60.82
59.55
57.38
54.92
52.63
50.70
49.04
47.25
44.84
41.39
36.71
30.91
24.29
17.17
9.77
2.16
-5.57
-13.22
-20.47
-26.93
-32.50
-37.48
-42.63
-48.82
-56.46
-64.94
-72.39
-76.01
-72.91
-61.32
-41.34
-15.23
13.32
40.36
62.82
79.16
89.38
94.43
95.55
93.82
90.01
84.69
78.29
71.15
63.43
55.11
46.04
36.12
25.45
14.39
3.43
-7.02
-16.72
-25.59
-33.52
-40.22
-45.24
-48.23
-49.19
-48.67
-47.70
-47.31
-48.13
-50.13
-52.70
-54.87
-55.42
-53.07
-46.49
-34.62
-17.17
4.80
28.68
50.90
67.95
77.86
81.00
80.04
78.85
80.83
87.41
97.42
107.57
113.72
112.54
102.54
84.48
60.84
34.81
9.45
-12.87
-30.46
-42.24
-47.69
-47.12
-41.91
-34.54
-28.06
-25.18
-27.29
-34.03
-43.56
-53.58
-62.44
-69.81
-76.56
-84.07
-93.07
-102.92
-111.62
-116.30
-114.36
-104.43
-86.88
-63.79
-38.41
-14.26
5.58
19.14
25.77
26.07
21.48
13.85
4.93
-3.84
-11.45
-17.15
-20.38
-20.68
-17.90
-12.42
-5.21
2.29
8.55
12.40
13.24
11.05
6.20
-0.78
-9.24
-18.44
-27.55
-35.80
-42.74
-48.41
-53.44
-58.65
-64.77
-71.89
-79.31
-85.49
-88.42
-86.18
-77.53
-62.46
-42.44
-19.89
2.40
22.22
38.51
51.33
61.47
69.76
76.70
82.42
86.95
90.51
93.55
96.44
99.17
101.20
101.66
99.78
95.23
88.24
79.43
69.56
59.24
48.98
39.18
30.18
22.08
14.52
6.53
-3.39
-16.74
-34.39
-55.97
-79.52
-101.70
-118.48
-126.17
-122.53
-107.46
-83.08
-53.22
-22.31
5.66
28.04
43.68
52.81
56.51
56.29
53.72
50.22
46.80
43.67
40.13
34.84
26.49
14.83
1.10
-12.05
-21.61
-25.51
-23.50
-17.25
-9.65
-3.49
-0.56
-1.41
-5.62
-12.48
-21.45
-32.22
-44.53
-57.86
-71.29
-83.55
-93.19
-98.93
-99.85
-95.76
-87.18
-75.32
-61.73
-47.88
-34.79
-22.94
-12.56
-3.86
2.68
6.58
7.59
6.22
3.74
2.04
3.06
8.16
17.67
30.78
45.81
60.75
73.84
84.16
91.68
97.11
101.30
104.67
106.77
106.30
101.46
90.54
72.56
47.61
17.11
-16.31
-49.00
-76.89
-96.25
-104.47
-100.84
-86.71
-65.27
-40.69
-17.15
2.15
15.36
22.09
23.00
19.36
12.58
3.99
-5.15
-13.63
-20.16
-23.52
-22.62
-16.99
-7.04
5.81
19.14
30.12
36.17
35.79
29.15
18.10
5.63
-5.24
-12.53
-16.08
-17.66
-20.19
-26.55
-38.39
-55.28
-74.90
-93.76
-108.39
-116.55
-117.86
-113.82
-107.14
-100.75
-96.86
-96.45
-99.17
-103.76
-108.79
-113.07
-116.17
-118.26
-119.78
-120.80
-120.59
-117.36
-108.53
-91.22
-63.23
-24.02
24.35
77.07
127.35
168.25
194.70
205.15
201.85
189.72
174.41
160.13
148.49
138.39
126.97
111.20
89.25
61.39
30.05
-0.86
-27.17
-45.73
-55.30
-56.55
-51.39
-41.87
-29.43
-14.73
1.93
20.09
38.74
56.62
72.69
86.71
99.39
112.10
126.11
141.80
158.06
172.38
181.43
182.09
172.58
153.05
125.55
93.43
60.30
29.19
1.90
-21.21
-41.09
-59.77
-79.64
-102.75
-129.80
-159.38
-188.02
-210.95
-223.79
-224.18
-212.80
-193.08
-169.76
-146.90
-126.53
-108.50
-91.39
-74.02
-56.32
-39.40
-24.71
-13.22
-5.01
0.32
3.12
3.37
1.07
-2.93
-6.45
-6.25
0.60
15.10
35.32
56.71
73.92
82.79
82.01
73.14
59.54
44.72
31.06
19.58
10.53
4.19
1.19
2.34
7.84
16.90
27.85
38.71
48.01
55.21
60.79
65.67
70.77
76.41
82.30
87.56
91.04
91.53
87.94
79.51
66.01
48.04
27.07
5.32
-14.71
-30.96
-42.48
-49.74
-54.42
-58.64
-63.93
-70.59
-77.62
-83.41
-86.60
-86.71
-84.05
-79.24
-72.45
-63.28
-51.23
-36.52
-20.64
-6.13
4.39
9.46
9.45
6.30
2.43
-0.62
-2.92
-5.85
-11.02
-19.07
-28.92
-38.26
-44.75
-47.37
-47.32
-47.54
-51.30
-60.50
-74.49
-90.03
-102.42
-107.00
-100.75
-83.05
-55.72
-22.53
11.69
41.97
64.18
75.96
77.49
71.77
63.91
59.68
63.40
76.36
96.25
118.14
136.32
146.49
146.97
138.73
124.36
106.46
86.71
65.63
43.34
20.46
-1.27
-19.16
-30.26
-32.51
-25.43
-10.48
9.32
30.15
48.36
61.43
68.56
70.80
70.55
70.45
72.16
75.37
77.84
76.26
67.63
50.60
25.94
-3.75
-35.05
-64.64
-89.94
-109.03
-120.58
-123.81
-118.71
-106.38
-89.00
-69.52
-50.76
-34.68
-21.87
-11.59
-2.28
7.88
20.27
35.47
53.05
71.50
88.41
100.81
105.84
101.48
87.34
64.79
36.65
6.30
-23.28
-50.14
-73.52
-93.42
-109.92
-122.70
-131.02
-133.93
-130.73
-121.25
-105.96
-85.95
-62.87
-38.83
-16.11
3.07
17.06
25.26
28.31
28.12
27.33
28.59
33.86
43.69
57.02
71.26
82.90
88.43
85.47
73.55
54.42
31.46
8.53
-11.23
-26.29
-36.64
-43.31
-47.40
-49.46
-49.32
-46.42
-40.32
-31.09
-19.49
-6.72
5.75
16.65
25.05
30.71
34.23
37.16
41.71
50.11
63.59
81.56
101.53
119.68
132.50
138.14
137.29
132.74
127.96
125.33
125.01
124.96
122.03
113.73
99.35
80.18
58.66
37.15
16.98
-1.54
-18.45
-33.35
-45.03
-51.92
-53.08
-48.99
-41.67
-34.04
-28.64
-26.75
-28.10
-31.33
-34.97
-38.23
-41.25
-44.67
-49.03
-54.25
-59.60
-64.06
-66.91
-68.03
-67.71
-66.37
-64.15
-60.88
-56.46
-51.33
-46.81
-44.82
-47.28
-55.29
-68.61
-85.61
-103.85
-120.80
-134.43
-143.57
-147.78
-147.13
-141.82
-132.25
-119.08
-103.48
-87.15
-71.96
-59.52
-50.55
-44.84
-41.30
-38.51
-35.12
-30.14
-23.00
-13.39
-1.09
14.03
32.09
53.01
76.52
102.03
128.53
154.37
177.14
193.81
201.23
197.07
180.80
154.37
121.95
88.99
60.46
39.05
24.33
13.08
0.95
-15.41
-36.78
-61.03
-84.19
-102.35
-113.32
-117.36
-116.90
-115.43
-116.23
-121.25
-130.48
-141.80
-151.40
-154.81
-148.18
-129.64
-100.08
-62.95
-23.22
14.18
45.57
69.07
84.34
91.97
92.87
88.24
79.80
69.79
60.87
55.40
54.67
58.40
64.84
71.29
75.03
74.04
67.38
55.22
38.74
19.56
-0.48
-19.67
-36.67
-50.57
-60.90
-67.57
-70.84
-71.32
-69.72
-66.62
-62.07
-55.47
-45.69
-31.62
-12.75
10.38
36.16
62.33
86.66
107.23
122.68
132.21
135.59
133.33
126.82
118.17
109.55
102.51
97.27
92.66
86.69
77.39
63.77
46.21
26.21
5.79
-13.20
-29.51
-42.49
-51.88
-57.67
-60.06
-59.62
-57.12
-53.23
-48.06
-40.96
-30.59
-15.68
4.25
28.49
55.14
81.78
106.07
126.31
141.35
150.58
153.67
150.63
141.95
128.68
112.27
94.21
75.47
56.31
36.39
15.15
-7.73
-31.95
-56.61
-80.51
-102.53
-121.94
-138.48
-152.27
-163.65
-173.20
-181.65
-189.80
-198.18
-206.64
-214.08
-218.58
-218.03
-211.01
-197.43
-178.40
-155.80
-131.44
-106.59
-81.94
-57.96
-35.23
-14.49
3.65
19.00
31.87
42.84
52.36
60.46
66.87
71.38
74.14
75.70
76.69
77.36
77.34
75.72
71.53
64.18
53.73
40.73
25.85
9.64
-7.35
-24.14
-38.89
-48.97
-51.56
-44.67
-28.17
-3.99
24.54
53.68
80.49
103.39
122.00
136.50
146.98
153.19
154.75
151.45
143.55
131.72
116.78
99.45
80.07
58.77
35.68
11.23
-13.57
-37.26
-58.24
-75.27
-88.02
-97.32
-104.99
-113.33
-124.21
-138.34
-154.78
-171.05
-183.91
-190.24
-187.95
-176.44
-156.59
-130.28
-99.80
-67.33
-34.75
-3.70
24.34
47.96
65.98
77.72
83.25
83.36
79.25
72.17
63.06
52.41
40.44
27.44
14.03
1.15
-10.26
-19.54
-26.68
-32.18
-36.93
-41.86
-47.75
-55.14
-64.09
-74.04
-83.56
-90.49
-92.36
-87.31
-74.83
-56.16
-33.76
-10.34
12.08
32.69
51.44
68.29
82.57
92.91
97.80
96.45
89.38
78.37
65.93
54.51
46.00
41.56
41.86
47.24
57.69
72.54
90.10
107.65
121.82
129.44
128.45
118.57
101.40
79.82
57.23
36.59
19.97
8.32
1.70
-0.38
1.24
5.61
11.69
18.43
24.78
29.77
32.53
32.40
29.09
22.80
14.32
4.90
-3.97
-11.04
-15.58
-17.66
-17.97
-17.50
-17.18
-17.46
-18.30
-19.10
-19.07
-17.52
-14.17
-9.44
-4.32
-0.14
2.00
1.54
-1.24
-5.26
-9.05
-11.12
-10.46
-6.96
-1.60
3.68
6.52
5.12
-0.76
-9.18
-16.34
-17.88
-10.63
5.79
28.74
53.34
74.20
87.27
90.70
84.78
71.17
51.99
29.25
4.89
-18.92
-39.81
-55.39
-64.01
-65.32
-60.64
-52.69
-44.80
-40.03
-40.28
-45.84
-55.56
-67.36
-78.93
-88.33
-94.18
-95.65
-92.27
-83.86
-70.65
-53.40
-33.56
-13.13
5.78
21.39
32.72
39.65
42.73
42.84
40.93
37.82
34.16
30.46
26.93
23.52
19.84
15.33
9.45
1.96
-6.91
-16.51
-26.03
-34.85
-42.77
-50.06
-57.21
-64.63
-72.47
-80.55
-88.54
-96.20
-103.32
-109.49
-113.79
-114.62
-109.89
-97.69
-76.81
-47.22
-9.91
33.22
79.61
125.90
167.91
200.99
220.90
225.09
213.97
191.24
163.23
137.04
118.53
110.48
112.11
119.58
127.66
131.48
128.01
116.67
98.94
77.55
55.41
34.90
17.44
3.46
-7.73
-17.80
-29.11
-43.95
-63.46
-86.69
-110.36
-129.77
-140.33
-139.14
-125.87
-102.47
-72.29
-39.06
-6.12
23.63
47.87
65.02
74.63
77.65
76.28
73.28
71.00
70.58
71.91
73.98
75.71
76.50
76.47
76.22
76.35
77.08
78.03
78.32
76.93
72.92
65.58
54.51
39.71
21.77
2.07
-17.20
-33.47
-44.47
-49.09
-47.88
-42.91
-37.07
-32.99
-32.17
-34.71
-39.59
-45.62
-51.98
-58.62
-65.93
-74.24
-83.24
-91.88
-98.72
-102.63
-103.39
-101.86
-99.67
-98.57
-99.94
-104.34
-111.67
-121.35
-132.63
-144.87
-157.65
-170.97
-184.96
-199.56
-214.10
-227.00
-235.94
-238.34
-232.06
-215.89
-189.72
-154.46
-111.94
-64.93
-17.11
27.35
64.63
92.22
109.75
118.86
122.33
122.84
121.99
120.21
117.21
112.71
106.88
100.21
93.20
86.08
78.83
71.40
63.80
56.04
47.88
38.80
28.08
15.25
0.55
-14.89
-29.17
-40.13
-45.94
-45.61
-39.26
-28.12
-14.30
-0.28
11.59
19.66
23.21
22.53
18.72
13.25
7.66
3.16
0.44
-0.50
-0.18
0.51
0.72
-0.14
-2.16
-5.01
-8.20
-11.36
-14.51
-17.95
-22.21
-27.76
-34.71
-42.70
-50.72
-57.18
-60.07
-57.63
-48.84
-34.04
-15.05
5.26
23.75
37.95
46.63
49.89
48.84
45.06
40.17
35.49
32.03
30.31
30.42
31.98
34.09
35.66
35.53
32.85
27.37
19.61
10.81
2.52
-3.99
-8.32
-11.26
-14.42
-19.47
-27.21
-37.02
-46.99
-54.64
-57.92
-56.06
-49.86
-41.39
-33.27
-27.91
-26.84
-30.49
-38.22
-48.53
-59.48
-69.04
-75.61
-78.36
-77.53
-74.40
-70.97
-69.15
-69.79
-72.12
-73.93
-72.54
-66.42
-56.33
-45.75
-39.73
-42.87
-57.25
-81.23
-109.80
-136.32
-154.71
-161.15
-154.51
-135.94
-107.78
-72.79
-33.93
5.64
42.47
73.28
95.80
109.44
115.60
117.09
117.12
118.13
121.14
125.76
130.60
134.12
135.39
134.29
131.52
127.97
124.31
120.45
115.63
108.68
98.54
84.71
67.44
47.82
27.51
8.49
-7.38
-18.70
-24.84
-26.02
-23.08
-17.10
-9.18
-0.24
8.79
16.86
22.78
25.51
24.66
20.79
15.38
10.24
6.91
6.06
7.37
9.93
12.84
15.70
18.67
22.13
26.11
29.85
31.91
30.47
24.10
12.35
-3.93
-22.57
-40.54
-54.55
-61.73
-60.33
-50.08
-32.23
-9.11
16.56
42.43
66.94
89.32
109.06
125.53
137.75
144.71
146.03
142.21
134.67
125.01
114.35
102.83
89.89
74.97
58.29
41.15
25.65
13.89
7.18
5.49
7.52
11.12
13.95
14.21
11.21
5.72
-0.02
-2.78
0.67
12.64
33.67
62.33
95.59
129.60
160.50
185.01
200.84
206.81
203.01
190.66
171.88
149.17
124.75
100.11
75.83
51.91
28.20
4.81
-17.74
-38.59
-56.81
-71.68
-82.93
-90.78
-96.06
-99.94
-103.51
-107.35
-111.03
-113.13
-111.71
-105.11
-92.73
-75.38
-55.10
-34.51
-16.08
-1.56
8.19
13.06
13.54
10.50
5.12
-1.26
-7.28
-11.99
-15.09
-17.05
-18.78
-21.22
-24.79
-29.23
-33.77
-37.57
-40.19
-41.75
-42.95
-44.67
-47.79
-52.87
-59.87
-68.00
-75.67
-80.74
-81.05
-75.31
-63.61
-47.60
-29.91
-13.33
0.13
9.56
15.12
17.47
17.48
15.99
13.90
12.11
11.50
12.55
15.26
19.03
22.94
26.03
27.60
27.31
25.11
21.22
15.82
9.09
1.04
-8.47
-19.65
-32.57
-46.78
-61.00
-73.11
-80.59
-81.21
-73.79
-58.76
-38.04
-14.55
8.72
29.36
46.01
58.27
66.25
70.24
70.47
67.23
61.14
53.26
44.92
37.34
31.14
26.15
21.53
16.33
10.05
2.94
-4.06
-9.86
-13.78
-15.86
-16.93
-18.30
-21.36
-27.09
-35.81
-46.86
-58.52
-68.31
-73.50
-72.00
-63.04
-47.56
-27.83
-6.71
13.22
30.28
43.73
53.50
59.77
62.67
62.26
58.69
52.35
44.09
34.97
26.19
18.70
12.98
8.86
5.59
2.16
-2.36
-8.35
-15.60
-23.47
-31.16
-38.19
-44.56
-50.72
-57.42
-65.35
-74.86
-85.73
-96.96
-106.82
-113.10
-113.61
-106.83
-92.41
-71.47
-46.37
-20.14
4.21
24.41
39.16
48.18
51.84
50.93
46.29
38.92
29.88
20.41
11.72
4.71
-0.17
-3.12
-4.85
-6.14
-7.48
-8.90
-9.98
-10.21
-9.30
-7.41
-5.05
-2.87
-1.51
-1.43
-3.00
-6.39
-11.57
-17.96
-24.35
-29.02
-30.24
-26.88
-18.96
-7.66
5.16
17.60
28.36
36.83
42.83
46.31
47.17
45.37
41.25
35.64
29.68
24.46
20.70
18.52
17.55
17.12
16.36
14.37
10.43
4.24
-3.88
-12.93
-21.57
-28.63
-33.52
-36.41
-37.99
-39.07
-40.29
-41.92
-43.80
-45.27
-45.26
-42.44
-35.69
-24.61
-9.95
6.46
22.30
35.61
45.43
51.97
56.17
58.93
60.60
60.98
59.68
56.59
52.19
47.29
42.71
38.72
34.90
30.34
24.11
15.70
5.40
-5.81
-16.61
-25.85
-32.95
-38.09
-41.98
-45.62
-49.88
-55.36
-62.28
-70.46
-79.21
-87.22
-92.58
-93.16
-87.26
-74.36
-55.49
-33.09
-10.29
10.06
26.09
37.17
43.66
46.42
46.51
45.06
43.23
42.22
43.08
46.43
52.20
59.55
67.00
72.73
75.09
72.93
66.00
54.91
41.01
25.95
11.28
-2.03
-13.73
-24.18
-34.13
-44.37
-55.45
-67.46
-79.91
-91.52
-100.36
-104.20
-101.13
-90.30
-72.35
-49.33
-24.18
0.12
21.40
38.58
51.55
60.80
66.97
70.56
72.03
71.87
70.70
69.14
67.67
66.51
65.60
64.57
62.96
60.30
56.21
50.49
43.26
34.88
25.91
16.86
7.99
-0.80
-9.87
-19.63
-30.39
-42.18
-54.83
-67.81
-80.17
-90.41
-96.55
-96.55
-89.02
-73.91
-52.77
-28.38
-3.97
17.71
35.13
47.96
56.77
62.39
65.56
66.77
66.38
64.83
62.69
60.63
59.15
58.43
58.27
58.20
57.63
56.06
53.14
48.62
42.41
34.57
25.33
15.16
4.73
-5.30
-14.40
-22.33
-29.26
-35.70
-42.39
-50.02
-58.79
-68.07
-76.29
-81.16
-80.48
-72.95
-58.87
-40.18
-19.94
-1.38
13.02
22.09
25.99
25.79
22.94
18.86
14.59
10.82
7.92
6.08
5.38
5.82
7.27
9.41
11.69
13.53
14.46
14.28
13.16
11.33
8.94
5.77
1.39
-4.68
-12.59
-22.11
-32.66
-43.74
-55.15
-66.96
-79.11
-90.87
-100.61
-105.94
-104.62
-95.46
-78.93
-57.16
-33.23
-10.30
9.23
24.15
34.28
40.18
42.78
43.06
41.94
40.19
38.39
36.90
35.84
35.06
34.23
32.83
30.34
26.40
20.96
14.48
7.78
1.77
-2.86
-5.99
-8.09
-10.03
-12.76
-17.02
-23.15
-31.15
-40.58
-50.65
-59.96
-66.58
-68.41
-63.74
-52.01
-34.24
-12.98
8.45
26.94
40.49
48.58
51.87
51.64
49.15
45.30
40.67
35.69
30.84
26.69
23.74
22.21
21.81
21.78
21.07
18.66
14.00
7.20
-1.03
-9.62
-17.56
-24.34
-30.12
-35.54
-41.33
-47.99
-55.64
-64.13
-73.08
-81.87
-89.49
-94.48
-95.09
-89.82
-78.04
-60.41
-38.88
-16.12
5.30
23.60
38.01
48.69
56.15
60.93
63.34
63.64
62.20
59.62
56.72
54.22
52.49
51.25
49.73
46.93
42.15
35.26
26.89
18.06
9.86
3.06
-2.12
-6.02
-9.36
-12.99
-17.78
-24.33
-32.84
-43.00
-53.75
-63.37
-69.65
-70.40
-64.12
-50.68
-31.53
-9.44
12.33
31.05
45.19
54.79
60.91
64.96
67.95
70.20
71.51
71.50
70.14
67.66
64.53
61.08
57.25
52.64
46.67
38.96
29.58
19.16
8.63
-1.06
-9.32
-16.09
-21.66
-26.51
-31.02
-35.47
-40.14
-45.48
-51.94
-59.63
-67.83
-74.70
-77.73
-74.50
-63.83
-46.34
-24.40
-1.28
19.94
37.24
50.05
58.86
64.65
68.26
70.21
70.72
70.03
68.70
67.51
67.38
68.91
72.11
76.23
79.95
81.75
80.41
75.39
66.99
56.17
44.14
32.03
20.49
9.65
-0.78
-11.25
-22.29
-34.35
-47.75
-62.54
-78.12
-93.12
-105.46
-113.00
-114.31
-109.28
-99.31
-86.74
-74.02
-63.01
-54.61
-48.99
-46.01
-45.48
-47.08
-50.15
-53.43
-55.34
-54.45
-50.04
-42.44
-32.98
-23.41
-15.38
-9.87
-7.06
-6.40
-6.97
-7.94
-8.74
-9.19
-9.39
-9.66
-10.50
-12.51
-16.41
-22.70
-31.31
-41.20
-50.43
-56.49
-57.14
-51.31
-39.46
-23.50
-6.07
10.27
23.67
33.10
38.28
39.45
37.20
32.67
27.24
22.50
19.76
19.67
22.12
26.31
31.04
35.06
37.39
37.52
35.48
31.72
26.91
21.69
16.39
11.01
5.26
-1.19
-8.63
-17.26
-27.04
-37.59
-47.97
-56.54
-61.27
-60.39
-53.14
-40.30
-24.00
-7.03
8.10
19.91
28.01
32.72
34.57
33.90
30.89
25.90
19.66
13.31
7.99
4.39
2.40
1.12
-0.76
-4.38
-10.14
-17.51
-25.20
-31.77
-36.26
-38.65
-39.74
-40.87
-43.35
-47.96
-54.78
-63.06
-71.38
-77.78
-80.17
-76.85
-67.12
-51.56
-32.09
-11.35
8.14
24.63
37.33
46.20
51.60
53.88
53.52
51.21
47.96
44.87
42.87
42.19
42.37
42.45
41.44
38.81
34.62
29.50
24.28
19.70
16.05
13.05
9.95
5.73
-0.70
-10.07
-22.54
-37.37
-52.90
-66.64
-75.84
-78.34
-73.24
-61.28
-44.58
-25.85
-7.49
8.96
22.88
34.11
42.46
47.55
49.12
47.32
43.10
38.01
33.63
31.01
30.25
30.65
31.10
30.66
28.89
25.96
22.42
18.83
15.46
12.10
8.18
2.97
-4.19
-13.68
-25.54
-39.30
-53.85
-67.26
-77.04
-80.64
-76.33
-63.91
-44.99
-22.53
0.13
20.25
36.35
48.20
56.31
61.31
63.55
63.18
60.43
55.95
50.77
46.00
42.35
39.89
37.95
35.51
31.60
25.74
18.03
9.12
-0.11
-8.83
-16.46
-22.85
-28.14
-32.77
-37.37
-42.59
-49.03
-57.06
-66.48
-76.34
-84.80
-89.40
-87.77
-78.50
-61.83
-39.78
-15.66
6.98
25.22
37.48
43.50
44.17
41.05
36.09
31.28
28.38
28.52
32.02
38.31
46.32
54.79
62.73
69.47
74.60
77.81
78.80
77.45
73.87
68.58
62.28
55.62
48.97
42.29
35.23
27.27
17.96
7.00
-5.63
-19.50
-33.68
-46.57
-56.12
-60.18
-57.26
-47.04
-30.79
-11.00
9.29
27.46
42.02
52.66
60.03
65.01
68.30
70.22
70.92
70.58
69.49
67.95
65.93
62.92
57.90
49.72
37.45
20.84
0.54
-21.91
-44.29
-64.32
-80.07
-90.59
-96.11
-97.89
-97.81
-97.68
-98.89
-101.98
-106.62
-111.59
-114.92
-114.18
-106.98
-91.69
-68.05
-37.53
-3.04
31.79
63.58
89.95
109.81
123.17
130.71
133.33
131.87
127.12
119.73
110.34
99.47
87.58
75.01
62.04
49.04
36.37
24.36
13.16
2.71
-7.06
-16.26
-24.86
-32.72
-39.73
-45.93
-51.56
-57.08
-63.07
-70.15
-78.71
-88.69
-99.30
-108.81
-114.88
-115.09
-107.87
-93.09
-72.34
-48.36
-24.16
-2.14
16.39
31.07
42.15
50.08
55.21
57.99
58.95
58.71
57.87
56.73
55.28
53.27
50.42
46.63
41.94
36.49
30.37
23.58
16.19
8.40
0.61
-6.71
-13.24
-18.90
-23.92
-28.82
-34.21
-40.72
-48.86
-58.79
-70.03
-81.25
-90.31
-94.71
-92.46
-82.81
-66.73
-46.62
-25.59
-6.41
9.07
20.20
27.18
30.65
31.26
29.55
26.02
21.28
16.14
11.66
8.89
8.77
11.73
17.61
25.72
35.05
44.60
53.69
61.94
69.10
74.92
78.92
80.64
79.79
76.54
71.52
65.55
59.27
52.75
45.44
36.43
25.02
11.36
-3.19
-16.26
-25.12
-27.67
-23.34
-13.32
-0.28
12.67
22.78
28.40
29.07
25.22
17.81
8.03
-2.78
-13.22
-21.88
-27.66
-30.03
-29.16
-25.87
-21.29
-16.44
-11.96
-8.02
-4.50
-1.30
1.39
3.16
3.62
2.66
0.61
-1.88
-4.23
-6.38
-8.87
-12.72
-19.05
-28.53
-41.07
-55.58
-69.99
-81.47
-86.94
-83.80
-70.85
-48.84
-20.40
10.60
40.31
65.94
86.22
101.15
111.22
116.75
117.60
113.47
104.47
91.40
75.62
58.56
41.20
23.77
6.05
-12.26
-31.03
-49.67
-67.25
-82.96
-96.44
-107.86
-117.84
-127.06
-135.93
-144.45
-152.24
-158.78
-163.56
-166.27
-166.54
-163.87
-157.37
-146.03
-129.11
-106.78
-80.40
-52.38
-25.59
-2.43
15.83
29.29
39.02
46.55
53.25
60.08
67.64
76.35
86.72
99.17
113.94
130.61
148.08
164.55
178.09
187.16
191.00
189.75
184.16
175.02
162.87
147.78
129.59
108.27
84.12
57.86
30.53
3.41
-21.88
-43.27
-58.38
-64.94
-61.65
-48.85
-28.88
-5.55
16.81
34.60
45.74
49.91
48.04
41.59
31.97
20.19
7.09
-6.59
-19.89
-31.47
-39.83
-43.48
-41.50
-34.05
-22.60
-9.73
1.60
8.97
11.39
9.32
4.33
-1.79
-7.85
-13.62
-19.73
-27.19
-36.85
-48.91
-62.77
-76.89
-89.13
-97.17
-99.18
-94.35
-83.16
-67.12
-48.33
-28.79
-9.97
7.16
22.08
34.41
43.87
50.32
54.04
55.78
56.64
57.76
59.76
62.42
64.69
65.02
62.10
55.47
45.81
34.63
23.57
13.72
5.19
-2.69
-10.94
-20.45
-31.59
-44.15
-57.31
-69.62
-79.17
-83.85
-81.90
-72.69
-57.09
-37.54
-17.35
0.26
13.04
20.13
21.79
18.98
12.67
3.73
-6.97
-18.36
-29.12
-37.82
-43.37
-45.42
-44.51
-41.99
-39.51
-38.60
-40.31
-44.99
-52.41
-61.94
-72.75
-84.13
-95.69
-107.51
-120.05
-133.85
-148.92
-164.32
-178.07
-187.65
-190.83
-186.43
-174.79
-157.48
-136.71
-114.49
-92.05
-69.71
-47.08
-23.50
1.55
28.28
56.52
85.78
115.21
143.58
169.33
190.79
206.67
216.37
220.27
219.49
215.35
208.62
199.09
185.60
166.59
140.94
108.58
70.61
29.12
-13.34
-54.08
-90.50
-120.26
-141.54
-153.40
-156.11
-151.10
-140.61
-126.91
-111.58
-95.17
-77.43
-57.92
-36.73
-14.83
6.04
24.00
37.66
46.59
51.35
53.05
52.83
51.36
48.64
44.32
38.03
29.87
20.52
11.02
2.37
-4.96
-11.15
-16.98
-23.52
-31.82
-42.59
-55.94
-71.14
-86.51
-99.58
-107.64
-108.53
-101.40
-87.13
-67.97
-46.71
-25.85
-6.97
9.21
22.45
32.58
39.38
42.79
43.23
41.71
39.62
38.31
38.55
40.38
43.19
46.10
48.22
49.00
48.20
45.91
42.50
38.47
34.34
30.49
26.99
23.58
19.72
14.77
8.14
-0.50
-11.10
-23.06
-34.99
-44.73
-49.63
-47.12
-35.67
-15.52
11.09
40.34
67.90
90.16
105.08
112.41
113.30
109.58
103.13
95.66
88.60
83.15
80.10
79.55
80.81
82.38
82.51
79.77
73.60
64.43
53.46
41.99
30.95
20.56
10.45
0.03
-11.18
-23.31
-36.20
-49.54
-63.13
-76.83
-90.26
-102.48
-111.88
-116.44
-114.47
-105.46
-90.34
-71.28
-50.88
-31.07
-12.66
4.71
21.86
39.27
56.55
72.50
85.52
94.25
97.99
96.74
91.11
82.05
70.58
57.57
43.69
29.42
15.19
1.53
-10.92
-21.45
-29.54
-35.12
-38.65
-40.91
-42.78
-44.94
-47.78
-51.49
-56.12
-61.49
-66.96
-71.13
-72.04
-67.71
-56.90
-39.78
-18.09
5.43
27.97
47.48
63.04
74.62
82.56
87.13
88.45
86.71
82.50
76.86
71.06
66.17
62.64
60.25
58.26
55.74
51.88
46.25
38.81
29.96
20.35
10.73
1.73
-6.39
-13.85
-21.19
-29.14
-38.26
-48.71
-60.04
-71.27
-80.95
-87.40
-89.10
-85.00
-74.97
-59.90
-41.61
-22.36
-4.23
11.44
24.25
34.53
42.87
49.67
54.91
58.35
59.74
59.11
56.78
53.25
48.98
44.25
39.18
33.77
28.00
21.78
15.02
7.65
-0.29
-8.58
-16.90
-24.89
-32.40
-39.51
-46.54
-53.94
-62.13
-71.37
-81.55
-92.00
-101.32
-107.44
-108.09
-101.48
-87.01
-65.70
-40.06
-13.35
11.40
32.18
48.19
59.70
67.35
71.76
73.34
72.39
69.37
64.97
59.96
54.84
49.73
44.28
38.02
30.67
22.40
13.76
5.43
-2.12
-8.79
-14.89
-20.90
-27.21
-33.92
-40.85
-47.61
-53.73
-58.89
-62.99
-66.28
-69.28
-72.46
-75.80
-78.42
-78.53
-73.89
-62.81
-44.95
-21.85
3.49
27.57
47.53
61.91
70.65
74.79
75.74
74.84
73.24
71.84
71.26
71.80
73.34
75.33
76.90
76.92
74.20
67.78
57.17
42.68
25.57
7.80
-8.51
-21.76
-31.34
-37.69
-41.98
-45.45
-49.05
-53.29
-58.41
-64.64
-72.21
-81.04
-90.21
-97.77
-101.06
-97.53
-85.89
-66.81
-42.90
-17.89
4.69
22.57
35.27
43.70
49.41
53.71
57.15
59.54
60.37
59.34
56.79
53.93
52.65
54.86
61.78
73.15
87.03
100.26
109.41
111.75
106.02
92.48
72.56
48.27
21.76
-4.92
-29.92
-51.74
-69.61
-83.67
-94.92
-104.67
-113.69
-121.62
-127.00
-127.95
-123.19
-112.74
-98.04
-81.19
-64.08
-47.70
-32.13
-17.01
-2.27
11.49
23.16
31.57
36.11
36.98
35.15
31.95
28.57
25.86
24.15
23.42
23.35
23.33
22.49
19.84
14.75
7.31
-1.24
-8.80
-13.14
-13.01
-8.92
-3.32
0.18
-1.91
-11.85
-29.90
-54.33
-81.81
-108.00
-128.20
-138.23
-135.47
-119.85
-94.25
-63.96
-35.01
-12.22
2.34
9.57
12.34
13.77
15.82
18.81
21.96
24.37
25.75
26.53
27.34
28.46
29.45
29.42
27.56
23.69
18.53
13.48
10.02
9.06
10.45
13.05
15.21
15.47
13.03
7.99
1.05
-6.95
-15.26
-23.22
-30.03
-34.47
-35.07
-30.45
-20.00
-4.30
14.97
35.36
54.35
69.91
80.83
86.78
88.19
86.01
81.34
75.29
68.68
62.05
55.67
49.68
44.14
39.06
34.28
29.33
23.44
15.79
5.89
-6.07
-19.10
-31.73
-42.49
-50.57
-56.02
-59.74
-63.02
-67.01
-72.49
-79.74
-88.65
-98.51
-107.89
-114.48
-115.50
-108.61
-92.91
-69.60
-41.80
-13.52
11.73
31.90
46.66
56.82
63.49
67.44
68.97
68.25
65.58
61.69
57.47
53.65
50.59
48.17
45.89
43.15
39.52
34.76
28.94
22.26
15.01
7.48
-0.11
-7.59
-14.85
-21.78
-28.34
-34.57
-40.76
-47.48
-55.47
-65.18
-76.12
-86.56
-93.67
-94.42
-86.73
-70.56
-48.03
-22.80
1.28
21.43
36.53
46.96
53.77
58.04
60.35
60.96
59.98
57.76
54.88
51.93
49.34
47.19
45.17
42.74
39.42
34.91
29.25
22.73
15.78
8.84
2.20
-3.93
-9.45
-14.35
-18.67
-22.68
-26.81
-31.70
-38.00
-46.03
-55.44
-64.90
-72.20
-74.72
-70.37
-58.47
-40.18
-18.35
3.43
22.06
35.81
44.59
49.45
51.71
52.31
51.59
49.55
46.28
42.21
38.08
34.63
32.26
30.87
29.89
28.61
26.35
22.83
18.12
12.58
6.60
0.45
-5.82
-12.30
-19.03
-25.98
-32.98
-39.94
-47.00
-54.63
-63.39
-73.46
-84.17
-93.73
-99.53
-98.93
-90.35
-74.10
-52.43
-28.89
-7.08
10.42
22.55
29.62
32.61
32.52
30.06
25.82
20.50
15.01
10.30
7.05
5.40
4.96
5.10
5.21
4.91
4.01
2.47
0.23
-2.69
-6.17
-9.89
-13.46
-16.45
-18.62
-19.88
-20.32
-20.24
-20.05
-20.36
-21.71
-24.34
-27.74
-30.56
-30.80
-26.46
-16.37
-0.80
18.48
38.78
57.35
72.23
82.71
89.14
92.42
93.46
92.84
90.79
87.46
83.26
78.89
75.13
72.50
70.98
70.01
68.78
66.60
63.19
58.76
53.80
48.84
44.14
39.64
35.08
30.16
24.72
18.85
12.70
6.33
-0.34
-7.38
-14.55
-20.96
-25.05
-24.97
-19.38
-8.17
7.26
24.36
40.32
52.92
61.08
64.81
64.75
61.72
56.50
49.85
42.63
35.81
30.25
26.50
24.53
23.80
23.42
22.56
20.61
17.39
13.06
8.07
2.92
-1.96
-6.38
-10.29
-13.88
-17.46
-21.57
-26.89
-34.11
-43.61
-55.01
-66.99
-77.35
-83.67
-84.05
-77.85
-65.96
-50.47
-34.00
-18.86
-6.64
2.06
7.34
9.67
9.64
7.77
4.65
0.97
-2.47
-4.83
-5.57
-4.58
-2.39
0.04
1.56
1.22
-1.52
-6.63
-13.74
-22.23
-31.58
-41.49
-51.89
-62.83
-74.32
-86.32
-98.66
-111.16
-123.45
-134.76
-143.85
-149.12
-149.12
-143.24
-132.11
-117.63
-102.40
-88.78
-78.23
-70.95
-66.27
-63.23
-61.07
-59.39
-57.90
-56.17
-53.48
-49.05
-42.42
-33.72
-23.81
-13.94
-5.35
1.27
6.04
9.85
13.79
18.78
25.08
32.12
38.75
43.61
45.54
43.89
38.71
30.79
21.58
13.11
7.58
6.92
12.18
23.01
37.63
53.24
66.93
76.49
81.00
80.66
76.36
69.11
59.75
49.09
38.15
28.30
20.91
16.85
15.95
17.03
18.24
17.93
15.27
10.56
4.89
-0.43
-4.46
-6.93
-8.30
-9.40
-11.20
-14.44
-19.56
-26.64
-35.34
-44.79
-53.55
-59.70
-61.13
-56.27
-44.70
-27.48
-7.08
13.37
31.05
44.17
52.20
55.63
55.34
52.26
47.15
40.79
34.13
28.25
24.06
21.93
21.50
21.71
21.22
18.94
14.46
8.17
1.01
-5.97
-12.06
-17.17
-21.80
-26.65
-32.35
-39.16
-46.98
-55.53
-64.25
-72.24
-78.11
-80.13
-76.65
-66.87
-51.34
-32.11
-12.16
5.51
18.82
27.11
30.93
31.55
30.28
28.11
25.69
23.53
22.23
22.33
24.13
27.29
30.86
33.45
33.78
31.24
26.14
19.58
12.98
7.45
3.34
0.17
-3.20
-8.03
-15.21
-24.81
-35.87
-46.59
-54.63
-57.74
-54.43
-44.54
-29.33
-11.21
6.99
22.84
34.82
42.45
46.00
46.07
43.29
38.38
32.27
26.11
21.15
18.30
17.77
18.96
20.67
21.62
20.93
18.38
14.30
9.31
4.05
-1.02
-5.72
-10.19
-14.80
-20.12
-26.68
-34.73
-43.84
-52.69
-59.11
-60.66
-55.54
-43.34
-25.48
-4.78
15.43
32.48
45.01
53.01
57.28
58.66
57.64
54.35
49.07
42.65
36.47
31.95
29.91
30.02
30.91
30.72
27.99
22.26
14.21
5.24
-3.20
-10.22
-15.79
-20.64
-25.89
-32.68
-41.70
-52.89
-65.11
-76.18
-83.34
-83.99
-76.73
-61.92
-41.70
-19.33
1.99
20.02
33.88
43.82
50.49
54.39
55.68
54.41
50.93
46.08
41.12
37.34
35.47
35.47
36.35
36.64
34.89
30.27
22.92
13.91
4.71
-3.39
-9.83
-14.94
-19.71
-25.25
-32.38
-41.41
-52.05
-63.47
-74.24
-82.42
-85.82
-82.57
-71.86
-54.42
-32.51
-9.31
12.08
29.57
42.36
50.77
55.69
58.00
58.29
56.95
54.27
50.63
46.54
42.56
39.11
36.37
34.19
32.17
29.79
26.64
22.54
17.62
12.27
6.91
1.84
-2.94
-7.65
-12.64
-18.15
-24.26
-30.97
-38.40
-46.84
-56.52
-67.22
-77.83
-86.19
-89.52
-85.32
-72.44
-51.79
-26.28
0.09
23.48
41.34
52.97
59.13
61.32
61.04
59.32
56.80
53.99
51.36
49.34
48.15
47.65
47.32
46.55
44.89
42.24
38.74
34.65
30.13
25.20
19.77
13.81
7.44
0.92
-5.45
-11.40
-16.95
-22.42
-28.35
-35.41
-44.06
-54.09
-64.49
-73.30
-78.12
-76.81
-68.28
-53.02
-33.05
-11.25
9.55
27.44
41.69
52.47
60.30
65.46
68.02
68.00
65.91
62.69
59.57
57.45
56.50
56.12
55.38
53.56
50.54
46.77
42.91
39.27
35.60
31.16
25.22
17.43
8.12
-1.83
-11.37
-19.70
-26.42
-31.72
-36.22
-40.88
-46.88
-55.26
-66.34
-79.28
-91.79
-100.60
-102.42
-95.28
-79.30
-56.84
-31.66
-7.55
12.84
28.53
39.92
48.01
53.57
56.85
57.77
56.42
53.39
49.79
46.80
45.10
44.61
44.55
43.86
41.73
37.92
32.76
26.92
21.09
15.77
11.12
7.00
2.95
-1.54
-6.92
-13.22
-20.10
-26.79
-32.53
-36.93
-40.24
-43.24
-46.95
-52.16
-59.17
-67.69
-76.72
-84.73
-89.74
-89.72
-83.06
-69.31
-49.47
-25.97
-1.91
19.94
37.97
51.89
62.34
70.07
75.37
78.05
77.93
75.36
71.48
67.81
65.61
65.22
65.94
66.33
64.93
60.98
54.62
46.84
38.89
31.80
25.94
20.98
16.12
10.57
3.93
-3.60
-11.40
-18.72
-25.13
-30.60
-35.54
-40.42
-45.73
-51.80
-58.95
-67.36
-76.91
-86.81
-95.33
-100.10
-98.76
-89.94
-73.97
-52.97
-30.10
-8.54
9.50
23.20
32.82
39.22
43.14
45.11
45.41
44.50
42.99
41.60
40.85
40.82
41.11
40.95
39.68
36.91
32.80
27.96
23.24
19.40
16.79
15.15
13.63
11.18
6.94
0.73
-6.78
-14.35
-20.70
-25.14
-27.95
-30.18
-33.27
-38.36
-45.83
-55.08
-64.68
-72.60
-76.61
-74.72
-65.83
-50.09
-29.22
-6.08
16.14
34.81
48.60
57.47
62.28
64.08
63.73
61.75
58.60
54.94
51.62
49.43
48.72
49.17
49.83
49.55
47.44
43.30
37.78
32.03
27.24
23.98
21.98
20.14
17.04
11.68
3.89
-5.55
-15.33
-24.20
-31.45
-37.12
-41.93
-46.85
-52.79
-60.35
-69.63
-79.99
-89.97
-97.39
-99.82
-95.32
-83.32
-65.00
-43.10
-21.03
-1.75
13.04
23.10
29.19
32.47
33.84
33.92
33.11
31.93
31.04
31.04
32.13
33.96
35.69
36.34
35.23
32.27
28.03
23.42
19.29
16.06
13.58
11.21
8.20
4.09
-1.20
-7.25
-13.42
-19.11
-23.98
-28.09
-31.81
-35.77
-40.61
-46.89
-54.94
-64.56
-74.91
-84.34
-90.58
-91.30
-84.90
-71.22
-51.88
-29.84
-8.49
9.49
22.76
31.38
36.33
38.72
39.32
38.56
36.83
34.81
33.37
33.32
34.80
37.24
39.51
40.46
39.48
36.75
33.08
29.45
26.56
24.52
22.81
20.53
16.86
11.43
4.54
-2.82
-9.40
-14.19
-16.88
-18.05
-18.91
-20.77
-24.47
-30.07
-36.75
-43.00
-46.94
-46.60
-40.38
-27.54
-8.56
14.72
39.49
62.73
82.18
96.86
107.13
114.11
118.99
122.57
125.34
127.78
130.59
134.71
140.88
149.24
159.05
169.05
177.92
184.95
190.23
194.38
197.97
201.02
202.63
201.18
194.65
180.97
158.25
124.93
80.23
24.89
-38.28
-104.27
-166.92
-220.57
-261.72
-289.69
-305.93
-312.43
-310.34
-299.58
-279.58
-250.61
-214.56
-174.64
-134.25
-95.73
-59.71
-25.51
7.93
41.20
74.00
105.32
133.68
157.42
174.93
184.92
186.80
181.01
169.11
153.33
135.80
117.95
100.17
82.30
64.24
46.59
30.57
17.39
7.46
-0.12
-7.21
-15.90
-27.58
-42.52
-59.84
-77.92
-94.80
-108.54
-117.47
-120.43
-117.20
-108.68
-96.98
-84.81
-74.65
-67.89
-64.44
-63.09
-62.33
-61.29
-60.13
-59.77
-60.99
-63.78
-67.06
-69.29
-69.50
-68.03
-66.69
-67.80
-72.87
-81.60
-91.66
-99.74
-102.97
-100.27
-92.70
-82.95
-74.05
-68.03
-65.43
-65.38
-66.22
-66.28
-64.29
-59.41
-51.18
-39.42
-24.36
-6.92
11.40
28.75
43.57
55.05
63.21
68.55
71.45
71.76
68.76
61.75
50.74
37.02
22.98
11.21
3.32
-0.98
-3.96
-8.98
-18.85
-34.52
-54.60
-75.97
-95.35
-110.64
-121.85
-130.74
-139.86
-151.31
-166.03
-183.72
-203.18
-222.78
-240.64
-254.77
-263.05
-263.49
-254.73
-236.56
-210.21
-178.21
-143.80
-110.22
-79.91
-54.24
-33.41
-16.84
-3.52
7.69
17.80
27.44
36.82
45.56
52.85
57.76
59.61
58.36
54.68
49.77
44.81
40.52
36.83
33.08
28.34
21.81
13.11
2.32
-10.00
-22.74
-34.22
-42.32
-44.94
-40.67
-29.51
-13.05
5.96
24.47
40.14
51.81
59.36
63.22
64.05
62.53
59.69
56.93
55.71
56.99
60.51
64.81
67.74
67.51
63.65
57.31
50.74
46.26
45.29
47.86
52.85
58.60
63.50
66.36
66.44
63.47
57.74
50.31
42.99
38.01
37.31
41.76
50.80
62.70
75.29
86.82
96.33
103.54
108.29
110.14
108.36
102.36
92.19
78.87
64.16
49.97
37.66
27.60
19.23
11.51
3.44
-5.55
-15.59
-26.55
-38.28
-50.73
-63.95
-78.06
-93.21
-109.47
-126.63
-143.90
-159.68
-171.70
-177.47
-175.21
-164.56
-146.78
-124.42
-100.38
-77.05
-55.83
-37.15
-20.81
-6.50
6.03
16.80
25.86
33.43
39.94
45.97
51.99
58.06
63.73
68.15
70.40
69.98
67.04
62.40
57.31
52.99
50.33
49.67
50.92
53.53
56.58
58.75
58.49
54.50
46.30
34.89
22.70
13.02
8.82
11.53
20.53
33.46
47.29
59.55
69.01
75.65
79.98
82.35
82.65
80.52
75.88
69.34
62.10
55.64
51.04
48.54
47.48
46.61
44.67
40.83
35.01
27.78
20.10
12.83
6.38
0.64
-4.92
-10.87
-17.62
-25.26
-33.73
-42.81
-52.22
-61.33
-69.10
-73.97
-74.27
-68.78
-57.28
-40.84
-21.56
-1.97
15.79
30.48
41.75
49.92
55.52
58.91
60.27
59.82
57.92
55.15
52.18
49.52
47.38
45.66
44.04
42.14
39.61
36.21
31.79
26.30
19.89
12.87
5.69
-1.16
-7.38
-12.88
-17.92
-22.93
-28.48
-35.09
-43.16
-52.75
-63.41
-73.92
-82.37
-86.52
-84.48
-75.39
-59.95
-40.18
-18.84
1.51
19.18
33.63
45.13
54.16
61.04
65.70
68.02
68.14
66.66
64.49
62.51
61.18
60.36
59.47
57.75
54.74
50.40
45.10
39.43
33.84
28.47
23.12
17.42
11.12
4.27
-2.76
-9.42
-15.25
-20.05
-24.04
-27.76
-31.99
-37.59
-45.17
-54.78
-65.71
-76.23
-83.98
-86.55
-82.37
-71.36
-54.99
-35.77
-16.23
1.88
17.84
31.73
43.75
53.78
61.30
65.74
66.97
65.53
62.60
59.48
57.18
56.01
55.65
55.42
54.57
52.63
49.46
45.32
40.66
35.94
31.40
26.98
22.37
17.20
11.27
4.77
-1.78
-7.77
-12.73
-16.65
-19.92
-23.17
-26.97
-31.68
-37.43
-44.21
-51.87
-59.98
-67.64
-73.34
-75.29
-71.99
-62.86
-48.58
-30.99
-12.44
4.97
19.89
31.81
40.75
46.86
50.23
51.01
49.62
46.94
44.07
42.04
41.32
41.71
42.36
42.26
40.69
37.51
33.21
28.68
24.67
21.50
18.83
15.86
11.82
6.42
0.09
-6.16
-11.29
-14.79
-16.92
-18.64
-21.13
-25.22
-31.16
-38.58
-46.59
-54.00
-59.42
-61.41
-58.78
-50.97
-38.33
-22.29
-4.95
11.49
25.33
35.71
42.59
46.38
47.62
46.83
44.53
41.39
38.21
35.75
34.50
34.39
34.86
34.99
33.94
31.30
27.25
22.52
17.97
14.26
11.49
9.21
6.63
3.05
-1.81
-7.59
-13.49
-18.61
-22.35
-24.79
-26.63
-28.97
-32.88
-38.93
-46.90
-55.68
-63.50
-68.28
-68.27
-62.55
-51.37
-36.14
-18.96
-2.07
12.87
25.04
34.46
41.66
47.17
51.26
53.88
54.92
54.42
52.67
50.12
47.19
44.02
40.47
36.26
31.28
25.71
20.08
15.06
11.11
8.25
5.97
3.32
-0.60
-6.37
-13.87
-22.36
-30.74
-37.98
-43.53
-47.55
-50.73
-53.97
-58.00
-63.10
-69.00
-74.86
-79.38
-81.00
-78.22
-70.08
-56.59
-38.97
-19.41
-0.49
15.63
27.80
35.96
40.83
43.25
43.79
42.67
40.00
36.18
31.97
28.32
25.91
24.86
24.58
24.18
22.93
20.68
17.81
14.97
12.66
10.96
9.57
8.03
5.99
3.34
0.19
-3.24
-6.71
-10.07
-13.27
-16.33
-19.45
-22.96
-27.24
-32.57
-38.84
-45.47
-51.35
-55.04
-55.12
-50.68
-41.62
-28.84
-13.98
1.00
14.39
25.18
33.16
38.59
41.95
43.58
43.67
42.41
40.19
37.63
35.45
34.15
33.75
33.77
33.46
32.18
29.70
26.34
22.70
19.40
16.68
14.32
11.79
8.62
4.66
0.18
-4.25
-8.13
-11.22
-13.68
-15.94
-18.45
-21.62
-25.69
-30.70
-36.33
-41.77
-45.65
-46.33
-42.50
-33.80
-21.16
-6.67
7.15
18.22
25.48
29.03
29.72
28.56
26.39
23.76
21.16
19.07
18.00
18.17
19.35
20.85
21.77
21.40
19.55
16.57
13.14
9.87
7.05
4.58
2.21
-0.28
-2.96
-5.70
-8.33
-10.73
-12.90
-15.00
-17.23
-19.89
-23.31
-27.62
-32.64
-37.62
-41.28
-42.04
-38.71
-30.95
-19.55
-6.35
6.45
16.94
23.97
27.38
27.67
25.71
22.38
18.46
14.65
11.52
9.44
8.52
8.49
8.84
8.92
8.29
6.75
4.40
1.47
-1.92
-5.62
-9.60
-13.68
-17.64
-21.26
-24.45
-27.32
-30.09
-33.12
-36.69
-41.02
-46.18
-51.90
-57.45
-61.54
-62.55
-59.07
-50.50
-37.50
-21.91
-6.19
7.42
17.61
24.17
27.75
29.33
29.74
29.51
28.84
27.84
26.71
25.77
25.29
25.40
25.92
26.39
26.20
24.80
21.96
17.88
13.12
8.37
4.19
0.79
-2.03
-4.68
-7.58
-10.97
-14.91
-19.35
-24.29
-29.63
-35.10
-39.98
-43.03
-42.77
-38.03
-28.55
-15.26
-0.14
14.45
26.51
34.98
39.90
42.07
42.45
41.73
40.18
37.77
34.56
30.90
27.48
25.08
24.26
24.98
26.54
27.73
27.20
23.90
17.49
8.41
-2.30
-13.36
-23.69
-32.63
-39.93
-45.64
-49.98
-53.24
-55.83
-58.13
-60.34
-62.17
-62.77
-60.94
-55.56
-46.23
-33.55
-19.05
-4.68
7.87
17.53
24.12
27.95
29.58
29.54
28.23
26.03
23.42
20.95
19.20
18.48
18.80
19.75
20.65
20.78
19.62
16.97
13.06
8.42
3.73
-0.45
-3.82
-6.41
-8.57
-10.82
-13.66
-17.43
-22.26
-27.94
-33.98
-39.49
-43.26
-44.00
-40.70
-33.14
-22.11
-9.21
3.53
14.42
22.54
27.81
30.68
31.71
31.30
29.63
26.93
23.60
20.30
17.67
16.17
15.83
16.23
16.70
16.50
15.20
12.72
9.38
5.67
2.04
-1.34
-4.54
-7.78
-11.20
-14.74
-18.25
-21.63
-25.06
-28.82
-33.06
-37.38
-40.74
-41.72
-39.02
-32.18
-21.83
-9.54
2.74
13.30
21.14
26.08
28.45
28.76
27.45
24.89
21.50
17.87
14.69
12.58
11.82
12.20
13.05
13.46
12.67
10.25
6.31
1.40
-3.70
-8.23
-11.74
-14.14
-15.75
-17.07
-18.66
-20.94
-24.18
-28.43
-33.46
-38.61
-42.76
-44.50
-42.48
-35.99
-25.38
-12.10
1.65
13.76
22.74
28.20
30.58
30.77
29.57
27.46
24.62
21.21
17.61
14.35
11.97
10.70
10.29
10.08
9.21
7.06
3.44
-1.30
-6.50
-11.41
-15.53
-18.65
-20.83
-22.26
-23.15
-23.75
-24.37
-25.42
-27.24
-29.78
-32.42
-33.84
-32.41
-26.78
-16.46
-2.19
14.25
30.60
44.80
55.57
62.54
66.04
66.69
65.13
61.85
57.29
51.87
46.04
40.22
34.66
29.44
24.51
19.79
15.25
10.86
6.60
2.37
-2.06
-6.87
-12.14
-17.75
-23.39
-28.65
-33.26
-37.18
-40.58
-43.84
-47.38
-51.55
-56.54
-62.21
-67.92
-72.45
-74.15
-71.41
-63.31
-50.14
-33.57
-16.18
-0.56
11.47
19.40
23.82
25.85
26.49
26.18
24.98
22.86
20.09
17.22
14.95
13.68
13.32
13.42
13.42
13.07
12.50
12.14
12.28
12.81
13.19
12.69
10.79
7.52
3.43
-0.73
-4.26
-6.90
-8.86
-10.73
-13.26
-17.13
-22.74
-29.89
-37.74
-44.74
-48.96
-48.72
-43.15
-32.71
-19.01
-4.33
9.10
19.80
27.27
31.79
34.11
34.98
34.99
34.58
34.09
33.87
34.19
35.16
36.62
38.13
39.10
38.99
37.59
35.06
31.82
28.33
24.79
21.01
16.62
11.30
5.11
-1.45
-7.72
-13.19
-17.82
-22.06
-26.59
-32.02
-38.55
-45.91
-53.24
-59.23
-62.32
-61.15
-54.93
-43.92
-29.51
-13.86
0.72
12.52
20.82
25.88
28.50
29.47
29.26
28.03
25.84
23.01
20.11
17.83
16.55
16.07
15.63
14.28
11.37
6.94
1.75
-3.18
-7.06
-9.74
-11.73
-13.80
-16.52
-19.89
-23.44
-26.54
-28.84
-30.47
-32.04
-34.27
-37.68
-42.41
-48.22
-54.53
-60.53
-65.20
-67.43
-66.16
-60.79
-51.46
-39.18
-25.62
-12.53
-1.28
7.53
14.08
18.89
22.57
25.52
27.97
30.07
32.02
34.16
36.85
40.29
44.45
48.99
53.51
57.66
61.29
64.48
67.40
70.16
72.58
74.20
74.37
72.53
68.49
62.48
55.21
47.54
40.15
33.28
26.65
19.64
11.54
1.93
-9.04
-20.56
-31.31
-39.72
-44.36
-44.31
-39.43
-30.45
-18.84
-6.46
4.95
14.19
20.83
25.12
27.65
29.03
29.65
29.67
29.23
28.58
28.13
28.34
29.47
31.48
34.07
37.02
40.27
43.95
48.00
51.82
54.17
53.51
48.82
40.20
29.06
17.63
8.13
1.92
-0.82
-0.82
0.86
3.31
5.92
8.32
10.28
11.78
13.22
15.56
20.03
27.64
38.70
52.43
67.31
81.60
93.92
103.68
110.98
116.38
120.57
124.19
127.76
131.72
136.36
141.69
147.31
152.55
156.53
158.44
157.79
154.44
148.56
140.55
130.85
119.71
107.30
93.67
79.03
63.96
49.43
36.59
26.35
18.98
13.83
9.53
4.33
-3.24
-13.86
-27.15
-41.60
-54.94
-64.65
-68.60
-65.85
-57.02
-44.21
-30.40
-18.55
-10.78
-8.09
-10.53
-17.70
-28.96
-43.54
-60.25
-77.41
-93.17
-106.01
-115.40
-122.00
-127.18
-132.26
-137.78
-143.30
-147.77
-150.19
-150.18
-148.09
-144.74
-140.95
-137.29
-134.02
-131.23
-128.96
-127.13
-125.49
-123.55
-120.76
-116.83
-111.89
-106.57
-101.76
-98.33
-96.85
-97.40
-99.54
-102.43
-104.94
-106.12
-105.43
-103.12
-100.03
-97.28
-95.67
-95.21
-94.89
-92.90
-87.09
-75.65
-57.81
-34.39
-7.92
17.66
37.91
49.01
48.89
37.75
17.79
-7.57
-34.54
-59.53
-79.40
-91.45
-93.78
-85.92
-69.37
-47.67
-25.69
-8.22
1.49
2.38
-4.59
-17.24
-32.95
-48.87
-61.93
-68.95
-67.40
-56.51
-38.00
-15.86
5.00
20.66
29.62
32.99
33.41
33.25
33.32
32.51
28.64
19.68
4.83
-15.01
-37.46
-59.25
-76.86
-87.31
-88.63
-80.15
-62.76
-38.87
-12.06
13.58
34.39
48.28
55.41
58.11
59.92
64.01
71.59
81.28
89.77
93.39
89.98
80.01
66.38
53.01
42.99
37.27
34.58
32.50
29.04
23.81
17.97
13.24
10.49
8.98
6.69
1.73
-6.29
-15.63
-23.25
-26.77
-26.18
-24.26
-25.45
-33.44
-49.17
-70.36
-92.78
-112.43
-127.29
-137.79
-145.64
-152.27
-157.76
-160.94
-160.46
-155.88
-148.08
-138.88
-129.91
-122.01
-115.20
-109.34
-104.80
-102.80
-104.97
-112.63
-126.13
-144.60
-166.11
-188.12
-207.84
-222.55
-229.91
-228.36
-217.45
-197.93
-171.51
-140.27
-106.20
-70.92
-35.95
-2.98
26.08
49.48
66.23
76.57
81.77
83.66
83.85
83.26
82.29
81.15
80.32
80.47
82.22
85.75
90.51
95.38
99.02
100.17
97.92
91.79
81.78
68.58
53.58
38.94
27.21
20.76
21.03
28.04
40.42
55.70
71.19
84.64
94.80
101.36
104.72
105.48
104.19
101.27
97.13
92.36
87.57
83.28
79.58
76.08
72.01
66.69
59.90
51.95
43.61
35.62
28.43
22.00
16.01
10.01
3.63
-3.39
-11.11
-19.10
-26.33
-31.05
-31.35
-25.91
-14.77
0.52
17.42
33.55
47.47
59.11
69.26
78.66
87.40
94.80
99.96
102.38
102.33
100.76
98.68
96.83
95.38
94.05
92.42
90.06
86.62
81.87
75.64
67.93
58.89
48.80
37.90
26.28
13.89
0.66
-13.28
-27.40
-40.65
-51.58
-58.55
-60.08
-55.34
-44.42
-28.53
-9.67
9.78
27.86
43.39
56.15
66.50
74.80
81.10
85.11
86.47
85.18
81.70
76.87
71.55
66.37
61.52
56.90
52.28
47.48
42.29
36.53
29.94
22.22
13.24
3.17
-7.45
-17.78
-26.98
-34.50
-40.28
-44.85
-49.09
-53.90
-59.75
-66.27
-72.10
-75.21
-73.57
-65.94
-52.45
-34.64
-14.93
4.25
21.10
34.72
44.94
51.90
55.84
57.17
56.58
55.18
54.12
54.19
55.45
57.18
58.26
57.68
55.02
50.54
44.97
39.15
33.67
28.69
24.03
19.30
14.17
8.66
3.12
-1.87
-5.83
-8.67
-11.02
-14.01
-19.00
-27.11
-38.84
-53.93
-71.31
-89.24
-105.39
-117.20
-122.37
-119.57
-108.91
-91.99
-71.49
-50.19
-30.06
-11.82
4.81
20.39
35.03
48.19
58.91
66.53
71.14
73.71
75.51
77.55
80.10
82.67
84.36
84.39
82.52
79.05
74.66
69.98
65.30
60.51
55.22
49.07
41.88
33.88
25.58
17.61
10.47
4.38
-0.78
-5.41
-10.04
-15.18
-21.18
-28.23
-36.24
-44.71
-52.62
-58.49
-60.62
-57.71
-49.42
-36.62
-21.23
-5.61
8.26
19.26
27.21
32.56
35.92
37.75
38.31
37.95
37.20
36.74
37.13
38.51
40.45
42.07
42.37
40.69
36.95
31.69
25.83
20.23
15.39
11.25
7.34
3.04
-2.02
-7.70
-13.38
-18.26
-21.72
-23.72
-24.88
-26.25
-28.92
-33.61
-40.43
-48.78
-57.43
-64.71
-68.90
-68.55
-62.95
-52.40
-38.25
-22.61
-7.68
4.80
14.03
20.04
23.46
24.98
25.08
24.02
22.02
19.43
16.84
14.93
14.18
14.63
15.85
17.11
17.69
17.23
15.83
13.85
11.70
9.50
7.15
4.33
0.85
-3.21
-7.49
-11.47
-14.67
-16.90
-18.29
-19.28
-20.46
-22.45
-25.76
-30.68
-37.13
-44.53
-51.72
-57.04
-58.65
-55.11
-45.92
-31.87
-14.91
2.44
18.01
30.53
39.96
47.00
52.42
56.59
59.24
59.94
58.59
55.84
53.00
51.50
52.21
54.99
58.71
61.74
62.67
60.86
56.67
51.21
45.90
41.87
39.62
38.92
39.09
39.40
39.54
39.81
41.02
44.05
49.32
56.43
64.11
70.46
73.51
71.67
64.07
50.87
33.35
13.80
-4.71
-18.97
-26.47
-26.15
-18.77
-6.63
7.21
19.88
29.53
35.54
38.19
38.07
35.58
30.78
23.58
14.19
3.45
-7.20
-16.14
-22.14
-24.84
-25.00
-24.17
-24.16
-26.43
-31.63
-39.62
-49.66
-60.87
-72.39
-83.42
-93.07
-100.20
-103.63
-102.46
-96.68
-87.38
-76.66
-67.09
-60.94
-59.58
-63.20
-71.08
-81.92
-94.19
-106.14
-115.80
-121.03
-119.86
-111.12
-94.99
-73.17
-48.38
-23.62
-1.16
17.90
33.59
46.53
57.34
66.17
72.70
76.41
76.92
74.07
67.98
58.91
47.22
33.46
18.46
3.44
-10.21
-21.21
-28.85
-33.17
-34.90
-35.19
-35.17
-35.63
-36.90
-38.82
-40.93
-42.57
-43.07
-41.92
-38.96
-34.53
-29.33
-24.41
-20.83
-19.40
-20.57
-24.49
-31.06
-39.91
-50.25
-60.60
-68.89
-72.78
-70.37
-60.88
-45.16
-25.41
-4.49
15.01
31.46
44.36
53.91
60.50
64.31
65.33
63.63
59.59
54.03
47.93
42.14
37.13
32.95
29.28
25.77
22.12
18.26
14.34
10.70
7.79
5.93
5.21
5.36
5.78
5.72
4.56
2.01
-1.75
-6.12
-10.34
-13.78
-16.19
-17.73
-18.92
-20.43
-22.85
-26.51
-31.36
-36.83
-41.87
-45.04
-44.88
-40.41
-31.56
-19.41
-5.91
6.76
16.84
23.51
26.81
27.33
25.69
22.35
17.59
11.79
5.61
-0.04
-4.32
-6.69
-7.18
-6.32
-4.84
-3.44
-2.52
-2.22
-2.49
-3.20
-4.24
-5.43
-6.63
-7.61
-8.29
-8.76
-9.30
-10.26
-11.90
-14.29
-17.28
-20.69
-24.49
-28.71
-33.36
-38.03
-41.76
-43.05
-40.34
-32.59
-19.77
-2.96
15.91
34.67
51.54
65.37
75.79
82.90
87.13
89.00
89.09
88.08
86.62
85.21
84.14
83.38
82.71
81.87
80.63
78.91
76.72
74.02
70.77
66.84
62.12
56.60
50.48
44.17
38.18
32.92
28.52
24.71
20.85
16.17
9.99
1.98
-7.61
-17.97
-27.75
-35.34
-39.20
-38.27
-32.40
-22.44
-10.03
2.80
14.31
23.44
29.93
34.13
36.61
37.88
38.25
37.98
37.37
36.88
37.05
38.35
40.95
44.64
48.92
53.12
56.60
58.94
60.00
59.90
59.02
57.89
57.18
57.67
60.01
64.42
70.26
75.93
78.97
76.76
67.37
50.47
27.67
2.24
-21.81
-40.95
-53.09
-57.98
-57.02
-52.53
-46.94
-42.19
-39.54
-39.56
-42.41
-47.95
-55.90
-65.64
-76.31
-86.80
-95.99
-103.05
-107.59
-109.78
-110.27
-110.06
-110.08
-110.93
-112.58
-114.32
-115.06
-113.72
-109.83
-103.65
-96.29
-89.20
-83.80
-81.09
-81.61
-85.53
-92.61
-102.14
-112.63
-121.77
-126.76
-125.17
-115.81
-99.26
-77.78
-54.51
-32.39
-13.39
1.83
13.56
22.48
29.22
34.19
37.73
40.31
42.56
45.22
48.84
53.72
59.81
66.79
74.06
80.79
85.98
88.69
88.42
85.32
80.36
74.96
70.48
67.71
66.54
65.96
64.51
60.60
52.99
41.00
24.89
5.89
-13.83
-31.62
-45.22
-53.42
-56.47
-55.81
-53.38
-50.77
-48.91
-48.04
-48.22
-49.60
-52.49
-56.99
-62.66
-68.56
-73.53
-76.75
-78.04
-77.87
-76.97
-76.11
-75.89
-76.78
-79.14
-83.18
-88.86
-95.81
-103.44
-111.12
-118.31
-124.60
-129.70
-133.36
-135.43
-136.03
-135.62
-134.77
-133.72
-131.98
-128.20
-120.70
-108.15
-90.39
-68.60
-44.99
-22.06
-1.89
14.33
26.26
34.16
38.54
40.02
39.35
37.46
35.45
34.44
35.35
38.61
44.04
50.85
57.79
63.36
66.17
65.26
60.35
51.87
40.89
28.74
16.83
6.33
-1.91
-7.37
-10.01
-10.25
-9.00
-7.48
-6.66
-6.78
-7.11
-6.09
-2.08
5.81
17.23
30.54
43.51
54.12
61.17
64.48
64.54
62.07
57.75
52.28
46.62
42.09
40.05
41.46
46.42
54.05
62.75
70.78
76.78
80.10
80.81
79.54
77.17
74.56
72.37
70.88
69.98
69.20
67.86
65.25
60.87
54.59
46.86
38.75
31.93
28.30
29.32
35.43
45.67
57.87
69.26
77.38
80.67
78.76
72.20
62.14
49.90
36.91
24.54
14.01
6.15
1.13
-1.53
-2.94
-4.37
-6.89
-10.98
-16.52
-22.87
-29.05
-34.15
-37.57
-39.22
-39.58
-39.60
-40.44
-43.13
-48.29
-55.88
-65.12
-74.60
-82.59
-87.43
-88.07
-84.37
-77.10
-67.71
-57.77
-48.56
-40.74
-34.41
-29.26
-24.91
-21.05
-17.45
-14.00
-10.60
-7.36
-4.60
-2.99
-3.38
-6.47
-12.43
-20.65
-29.79
-38.15
-44.14
-46.86
-46.22
-42.83
-37.69
-31.82
-26.02
-20.91
-16.75
-13.44
-10.36
-6.60
-1.31
5.80
14.13
22.35
29.07
33.58
36.17
37.95
40.23
43.69
48.11
52.49
55.60
56.49
54.84
50.83
45.01
37.92
30.07
21.84
13.56
5.66
-1.41
-7.14
-11.17
-13.51
-14.62
-15.34
-16.62
-19.17
-23.12
-27.96
-32.47
-35.03
-33.90
-27.65
-15.60
1.80
22.85
44.95
65.10
80.71
90.14
92.99
89.97
82.58
72.73
62.32
53.03
45.95
41.49
39.27
38.32
37.50
35.88
33.07
29.34
25.42
22.07
19.81
18.57
17.72
16.21
12.92
7.11
-1.16
-10.78
-19.71
-25.44
-25.86
-19.93
-8.24
7.18
23.45
37.85
48.48
54.72
56.93
56.05
53.08
48.81
43.90
38.95
34.61
31.41
29.43
28.13
26.41
23.01
17.09
8.61
-1.60
-12.24
-22.11
-30.63
-38.02
-45.22
-53.39
-63.46
-75.73
-89.59
-103.55
-115.42
-122.93
-124.37
-119.20
-108.33
-93.84
-78.30
-63.92
-52.13
-43.40
-37.56
-34.12
-32.51
-32.06
-31.91
-30.97
-28.17
-22.80
-14.92
-5.43
4.14
12.06
17.07
18.68
17.37
14.33
11.06
8.81
8.16
8.81
9.76
9.75
7.66
3.08
-3.56
-10.91
-17.03
-19.85
-17.70
-9.73
3.78
21.53
41.56
61.79
80.34
95.77
107.04
113.32
113.99
108.82
98.27
83.59
66.76
49.97
35.14
23.43
15.20
10.13
7.55
6.67
6.69
6.79
6.17
4.16
0.46
-4.76
-10.76
-16.55
-21.10
-23.79
-24.60
-24.11
-23.39
-23.72
-26.28
-31.69
-39.61
-48.51
-55.86
-58.75
-54.77
-42.99
-24.27
-0.99
23.75
47.18
67.53
84.07
96.64
105.02
108.71
107.12
100.23
89.07
75.72
62.66
51.86
43.95
37.96
31.94
23.90
12.74
-1.23
-16.46
-30.73
-41.96
-48.69
-50.39
-47.41
-40.84
-32.22
-23.24
-15.46
-9.99
-7.39
-7.72
-10.75
-16.10
-23.37
-32.18
-42.13
-52.68
-63.10
-72.28
-78.70
-80.44
-75.56
-62.69
-41.71
-14.12
17.14
48.53
76.92
100.42
118.57
131.91
141.19
146.74
148.27
145.25
137.35
124.94
109.20
91.79
74.44
58.45
44.41
32.25
21.55
11.81
2.86
-5.13
-11.71
-16.44
-19.20
-20.30
-20.42
-20.35
-20.68
-21.60
-22.93
-24.25
-25.21
-25.76
-26.22
-27.15
-29.16
-32.70
-38.01
-45.16
-54.08
-64.64
-76.38
-88.35
-98.99
-106.29
-108.35
-104.01
-93.44
-78.09
-60.27
-42.39
-26.18
-12.44
-1.12
8.12
15.54
21.14
24.83
26.74
27.46
27.91
29.05
31.27
34.21
36.81
37.65
35.68
30.66
23.28
14.91
6.88
-0.01
-5.80
-11.29
-17.53
-25.36
-35.07
-46.34
-58.36
-70.10
-80.56
-88.87
-94.54
-97.57
-98.50
-98.29
-97.90
-97.72
-97.18
-94.74
-88.52
-77.17
-60.68
-40.59
-19.47
0.01
16.01
27.93
36.16
41.53
44.73
46.18
46.34
45.94
46.22
48.46
53.49
61.19
70.39
79.33
86.33
90.29
90.90
88.53
83.89
77.81
71.01
64.16
57.84
52.41
48.04
44.54
41.59
38.75
35.60
31.65
26.29
18.85
8.81
-3.97
-19.06
-35.44
-51.66
-66.01
-76.83
-82.77
-83.15
-78.21
-69.11
-57.68
-45.77
-34.65
-24.76
-15.76
-7.17
1.13
8.65
14.57
18.29
19.92
20.24
20.39
21.31
23.24
25.71
27.82
28.72
27.96
25.74
22.83
20.33
19.26
20.13
22.70
25.99
28.54
29.04
26.79
21.96
15.40
8.26
1.39
-4.95
-11.05
-17.44
-24.57
-32.60
-41.46
-50.77
-59.87
-67.69
-72.81
-73.81
-69.75
-60.67
-47.74
-32.95
-18.45
-5.91
3.87
10.94
15.84
19.17
21.32
22.42
22.58
22.00
21.14
20.58
20.88
22.28
24.62
27.36
29.80
31.37
31.91
31.61
30.95
30.27
29.68
29.01
27.90
26.07
23.40
19.99
16.14
12.15
8.32
4.88
2.00
-0.22
-1.76
-2.54
-2.24
-0.03
5.55
16.33
33.88
58.72
89.77
124.17
157.79
185.96
204.29
209.24
198.51
171.37
129.24
76.06
18.09
-37.32
-83.59
-116.84
-136.85
-146.51
-150.20
-151.76
-153.21
-154.65
-155.15
-153.73
-149.98
-143.98
-135.79
-125.25
-112.05
-96.24
-78.57
-60.44
-43.55
-29.21
-17.87
-9.01
-1.53
5.68
13.19
20.80
27.79
33.44
37.62
41.11
45.35
51.84
61.39
73.69
87.31
100.19
110.25
115.90
116.27
111.12
100.69
85.62
66.88
45.76
23.74
2.23
-17.61
-35.15
-50.11
-62.47
-72.17
-79.06
-83.05
-84.33
-83.69
-82.44
-82.06
-83.67
-87.37
-92.11
-96.01
-97.05
-93.94
-86.65
-76.41
-65.30
-55.56
-49.04
-46.69
-48.46
-53.34
-59.53
-64.89
-67.50
-66.23
-61.10
-53.15
-43.93
-34.76
-26.32
-18.55
-11.11
-3.86
2.85
8.32
11.92
13.58
13.90
13.94
14.81
17.28
21.60
27.48
34.31
41.24
47.40
52.02
54.54
54.70
52.44
47.93
41.34
32.87
22.68
10.95
-2.02
-15.95
-30.53
-45.46
-60.26
-74.09
-85.66
-93.44
-96.22
-93.60
-86.23
-75.40
-62.46
-48.06
-31.86
-12.92
9.48
35.00
61.96
87.65
109.11
124.04
131.29
131.02
124.45
113.61
100.76
87.91
76.13
65.22
53.88
40.41
23.72
4.07
-16.91
-36.91
-54.06
-67.68
-78.29
-86.65
-92.81
-95.47
-92.31
-81.06
-60.72
-32.27
1.34
36.08
67.78
93.09
110.04
118.19
118.31
112.10
101.65
89.00
75.79
63.13
51.54
41.16
31.90
23.48
15.46
7.41
-0.88
-9.16
-16.68
-22.45
-25.70
-26.55
-26.22
-26.77
-30.43
-38.66
-51.36
-66.62
-81.06
-90.82
-92.65
-84.96
-68.27
-45.01
-18.75
6.85
28.96
46.13
58.33
66.59
72.41
77.25
82.09
87.24
92.27
96.20
97.68
95.42
88.59
77.12
61.87
44.44
26.87
11.10
-1.49
-10.29
-15.48
-17.87
-18.59
-18.89
-20.04
-22.99
-28.13
-34.96
-41.97
-46.99
-47.85
-43.29
-33.49
-20.12
-5.64
7.57
18.02
25.40
30.18
33.09
34.58
34.66
33.13
29.94
25.31
19.69
13.52
7.01
0.17
-7.09
-14.73
-22.51
-30.05
-37.02
-43.33
-49.16
-54.88
-60.93
-67.66
-75.26
-83.61
-92.16
-99.79
-104.87
-105.63
-100.79
-90.13
-74.70
-56.64
-38.37
-21.85
-7.99
3.21
12.24
19.51
25.01
28.49
29.75
29.10
27.24
25.07
23.18
21.66
20.10
17.93
14.82
10.90
6.73
2.94
0.01
-2.12
-3.94
-6.29
-10.02
-15.67
-23.27
-32.03
-40.38
-46.22
-47.46
-42.86
-32.52
-18.06
-1.97
13.19
25.73
35.16
41.94
46.83
50.21
51.89
51.37
48.40
43.32
37.12
31.00
25.79
21.68
18.08
14.14
9.07
2.61
-4.91
-12.70
-19.99
-26.27
-31.46
-35.87
-39.87
-43.74
-47.56
-51.33
-54.93
-58.03
-60.02
-59.79
-56.05
-47.75
-34.78
-18.29
-0.54
15.76
28.24
35.60
37.71
35.26
29.26
20.72
10.62
0.20
-8.95
-14.90
-15.95
-11.20
-0.93
13.52
30.19
47.25
63.38
77.98
90.93
102.25
111.87
119.49
124.83
127.72
128.29
126.80
123.53
118.70
112.48
105.32
98.10
92.14
88.92
89.52
94.10
101.74
110.73
119.12
125.43
128.95
129.54
127.28
122.13
113.91
102.76
89.42
75.44
62.79
53.21
47.58
45.49
45.55
45.86
44.74
41.27
35.37
27.64
18.96
10.09
1.45
-7.01
-15.64
-24.94
-35.37
-47.25
-60.52
-74.74
-88.94
-101.73
-111.55
-117.09
-117.80
-114.21
-107.95
-101.27
-96.26
-94.09
-94.61
-96.46
-97.73
-96.68
-92.33
-84.61
-74.07
-61.45
-47.47
-32.68
-17.70
-3.30
9.46
19.46
25.79
27.99
26.21
21.10
13.60
4.60
-5.24
-15.59
-26.29
-37.28
-48.46
-59.60
-70.24
-79.60
-86.60
-89.98
-88.70
-82.36
-71.54
-57.75
-42.97
-28.93
-16.60
-6.05
3.14
11.42
18.85
25.19
30.21
34.09
37.42
41.04
45.49
50.67
55.80
59.69
61.30
60.04
56.04
49.99
42.92
35.84
29.58
24.59
20.96
18.40
16.35
14.13
11.03
6.65
0.97
-5.47
-11.56
-15.90
-17.17
-14.57
-8.10
1.35
12.22
22.64
30.88
35.73
36.64
33.93
28.53
21.85
15.32
9.92
5.96
3.04
0.48
-2.42
-6.03
-10.63
-16.60
-24.64
-35.54
-49.65
-66.38
-83.96
-99.90
-111.77
-118.15
-119.15
-116.15
-111.27
-106.31
-102.25
-98.95
-95.52
-90.72
-83.36
-72.42
-57.09
-36.78
-11.35
18.49
51.10
84.12
115.13
142.32
164.98
183.44
198.60
211.24
221.55
229.04
232.76
231.68
225.07
212.66
194.92
173.01
148.96
125.17
103.79
85.83
70.68
56.34
40.39
21.23
-1.06
-24.61
-46.60
-64.45
-76.70
-83.27
-85.06
-83.49
-80.22
-77.28
-76.96
-81.36
-91.27
-105.46
-120.57
-132.32
-137.14
-133.35
-121.50
-103.56
-81.91
-58.59
-35.33
-14.05
3.06
13.90
17.49
14.62
7.76
0.02
-6.21
-10.22
-12.96
-16.32
-22.28
-32.38
-47.72
-68.96
-96.32
-129.30
-166.21
-203.97
-238.28
-264.38
-278.15
-277.26
-262.01
-235.27
-201.80
-166.82
-134.62
-107.50
-85.81
-68.42
-53.92
-41.38
-30.71
-22.34
-16.68
-13.59
-12.32
-11.75
-10.89
-9.33
-7.42
-6.17
-6.85
-10.52
-17.73
-28.25
-41.10
-54.63
-66.81
-75.46
-78.66
-75.13
-64.54
-47.74
-26.62
-3.75
18.18
36.93
51.06
60.13
64.48
65.12
63.41
60.82
58.63
57.60
57.84
58.63
58.80
57.00
52.32
44.48
33.90
21.34
7.47
-7.22
-22.50
-38.04
-53.40
-68.01
-81.42
-93.26
-103.19
-110.50
-114.07
-112.66
-105.36
-92.21
-74.43
-54.12
-33.48
-14.12
3.23
18.58
32.13
43.75
53.04
59.46
62.99
64.19
64.20
64.19
64.89
66.26
67.58
67.87
66.23
62.17
55.63
46.95
36.71
25.60
14.24
3.06
-7.98
-19.46
-32.22
-46.87
-63.16
-79.58
-93.55
-102.20
-103.43
-96.66
-83.02
-64.74
-44.16
-23.06
-2.43
17.18
35.04
50.00
60.75
66.38
67.05
63.95
58.86
53.36
48.25
43.44
38.32
32.46
26.08
20.15
15.93
14.30
15.06
16.71
16.77
12.57
2.23
-14.74
-37.15
-62.39
-87.01
-107.29
-120.04
-123.09
-115.97
-100.01
-78.20
-54.18
-31.13
-10.71
7.24
24.01
40.78
57.51
72.83
84.66
91.61
93.74
92.69
90.72
89.52
89.47
89.67
88.74
85.72
80.60
74.16
67.33
60.66
54.03
46.81
38.31
28.19
16.46
3.43
-10.67
-25.76
-41.65
-57.66
-72.15
-82.60
-86.26
-81.15
-67.05
-45.84
-21.03
3.46
24.51
40.72
52.33
60.62
66.91
71.99
75.93
78.46
79.37
78.76
77.07
74.83
72.33
69.54
66.14
61.77
56.32
50.05
43.53
37.36
31.84
26.75
21.37
14.71
5.88
-5.53
-19.35
-34.92
-51.48
-68.44
-85.37
-101.63
-115.94
-126.09
-129.48
-123.99
-109.05
-86.31
-59.24
-32.02
-8.15
10.55
23.98
33.06
38.80
41.68
41.75
39.06
34.13
27.96
21.56
15.61
10.10
4.62
-1.24
-7.55
-14.06
-20.42
-26.53
-32.51
-38.60
-44.80
-50.64
-55.41
-58.52
-59.87
-60.04
-60.10
-61.30
-64.66
-70.62
-78.95
-88.61
-97.82
-104.24
-105.46
-99.73
-86.54
-66.99
-43.51
-19.03
4.03
24.44
42.29
58.32
73.15
86.63
97.81
105.48
108.96
108.62
105.94
102.90
101.29
102.03
105.04
109.42
113.84
117.12
118.44
117.47
114.21
108.84
101.55
92.47
81.69
69.27
55.26
39.61
22.15
2.88
-17.65
-37.98
-55.47
-66.93
-69.52
-61.98
-45.34
-22.81
1.35
23.26
40.63
53.12
61.80
68.16
73.23
77.32
80.25
81.93
82.53
82.52
82.39
82.39
82.63
83.09
83.85
84.80
85.37
84.30
79.82
70.28
54.82
33.86
9.01
-17.38
-43.07
-66.33
-86.24
-102.50
-115.38
-125.64
-134.42
-143.02
-152.23
-161.71
-169.60
-172.88
-168.48
-154.65
-132.06
-103.66
-73.59
-45.51
-21.31
-0.89
17.00
33.51
48.82
62.11
72.36
79.16
83.07
85.26
86.82
88.12
88.75
87.95
85.17
80.45
74.37
67.72
61.02
54.40
47.55
39.98
31.40
21.86
11.88
2.22
-6.48
-13.97
-20.55
-27.05
-34.42
-43.40
-53.87
-64.83
-74.55
-80.93
-82.18
-77.37
-66.77
-51.82
-34.47
-16.37
1.67
19.63
37.89
56.59
75.25
92.81
107.97
119.72
128.11
133.98
138.40
142.02
144.93
146.51
146.02
142.86
136.85
129.32
121.73
114.66
107.31
98.11
85.37
68.75
49.00
27.81
9.08
-3.93
-10.34
-12.03
-12.14
-14.08
-19.18
-27.65
-38.70
-47.73
-50.04
-43.24
-27.86
-5.85
19.88
48.18
77.49
105.70
134.51
165.77
199.51
233.71
266.28
295.04
320.68
343.38
340.06
298.22
224.60
142.26
72.98
33.45
13.23
1.68
-8.60
-21.43
-35.95
-48.34
-56.71
-62.54
-68.92
-79.69
-94.96
-113.82
-134.88
-153.71
-166.77
-174.23
-179.84
-188.17
-202.75
-222.31
-243.48
-262.42
-274.31
-276.20
-268.51
-254.22
-236.60
-218.07
-198.39
-176.70
-152.60
-125.66
-96.40
-66.92
-40.52
-20.59
-9.83
-8.78
-16.25
-29.48
-44.33
-56.58
-63.17
-62.99
-56.82
-46.79
-35.22
-24.09
-14.38
-6.02
1.68
9.21
16.05
20.39
19.62
11.35
-5.37
-29.45
-57.84
-86.56
-111.93
-131.58
-144.81
-152.42
-156.07
-157.66
-158.83
-160.48
-162.36
-162.99
-159.95
-150.76
-133.95
-109.86
-80.64
-49.47
-19.43
7.50
30.82
51.09
69.13
85.50
100.28
113.40
124.99
135.51
145.54
155.38
164.79
172.89
178.56
180.88
179.55
174.98
168.14
159.91
150.71
140.31
128.22
114.19
98.77
83.39
69.88
59.62
52.84
48.43
44.36
38.52
29.45
16.84
1.46
-15.05
-30.59
-42.86
-49.82
-50.09
-43.50
-31.17
-15.39
1.10
15.96
27.87
36.62
42.79
47.09
50.01
51.64
51.96
51.05
49.24
47.01
44.66
42.13
38.96
34.57
28.67
21.58
14.14
7.39
2.11
-1.66
-4.53
-7.53
-11.53
-16.75
-22.73
-28.55
-33.46
-37.23
-40.36
-43.84
-48.70
-55.62
-64.60
-74.88
-84.93
-92.77
-96.32
-94.09
-85.68
-72.13
-55.58
-38.58
-23.30
-10.83
-1.23
6.09
11.71
15.83
18.25
18.79
17.64
15.52
13.44
12.24
12.24
13.12
14.13
14.53
13.94
12.50
10.66
8.86
7.16
5.21
2.41
-1.64
-6.89
-12.74
-18.27
-22.68
-25.63
-27.40
-28.75
-30.70
-34.15
-39.54
-46.59
-54.17
-60.43
-63.25
-60.93
-52.83
-39.82
-23.93
-7.76
6.49
17.61
25.44
30.45
33.18
33.94
32.94
30.54
27.47
24.66
22.84
22.24
22.48
22.83
22.58
21.32
18.96
15.59
11.35
6.40
0.94
-4.75
-10.42
-15.85
-20.98
-25.86
-30.59
-35.34
-40.48
-46.67
-54.72
-65.17
-77.75
-90.92
-102.17
-108.63
-108.22
-100.50
-86.76
-69.59
-51.89
-36.01
-23.20
-13.67
-6.81
-1.52
3.41
9.06
16.13
24.69
34.13
43.35
51.26
57.22
61.26
63.88
65.61
66.59
66.39
64.25
59.50
51.90
41.84
30.11
17.68
5.39
-6.14
-16.50
-25.51
-33.15
-39.71
-45.72
-51.63
-57.27
-61.46
-62.12
-56.93
-44.55
-25.46
-2.22
21.38
41.57
55.95
64.06
67.02
66.74
64.87
62.30
59.09
54.85
49.11
41.63
32.49
22.13
11.22
0.57
-9.14
-17.59
-24.86
-31.31
-37.49
-43.73
-50.05
-56.10
-61.19
-64.46
-65.11
-62.59
-56.80
-48.35
-38.59
-29.57
-23.47
-21.80
-24.47
-29.56
-33.65
-33.26
-26.19
-12.63
4.94
22.87
38.06
49.07
56.46
61.93
67.01
72.13
76.38
78.18
76.29
70.59
62.30
53.57
46.51
42.45
41.40
42.16
42.92
42.06
38.76
33.23
26.55
20.08
14.92
11.52
9.74
9.15
9.46
10.70
13.29
17.63
23.72
30.82
37.54
42.18
43.31
40.31
33.52
24.10
13.71
4.00
-3.64
-8.31
-9.74
-8.32
-5.01
-0.95
2.99
6.59
10.35
15.02
21.00
27.91
34.60
39.60
41.82
40.91
37.24
31.38
23.75
14.34
2.98
-10.35
-25.29
-41.13
-57.09
-72.50
-86.85
-99.64
-110.36
-118.58
-124.17
-127.52
-129.65
-131.82
-135.11
-139.79
-145.03
-148.92
-148.90
-142.67
-129.03
-108.48
-83.22
-56.51
-31.70
-11.22
4.00
14.44
21.44
26.53
30.94
35.49
40.76
47.22
55.25
64.80
75.23
85.25
93.28
98.03
99.00
96.67
92.16
86.71
81.01
75.09
68.48
60.79
52.07
42.92
34.21
26.56
20.13
14.45
8.65
1.77
-7.00
-17.99
-30.87
-44.49
-56.87
-65.54
-68.13
-63.22
-50.96
-33.23
-13.01
6.59
23.34
36.44
46.31
53.92
60.01
64.63
67.41
68.05
66.78
64.44
62.05
60.30
59.21
58.19
56.55
53.92
50.56
47.14
44.22
41.87
39.42
35.82
30.09
21.85
11.55
0.33
-10.42
-19.67
-27.10
-33.22
-39.16
-46.15
-55.10
-66.10
-78.26
-89.75
-98.27
-101.61
-98.32
-88.24
-72.59
-53.59
-33.80
-15.28
0.86
14.49
26.03
35.84
43.85
49.64
52.78
53.35
52.12
50.22
48.72
48.04
47.84
47.27
45.49
42.16
37.63
32.71
28.24
24.52
21.21
17.48
12.40
5.60
-2.51
-10.95
-18.46
-24.25
-28.26
-31.28
-34.52
-39.21
-46.20
-55.74
-67.52
-80.57
-93.27
-103.50
-109.00
-108.04
-100.14
-86.35
-68.94
-50.55
-33.21
-17.73
-3.73
9.60
22.77
35.38
46.36
54.62
59.70
62.10
62.92
63.33
63.94
64.61
64.73
63.60
60.89
56.76
51.73
46.42
41.22
36.11
30.66
24.30
16.63
7.69
-1.91
-11.22
-19.34
-25.78
-30.76
-35.04
-39.55
-45.14
-52.23
-60.78
-70.17
-79.10
-85.77
-88.12
-84.44
-74.17
-58.17
-38.57
-18.05
1.12
17.65
31.30
42.40
51.23
57.64
61.28
61.97
60.10
56.70
53.06
50.24
48.55
47.58
46.44
44.28
40.73
36.07
31.07
26.54
22.90
19.97
17.02
13.10
7.56
0.33
-8.02
-16.54
-24.32
-30.77
-35.85
-40.00
-43.99
-48.70
-54.93
-63.18
-73.41
-84.75
-95.32
-102.59
-103.97
-97.82
-84.12
-64.63
-42.33
-20.30
-0.84
15.17
27.95
38.31
46.90
53.93
59.25
62.66
64.23
64.37
63.66
62.66
61.61
60.47
58.97
56.81
53.81
50.06
45.84
41.51
37.32
33.30
29.14
24.42
18.72
11.85
3.97
-4.41
-12.66
-20.19
-26.69
-32.20
-37.09
-41.94
-47.36
-53.90
-61.99
-71.72
-82.67
-93.56
-102.28
-106.37
-103.78
-93.79
-77.44
-57.24
-36.22
-16.82
-0.20
13.79
25.91
36.69
45.98
53.13
57.55
59.27
59.19
58.63
58.82
60.22
62.51
64.73
65.86
65.33
63.13
59.71
55.71
51.60
47.53
43.37
38.73
33.29
26.86
19.51
11.51
3.30
-4.67
-12.10
-18.90
-25.39
-32.04
-39.48
-48.21
-58.41
-69.84
-81.66
-92.39
-100.10
-102.83
-99.12
-88.61
-72.35
-52.47
-31.59
-11.94
5.23
19.73
32.01
42.47
51.03
57.15
60.36
60.69
58.98
56.63
54.89
54.45
55.00
55.48
54.67
51.89
47.23
41.53
35.91
31.12
27.26
23.78
19.81
14.69
8.33
1.22
-5.83
-12.07
-17.16
-21.31
-25.03
-28.96
-33.66
-39.52
-46.78
-55.25
-64.19
-72.07
-76.82
-76.35
-69.41
-56.21
-38.54
-19.10
-0.55
15.33
27.91
37.43
44.33
48.86
51.10
51.27
50.03
48.50
47.78
48.51
50.57
53.16
55.22
55.93
55.03
52.85
50.06
47.39
45.19
43.37
41.42
38.71
34.72
29.39
23.11
16.59
10.54
5.28
0.49
-4.75
-11.71
-21.54
-34.63
-50.15
-65.89
-78.60
-84.76
-81.82
-69.03
-47.77
-20.97
7.98
36.41
62.74
86.22
106.14
121.16
129.37
128.87
118.87
100.23
75.47
47.85
20.44
-4.62
-26.12
-43.36
-55.80
-63.18
-65.90
-65.38
-63.87
-63.82
-66.90
-73.41
-82.29
-91.72
-99.89
-105.53
-108.03
-107.41
-104.05
-98.80
-93.06
-88.66
-87.41
-90.34
-97.09
-105.80
-113.49
-116.95
-113.73
-102.82
-84.94
-62.23
-37.52
-13.56
7.62
25.10
38.95
49.87
58.75
66.24
72.67
78.12
82.52
85.83
87.97
88.75
87.83
84.75
79.30
71.81
63.19
54.79
47.82
42.89
39.61
36.76
32.79
26.52
17.56
6.41
-5.81
-17.85
-28.81
-38.37
-46.81
-54.83
-63.37
-73.29
-85.11
-98.62
-112.68
-125.15
-133.36
-135.00
-128.93
-115.67
-97.28
-76.58
-56.27
-38.18
-23.20
-11.53
-3.11
2.20
4.68
5.00
4.42
4.38
6.11
10.03
15.54
21.23
25.46
27.02
25.67
22.12
17.77
14.02
11.65
10.62
10.15
9.25
7.25
4.01
-0.02
-4.17
-7.76
-10.30
-11.54
-11.39
-9.98
-7.64
-4.96
-2.68
-1.45
-1.51
-2.51
-3.31
-2.24
2.52
12.33
27.51
47.20
69.46
91.92
112.42
129.66
143.28
153.69
161.67
167.96
173.17
177.70
181.80
185.57
188.79
190.82
190.62
187.04
179.12
166.55
149.89
130.55
110.54
91.74
75.33
61.34
48.78
36.09
22.06
6.30
-10.57
-27.25
-42.45
-55.42
-66.31
-76.17
-86.68
-99.53
-115.69
-134.67
-154.19
-170.49
-179.47
-178.22
-166.26
-145.93
-121.47
-97.43
-77.01
-61.27
-49.49
-40.19
-32.22
-25.26
-19.61
-15.61
-13.13
-11.53
-10.11
-8.49
-6.84
-5.63
-5.21
-5.41
-5.63
-5.21
-3.86
-1.97
-0.39
-0.10
-1.71
-5.24
-10.23
-16.09
-22.41
-29.10
-36.46
-45.11
-55.75
-68.94
-84.67
-102.03
-119.00
-132.71
-140.22
-139.50
-130.25
-114.22
-94.78
-75.88
-60.96
-52.06
-49.63
-52.70
-59.57
-68.33
-77.43
-85.69
-92.42
-97.12
-99.42
-98.96
-95.56
-89.31
-80.71
-70.61
-60.04
-49.89
-40.76
-32.92
-26.44
-21.34
-17.64
-15.28
-14.06
-13.49
-13.06
-12.34
-11.34
-10.55
-10.85
-13.25
-18.30
-25.69
-34.04
-40.94
-43.58
-39.51
-27.51
-8.02
16.89
44.16
70.61
93.75
112.07
125.07
132.92
136.15
135.47
131.83
126.28
119.95
113.78
108.40
103.88
99.83
95.59
90.38
83.58
74.94
64.65
53.31
41.70
30.53
20.34
11.32
3.41
-3.65
-10.19
-16.67
-23.71
-32.03
-42.25
-54.52
-68.12
-81.24
-91.31
-95.65
-92.51
-81.69
-64.77
-44.43
-23.45
-3.86
13.55
28.98
42.89
55.45
66.37
75.12
81.38
85.40
87.90
89.79
91.77
93.98
96.07
97.41
97.39
95.65
92.26
87.64
82.27
76.53
70.38
63.53
55.66
46.77
37.32
28.15
19.97
12.99
6.63
-0.32
-9.14
-20.46
-33.68
-46.83
-57.04
-61.44
-58.20
-47.30
-30.57
-11.01
8.26
24.96
38.06
47.63
54.24
58.43
60.53
60.78
59.55
57.56
55.60
54.24
53.65
53.51
53.20
52.22
50.30
47.46
43.96
40.03
35.81
31.29
26.40
21.00
15.05
8.57
1.73
-5.29
-12.43
-19.85
-28.06
-37.59
-48.61
-60.42
-71.29
-78.72
-80.30
-74.64
-62.13
-44.84
-25.90
-8.32
6.04
16.78
24.70
31.05
36.71
41.81
45.91
48.44
49.22
48.71
47.66
46.78
46.24
45.63
44.24
41.47
37.19
31.78
25.86
19.96
14.27
8.71
3.02
-2.99
-9.44
-16.34
-23.81
-32.03
-41.32
-51.94
-63.82
-76.30
-87.84
-96.29
-99.32
-95.28
-83.87
-66.41
-45.40
-23.81
-4.01
12.76
26.34
37.29
46.22
53.43
58.91
62.53
64.25
64.24
62.87
60.55
57.70
54.61
51.46
48.26
44.85
41.03
36.61
31.47
25.60
19.05
11.91
4.28
-3.70
-11.84
-19.91
-27.83
-35.82
-44.48
-54.61
-66.68
-80.26
-93.67
-104.16
-108.70
-105.18
-93.34
-75.00
-53.39
-31.89
-12.84
3.04
16.31
27.90
38.20
46.83
52.94
56.02
56.36
55.03
53.30
52.00
51.19
50.38
48.95
46.62
43.59
40.23
36.71
32.85
28.16
22.18
14.83
6.43
-2.36
-10.92
-18.94
-26.53
-34.18
-42.58
-52.41
-64.04
-77.25
-91.04
-103.55
-112.41
-115.30
-110.74
-98.74
-80.88
-59.86
-38.51
-18.94
-2.02
12.37
24.82
35.64
44.59
51.08
54.72
55.67
54.77
53.17
51.76
50.86
50.21
49.27
47.69
45.48
43.04
40.76
38.79
36.70
33.71
29.01
22.17
13.42
3.55
-6.33
-15.27
-22.84
-29.18
-35.03
-41.45
-49.32
-59.16
-70.81
-83.18
-94.16
-101.18
-102.00
-95.63
-82.71
-65.29
-46.21
-28.03
-12.25
0.92
12.03
21.55
29.27
34.36
36.19
34.60
30.15
23.96
17.63
12.36
8.54
5.66
2.83
-0.15
-3.34
-6.82
-10.95
-15.22
-18.95
-21.51
-22.55
-21.58
-16.68
-6.62
8.49
26.64
46.63
67.16
86.65
103.34
115.93
125.80
133.89
140.26
143.72
146.40
151.71
162.68
180.33
203.33
230.87
259.37
283.20
295.41
294.48
282.31
262.55
238.79
197.04
135.59
64.12
6.38
-38.48
-75.42
-109.38
-140.55
-167.85
-190.18
-204.52
-210.45
-210.38
-209.50
-209.14
-208.72
-206.93
-202.86
-196.02
-184.34
-167.48
-147.39
-128.42
-112.50
-100.55
-92.98
-90.18
-91.72
-94.73
-95.86
-92.16
-82.30
-64.84
-39.89
-9.59
22.33
52.07
77.69
98.67
115.54
128.93
140.07
149.65
157.55
162.98
165.10
163.66
158.87
150.96
139.95
125.98
109.23
90.27
70.32
51.29
35.34
24.07
17.69
14.66
12.04
6.49
-4.51
-21.67
-43.78
-68.30
-92.50
-114.44
-133.46
-149.98
-164.89
-178.96
-192.43
-205.13
-216.58
-226.26
-233.60
-237.87
-238.17
-233.57
-223.40
-207.68
-187.26
-163.72
-138.96
-114.73
-92.20
-71.90
-53.80
-37.69
-23.45
-11.16
-1.01
6.85
12.47
16.11
18.11
18.73
18.16
16.51
13.94
10.63
6.76
2.32
-2.90
-9.25
-16.85
-25.27
-33.39
-39.57
-42.10
-39.76
-32.32
-20.58
-6.19
8.89
22.86
34.52
43.41
49.66
53.74
56.15
57.27
57.39
56.86
56.24
56.29
57.58
60.12
63.09
65.06
64.51
60.51
53.17
43.48
32.82
22.39
12.73
3.82
-4.77
-13.46
-22.59
-32.40
-43.07
-54.54
-66.21
-76.64
-83.55
-84.50
-77.64
-62.72
-41.35
-16.59
8.02
29.62
46.78
59.48
68.64
75.25
79.95
82.89
84.05
83.54
81.75
79.19
76.19
72.68
68.17
62.14
54.27
44.82
34.46
23.95
13.71
3.50
-7.39
-19.79
-34.16
-50.32
-67.54
-85.00
-101.96
-117.84
-131.94
-143.14
-149.93
-150.80
-145.00
-132.87
-115.88
-96.04
-75.19
-54.45
-34.17
-14.43
4.61
22.41
38.32
51.81
62.77
71.42
78.01
82.51
84.51
83.48
79.10
71.64
62.01
51.50
41.41
32.68
25.66
20.23
15.85
11.81
7.33
1.62
-5.95
-15.66
-27.17
-39.30
-50.01
-56.93
-58.15
-52.89
-41.90
-27.28
-11.64
2.75
14.62
23.84
30.86
36.13
39.68
41.21
40.51
37.99
34.73
32.26
31.82
33.86
37.72
41.88
44.56
44.43
40.97
34.52
25.99
16.36
6.28
-4.01
-14.61
-25.71
-37.51
-49.95
-62.65
-74.81
-85.05
-91.63
-92.71
-87.01
-74.42
-56.20
-34.66
-12.40
8.56
27.12
43.01
56.18
66.24
72.51
74.31
71.76
65.99
59.04
53.02
49.34
48.17
48.46
48.56
46.99
42.93
36.41
28.16
19.22
10.50
2.54
-4.72
-11.87
-19.87
-29.68
-41.79
-55.71
-69.94
-82.06
-89.41
-89.92
-82.73
-68.48
-49.02
-26.73
-3.90
17.83
37.38
54.12
67.55
77.32
83.34
86.05
86.44
85.79
85.19
85.13
85.33
84.93
82.93
78.70
72.22
64.15
55.55
47.51
40.72
35.28
30.64
25.91
20.16
12.76
3.54
-7.29
-19.14
-31.16
-42.16
-50.68
-55.27
-54.86
-49.29
-39.48
-27.18
-14.36
-2.50
7.76
16.52
24.07
30.38
34.98
37.20
36.63
33.59
29.13
24.60
21.07
18.88
17.60
16.35
14.35
11.33
7.66
4.04
1.06
-1.08
-2.68
-4.36
-6.77
-10.30
-15.16
-21.41
-29.03
-37.71
-46.61
-54.20
-58.50
-57.70
-50.96
-38.92
-23.53
-7.36
7.39
19.64
29.28
36.74
42.24
45.49
45.99
43.54
38.73
32.92
27.66
24.00
22.04
21.05
19.95
17.96
14.92
11.28
7.70
4.59
2.01
-0.27
-2.59
-5.13
-8.05
-11.51
-15.81
-21.09
-26.94
-32.12
-34.65
-32.45
-24.06
-9.24
11.00
34.77
59.85
84.10
105.60
122.70
134.14
139.35
138.67
133.36
125.18
115.80
106.25
96.75
86.96
76.33
64.49
51.29
36.81
21.15
4.32
-13.83
-33.63
-55.45
-79.42
-105.17
-131.65
-157.27
-180.25
-199.18
-213.30
-222.51
-226.91
-226.37
-220.38
-208.20
-189.60
-165.26
-137.04
-107.45
-78.91
-52.99
-30.19
-10.14
7.63
23.24
36.23
45.87
51.69
53.94
53.60
52.06
50.52
49.57
49.05
48.28
46.56
43.54
39.44
34.85
30.41
26.46
22.95
19.46
15.55
10.90
5.39
-1.07
-8.61
-17.29
-26.94
-36.77
-45.28
-50.53
-50.86
-45.44
-34.81
-20.67
-5.28
9.33
21.95
32.30
40.63
47.27
52.31
55.63
57.18
57.21
56.35
55.38
54.81
54.62
54.29
53.07
50.35
45.99
40.28
33.75
26.98
20.44
14.33
8.73
3.61
-1.10
-5.54
-9.85
-14.25
-19.09
-24.71
-31.32
-38.55
-45.29
-49.74
-49.87
-44.26
-32.72
-16.52
2.10
20.66
37.26
50.94
61.56
69.45
75.05
78.81
81.32
83.34
85.71
89.03
93.30
97.90
101.85
104.21
104.47
102.80
99.89
96.64
93.74
91.53
89.96
88.71
87.45
85.91
83.93
81.27
77.54
72.13
64.25
53.26
38.99
21.97
3.41
-14.95
-31.23
-43.71
-51.08
-52.69
-48.65
-40.01
-28.58
-16.64
-6.43
0.31
2.67
0.63
-5.17
-13.62
-23.46
-33.34
-41.99
-48.44
-52.16
-53.24
-52.18
-49.77
-46.68
-43.31
-39.66
-35.46
-30.40
-24.32
-17.52
-10.75
-5.20
-2.21
-2.97
-8.23
-18.01
-31.45
-46.66
-61.01
-71.60
-76.00
-73.01
-63.11
-48.22
-31.11
-14.46
-0.13
10.95
18.62
23.06
24.52
23.18
19.31
13.37
6.13
-1.37
-8.01
-12.72
-14.52
-12.62
-6.65
3.30
16.51
31.76
47.59
62.39
74.70
83.26
87.05
85.03
76.21
59.63
34.96
3.03
-34.06
-72.82
-108.75
-137.38
-155.70
-162.82
-160.55
-152.13
-140.87
-129.71
-120.42
-113.15
-106.93
-100.74
-93.45
-84.78
-74.12
-60.27
-42.88
-22.68
-0.77
21.51
42.57
61.71
77.78
90.46
99.95
104.76
101.87
88.87
65.32
32.81
-4.52
-43.26
-80.74
-107.27
-115.47
-106.09
-86.95
-66.04
-53.54
-45.91
-39.61
-33.36
-27.85
-21.69
-16.21
-11.85
-7.85
-3.29
2.98
10.03
17.01
23.89
30.61
36.78
42.92
50.10
59.00
69.99
81.18
89.84
93.17
88.28
72.94
47.32
14.05
-22.78
-58.48
-89.87
-115.07
-133.23
-144.57
-150.06
-150.38
-145.80
-136.43
-122.32
-104.18
-83.08
-60.27
-37.03
-14.48
6.95
27.36
47.01
66.05
84.20
100.96
115.96
129.03
139.92
148.10
152.64
152.37
146.44
134.91
118.91
100.38
81.43
63.71
48.13
35.01
24.28
15.74
9.02
3.48
-1.64
-6.96
-12.53
-17.54
-20.61
-20.33
-15.91
-7.67
3.20
14.97
26.07
35.40
42.38
46.87
48.95
49.02
47.80
46.24
45.34
45.65
47.01
48.58
49.10
47.48
43.28
36.81
28.99
20.88
13.30
6.58
0.69
-4.64
-9.67
-14.62
-19.59
-24.56
-29.19
-32.74
-34.15
-32.43
-27.03
-18.28
-7.36
4.01
14.15
21.87
26.60
28.34
27.45
24.57
20.55
16.34
12.71
10.05
8.16
6.32
3.74
-0.12
-5.24
-11.10
-16.98
-22.32
-26.93
-31.03
-35.10
-39.67
-45.16
-51.79
-59.43
-67.44
-74.69
-79.65
-80.88
-77.60
-70.11
-59.82
-48.85
-39.26
-32.34
-28.34
-26.61
-26.24
-26.54
-27.36
-28.92
-31.44
-34.86
-38.79
-42.71
-46.27
-49.43
-52.50
-55.88
-59.87
-64.49
-69.47
-74.31
-78.60
-82.17
-85.22
-88.27
-91.83
-96.01
-100.26
-103.32
-103.55
-99.55
-90.65
-77.31
-61.05
-43.94
-28.07
-14.90
-5.16
1.25
4.91
6.63
7.29
7.72
8.70
10.80
14.28
18.82
23.58
27.47
29.65
29.88
28.69
27.12
26.21
26.65
28.43
31.02
33.55
35.23
35.63
34.80
33.35
32.26
32.63
35.29
40.35
47.07
53.93
59.14
61.15
59.14
53.14
44.00
32.97
21.21
9.51
-1.87
-13.07
-24.33
-35.63
-46.53
-56.24
-63.92
-69.02
-71.54
-71.96
-71.06
-69.66
-68.52
-68.37
-69.90
-73.71
-80.00
-88.14
-96.64
-103.32
-105.97
-103.06
-94.29
-80.76
-64.71
-48.99
-36.45
-29.20
-28.11
-32.60
-40.86
-50.36
-58.61
-63.82
-65.23
-63.04
-58.08
-51.40
-43.91
-36.22
-28.71
-21.49
-14.61
-8.09
-2.13
2.82
6.21
7.69
7.41
6.29
5.80
7.45
12.29
20.53
31.52
44.05
56.81
68.68
78.86
86.69
91.61
93.25
91.70
87.72
82.56
77.63
73.76
70.86
67.90
63.46
56.33
46.08
33.07
18.25
2.68
-12.79
-27.64
-41.73
-55.07
-67.86
-80.23
-92.03
-102.67
-111.01
-115.64
-115.24
-109.14
-97.58
-81.86
-64.06
-46.63
-31.84
-21.15
-14.80
-11.71
-9.99
-7.76
-4.16
0.29
3.99
5.23
3.22
-1.42
-7.11
-12.32
-16.40
-19.89
-24.00
-29.76
-37.42
-46.39
-55.88
-65.35
-74.67
-83.77
-92.02
-98.03
-99.71
-94.90
-82.18
-61.42
-33.92
-2.11
30.97
62.26
89.34
110.64
125.64
134.68
138.53
138.21
134.69
128.84
121.46
113.34
105.06
96.90
88.91
81.06
73.49
66.55
60.67
56.05
52.44
49.19
45.51
40.83
35.00
28.30
21.25
14.64
9.48
6.96
8.32
14.38
25.05
39.11
54.48
68.76
80.13
87.63
91.21
91.35
88.54
83.21
75.76
66.87
57.65
49.39
43.09
39.06
36.62
34.37
30.85
25.24
17.76
9.61
2.47
-2.28
-3.99
-2.94
-0.03
3.57
6.64
7.91
5.95
-0.61
-12.50
-29.07
-47.68
-63.84
-72.32
-68.75
-51.33
-21.61
15.80
54.76
89.42
115.72
132.03
138.73
137.42
130.14
118.90
105.69
92.42
80.78
71.90
65.97
62.37
59.97
57.83
55.55
53.44
52.04
51.72
52.23
52.67
51.78
48.37
41.77
32.09
20.39
8.53
-1.22
-6.73
-6.59
-0.58
10.24
23.90
38.08
50.82
60.92
68.03
72.38
74.35
74.26
72.23
68.36
62.91
56.39
49.48
42.92
37.30
32.93
29.67
27.09
24.56
21.51
17.66
13.13
8.42
4.17
0.98
-0.81
-1.25
-0.88
-0.68
-2.00
-6.23
-14.27
-25.84
-39.21
-51.44
-59.21
-60.04
-53.27
-40.29
-23.93
-7.51
6.32
15.96
20.98
21.61
18.43
12.14
3.63
-6.00
-15.45
-23.46
-29.15
-32.23
-32.99
-32.22
-30.77
-29.32
-28.22
-27.45
-26.87
-26.39
-26.12
-26.34
-27.41
-29.55
-32.76
-36.93
-42.02
-48.15
-55.43
-63.66
-71.83
-78.10
-80.00
-75.32
-62.95
-43.48
-19.14
6.78
31.00
51.04
65.57
74.26
77.43
75.67
69.75
60.75
50.03
39.14
29.44
21.80
16.44
12.98
10.71
8.82
6.63
3.72
-0.07
-4.64
-9.74
-15.07
-20.39
-25.63
-30.83
-36.12
-41.58
-47.27
-53.19
-59.20
-64.95
-69.65
-72.16
-71.20
-65.90
-56.21
-43.16
-28.58
-14.49
-2.47
6.72
13.13
17.25
19.55
20.29
19.59
17.75
15.33
13.12
11.82
11.71
12.49
13.40
13.54
12.24
9.26
4.81
-0.67
-6.61
-12.54
-18.08
-22.99
-27.24
-30.92
-34.40
-38.26
-43.14
-49.55
-57.54
-66.39
-74.60
-80.12
-81.04
-76.13
-65.43
-50.29
-33.00
-16.05
-1.50
9.56
16.94
21.12
22.83
22.76
21.49
19.59
17.68
16.45
16.48
18.01
20.82
24.27
27.44
29.43
29.64
27.91
24.56
20.27
15.94
12.36
9.97
8.83
8.52
8.36
7.55
5.30
0.98
-5.75
-14.61
-24.54
-33.58
-39.37
-39.88
-34.19
-23.08
-8.72
6.01
18.52
27.28
32.04
33.48
32.62
30.49
27.82
25.11
22.78
21.25
20.81
21.57
23.37
25.72
27.92
29.20
28.96
26.92
23.14
18.09
12.40
6.75
1.69
-2.41
-5.48
-7.68
-9.36
-11.07
-13.43
-17.05
-22.28
-29.03
-36.58
-43.65
-48.58
-49.79
-46.38
-38.46
-27.30
-14.92
-3.49
5.37
11.00
13.64
14.19
13.65
12.87
12.44
12.75
14.05
16.50
19.97
23.94
27.56
29.75
29.67
26.97
21.92
15.31
8.09
1.09
-5.22
-10.71
-15.51
-19.73
-23.43
-26.58
-29.24
-31.58
-33.94
-36.75
-40.22
-44.06
-47.36
-48.71
-46.71
-40.52
-30.36
-17.49
-3.82
8.76
18.92
26.16
30.54
32.49
32.47
30.91
28.34
25.42
22.84
21.11
20.35
20.23
20.19
19.67
18.35
16.09
12.95
9.01
4.35
-0.83
-6.19
-11.38
-16.05
-20.08
-23.62
-26.98
-30.47
-34.21
-38.16
-42.18
-46.11
-49.71
-52.51
-53.67
-52.21
-47.39
-39.19
-28.61
-17.43
-7.66
-0.71
3.02
4.17
3.97
3.57
3.64
4.28
5.26
6.32
7.37
8.44
9.55
10.56
11.08
10.68
9.02
6.01
1.89
-2.89
-7.78
-12.32
-16.22
-19.43
-22.12
-24.58
-27.13
-30.03
-33.45
-37.39
-41.67
-45.78
-48.91
-49.89
-47.57
-41.13
-30.54
-16.68
-1.12
14.37
28.40
40.28
49.87
57.28
62.54
65.52
66.17
64.77
62.13
59.31
57.22
56.28
56.27
56.52
56.17
54.48
50.88
45.07
37.02
27.14
16.23
5.49
-3.90
-11.16
-16.22
-19.71
-22.57
-25.65
-29.23
-32.94
-35.98
-37.48
-36.86
-33.96
-28.99
-22.43
-14.84
-6.83
0.93
7.67
12.68
15.41
15.77
14.12
11.28
8.28
6.10
5.39
6.32
8.54
11.31
13.75
15.00
14.45
11.90
7.58
2.09
-3.83
-9.52
-14.66
-19.26
-23.63
-28.23
-33.40
-39.29
-45.62
-51.64
-56.19
-57.97
-56.00
-49.95
-40.46
-28.95
-17.32
-7.31
-0.07
4.05
5.36
4.60
2.53
-0.12
-2.66
-4.44
-4.89
-3.63
-0.75
3.22
7.32
10.54
12.10
11.75
9.79
6.89
3.82
1.23
-0.64
-1.90
-3.02
-4.75
-7.81
-12.66
-19.18
-26.49
-32.97
-36.71
-36.06
-30.28
-19.83
-6.21
8.53
22.50
34.40
43.61
49.97
53.49
54.12
51.96
47.41
41.36
35.00
29.45
25.28
22.25
19.45
15.76
10.38
3.27
-4.83
-12.73
-19.29
-23.93
-26.85
-28.91
-31.28
-35.00
-40.59
-47.92
-56.21
-64.13
-70.15
-72.81
-71.13
-64.87
-54.63
-41.63
-27.30
-12.85
0.89
13.43
24.37
33.24
39.42
42.50
42.48
39.93
35.80
31.18
26.85
23.17
20.08
17.33
14.78
12.50
10.78
9.91
9.98
10.69
11.46
11.57
10.38
7.47
2.73
-3.60
-10.91
-18.23
-24.28
-27.77
-27.84
-24.47
-18.63
-11.98
-6.28
-2.72
-1.56
-2.21
-3.68
-5.02
-5.69
-5.42
-3.97
-0.89
4.38
12.24
22.58
34.54
46.65
57.26
65.11
69.68
71.34
71.15
70.41
70.20
70.99
72.60
74.25
74.88
73.46
69.20
61.85
51.81
40.16
28.44
18.41
11.49
8.50
9.39
13.32
19.04
25.22
30.85
35.43
38.91
41.57
43.76
45.69
47.21
47.67
45.89
40.29
29.26
11.52
-13.47
-45.19
-81.91
-120.89
-158.72
-191.93
-217.65
-234.09
-240.85
-238.89
-230.25
-217.44
-202.96
-188.70
-175.74
-164.19
-153.35
-141.97
-128.72
-112.57
-93.14
-70.87
-46.85
-22.66
0.01
19.61
34.98
45.48
51.00
51.90
49.01
43.51
36.79
30.16
24.72
21.13
19.51
19.54
20.55
21.82
22.82
23.45
23.92
24.68
26.02
28.05
30.60
33.44
36.31
38.85
40.42
40.07
36.72
29.83
19.96
9.00
-0.13
-4.35
-1.35
9.73
28.24
52.37
79.75
108.01
135.07
159.43
180.14
196.98
210.39
221.20
230.34
238.42
245.53
251.22
254.86
255.84
253.73
248.19
238.65
224.05
202.96
174.16
137.44
94.45
48.68
4.89
-32.14
-58.98
-74.45
-79.63
-77.06
-69.73
-60.02
-49.42
-38.95
-29.79
-23.84
-23.54
-31.13
-47.58
-71.84
-100.80
-130.16
-155.61
-173.85
-183.22
-183.58
-175.93
-161.89
-143.38
-122.43
-101.05
-81.12
-64.20
-51.24
-42.41
-37.12
-34.18
-32.14
-29.78
-26.50
-22.46
-18.38
-15.16
-13.46
-13.49
-15.11
-18.08
-22.27
-27.64
-34.22
-41.90
-50.46
-59.51
-68.58
-77.22
-85.00
-91.61
-96.81
-100.53
-102.75
-103.49
-102.84
-100.96
-98.27
-95.52
-93.73
-93.80
-96.20
-100.60
-106.04
-111.17
-114.77
-116.14
-115.11
-111.92
-106.96
-100.67
-93.47
-85.91
-78.71
-72.64
-68.23
-65.44
-63.52
-61.01
-56.04
-46.89
-32.49
-13.03
9.88
33.45
54.40
69.95
78.85
81.87
81.48
81.02
83.32
89.75
99.83
111.71
123.08
132.16
138.28
141.74
143.33
143.69
143.12
141.62
139.23
136.22
132.96
129.51
125.16
118.45
107.63
91.58
70.54
46.42
22.30
1.41
-13.91
-22.84
-25.91
-24.50
-20.01
-13.48
-5.58
3.07
11.50
18.33
22.14
21.90
17.44
9.50
-0.45
-10.70
-19.69
-26.35
-30.19
-31.25
-30.02
-27.19
-23.53
-19.72
-16.21
-13.23
-10.91
-9.39
-9.00
-10.25
-13.75
-19.89
-28.50
-38.64
-48.63
-56.36
-59.99
-58.39
-51.64
-40.95
-28.32
-16.03
-6.05
0.35
2.78
1.68
-1.89
-6.53
-10.72
-13.05
-12.47
-8.39
-0.86
9.43
21.29
33.28
44.22
53.37
60.53
65.81
69.32
71.00
70.65
68.10
63.44
57.02
49.42
41.32
33.57
27.16
23.16
22.26
24.39
28.38
32.17
33.49
30.70
23.42
12.47
-0.62
-14.27
-27.28
-38.96
-48.84
-56.59
-61.93
-64.90
-65.90
-65.56
-64.57
-63.30
-61.85
-60.09
-58.05
-56.12
-55.11
-56.17
-60.41
-68.61
-80.84
-96.11
-112.39
-126.75
-136.02
-137.63
-130.51
-115.39
-94.60
-71.23
-48.05
-26.77
-7.82
9.19
24.72
38.77
50.68
59.51
64.60
65.95
64.18
60.20
54.79
48.34
41.00
32.96
24.79
17.47
12.16
9.66
10.13
12.93
16.87
20.63
23.11
23.71
22.34
19.36
15.45
11.48
8.41
7.06
7.99
11.25
16.50
23.07
30.23
37.36
44.04
49.96
54.80
58.28
60.21
60.60
59.72
57.99
55.83
53.53
51.22
48.84
46.17
42.88
38.50
32.55
24.71
14.85
3.14
-10.07
-24.19
-38.41
-51.60
-62.33
-69.17
-71.03
-67.69
-59.90
-49.04
-36.70
-23.99
-11.48
0.74
12.59
23.65
33.26
40.68
45.54
48.01
48.75
48.56
48.03
47.27
46.00
43.75
40.18
35.34
29.64
23.64
17.84
12.38
7.06
1.45
-4.86
-12.13
-20.47
-29.84
-40.06
-50.75
-61.16
-70.09
-76.07
-77.75
-74.32
-65.83
-53.14
-37.64
-20.72
-3.60
12.82
27.77
40.50
50.34
56.88
60.22
60.97
60.04
58.27
56.20
53.95
51.39
48.35
44.82
40.96
37.13
33.74
31.11
29.32
28.12
26.90
24.92
21.56
16.70
10.80
4.76
-0.47
-4.32
-6.84
-8.57
-10.30
-12.73
-16.31
-21.33
-27.78
-35.36
-43.23
-49.98
-53.97
-53.81
-49.12
-40.78
-30.73
-21.33
-14.45
-11.00
-10.86
-13.28
-17.36
-22.31
-27.40
-31.65
-33.74
-32.14
-25.65
-13.97
2.08
20.72
39.74
57.23
72.01
83.82
93.01
100.23
106.01
110.62
114.16
116.60
117.92
118.04
116.79
113.88
108.98
101.82
92.31
80.57
66.77
51.09
33.66
14.80
-4.85
-24.11
-41.41
-55.10
-63.91
-67.34
-65.66
-59.76
-50.86
-40.28
-29.30
-19.23
-11.18
-5.94
-3.70
-4.00
-5.87
-8.20
-10.20
-11.60
-12.64
-13.77
-15.35
-17.29
-19.13
-20.14
-19.76
-17.78
-14.58
-10.93
-7.66
-5.36
-4.17
-3.89
-4.38
-6.03
-9.86
-17.24
-29.17
-45.61
-65.15
-85.24
-102.97
-115.81
-122.26
-121.93
-115.39
-103.87
-88.81
-71.69
-53.85
-36.33
-19.95
-5.34
6.96
16.45
22.79
25.95
26.28
24.51
21.47
17.87
14.13
10.47
7.07
4.29
2.65
2.70
4.63
8.13
12.27
15.81
17.55
16.72
13.23
7.57
0.58
-6.89
-14.27
-21.30
-27.91
-34.17
-40.19
-46.18
-52.35
-58.81
-65.22
-70.66
-73.67
-72.73
-66.91
-56.32
-42.25
-26.67
-11.63
1.48
12.14
20.60
27.36
32.79
36.90
39.44
40.19
39.21
36.94
33.99
30.87
27.83
24.84
21.67
18.15
14.30
10.20
5.97
1.56
-3.31
-9.01
-15.82
-23.83
-32.79
-42.29
-51.85
-61.07
-69.66
-77.47
-84.41
-90.56
-96.09
-101.30
-106.41
-111.39
-115.65
-118.07
-117.27
-112.09
-102.16
-88.15
-71.49
-53.90
-36.74
-20.66
-5.64
8.57
22.18
35.04
46.79
57.15
66.13
74.09
81.46
88.52
95.19
101.03
105.56
108.37
109.48
109.11
107.61
105.22
101.99
97.82
92.74
87.02
81.32
76.44
73.04
71.44
71.37
72.08
72.61
71.96
69.38
64.35
56.76
46.91
35.65
24.33
14.66
8.23
5.92
7.50
11.63
16.32
19.70
20.74
19.48
16.83
14.03
11.91
10.67
9.86
8.79
6.85
3.87
0.11
-3.89
-7.47
-10.17
-11.73
-12.12
-11.52
-10.22
-8.60
-7.12
-6.23
-6.23
-7.13
-8.58
-9.95
-10.57
-10.01
-8.25
-5.71
-3.06
-0.99
-0.01
-0.38
-2.23
-5.63
-10.67
-17.33
-25.26
-33.65
-41.22
-46.49
-48.29
-46.22
-40.89
-33.86
-27.07
-22.24
-20.24
-20.91
-23.26
-25.95
-27.80
-28.11
-26.79
-24.21
-20.84
-17.00
-12.68
-7.50
-0.99
7.12
16.67
27.21
38.12
48.97
59.66
70.41
81.47
93.04
105.13
117.74
130.91
144.69
158.85
172.74
185.18
194.56
199.28
197.98
189.94
175.43
155.77
132.92
108.59
83.41
56.70
27.12
-6.03
-41.65
-76.70
-107.27
-130.34
-145.15
-153.48
-158.56
-163.41
-169.63
-177.09
-184.56
-190.63
-194.21
-194.58
-191.22
-183.78
-172.17
-156.87
-138.92
-119.86
-101.42
-85.03
-71.45
-60.62
-51.88
-44.25
-36.97
-29.71
-22.55
-15.74
-9.35
-3.12
3.37
10.41
18.05
25.93
33.49
40.17
45.57
49.50
52.03
53.45
54.23
54.83
55.31
54.86
51.65
43.11
26.96
2.31
-29.56
-65.17
-99.81
-128.86
-149.06
-158.98
-158.90
-150.30
-135.16
-115.74
-94.40
-73.49
-55.10
-40.55
-30.21
-23.33
-18.49
-14.24
-9.61
-4.53
0.43
4.27
6.20
5.87
3.58
0.08
-3.72
-7.09
-9.62
-11.33
-12.58
-13.90
-15.83
-18.63
-22.14
-25.59
-27.69
-26.92
-21.99
-12.37
1.46
18.08
35.54
51.88
65.55
75.64
81.86
84.42
83.84
80.83
76.16
70.46
64.25
57.81
51.36
45.11
39.40
34.63
31.21
29.37
29.10
30.14
31.99
34.04
35.61
36.10
35.05
32.21
27.55
21.12
12.99
3.18
-8.34
-21.50
-35.97
-50.98
-65.38
-77.73
-86.57
-90.78
-89.90
-84.29
-75.04
-63.70
-51.83
-40.60
-30.58
-21.85
-14.20
-7.44
-1.46
3.70
8.07
11.91
15.62
19.65
24.28
29.54
35.22
41.10
47.02
52.95
58.83
64.57
70.00
74.99
79.60
84.08
88.80
93.98
99.42
104.48
108.09
108.99
106.05
98.64
86.99
72.37
56.92
43.13
33.11
27.77
26.59
27.85
29.39
29.51
27.61
24.32
21.11
19.62
20.98
25.32
31.81
38.84
44.64
47.65
46.91
42.11
33.59
22.15
8.97
-4.49
-16.75
-26.59
-33.36
-37.23
-39.20
-40.91
-44.26
-50.99
-62.31
-78.53
-98.92
-121.79
-144.68
-164.87
-179.86
-187.72
-187.47
-179.15
-163.78
-143.20
-119.67
-95.44
-72.28
-51.22
-32.50
-15.90
-1.05
12.24
23.99
34.14
42.72
49.97
56.27
62.05
67.54
72.68
77.13
80.30
81.64
80.91
78.29
74.48
70.49
67.34
65.84
66.32
68.60
71.94
75.26
77.34
77.39
75.34
72.14
69.61
69.90
74.89
85.62
101.94
122.37
144.21
163.78
176.91
179.75
169.70
146.29
111.64
70.04
26.93
-12.67
-45.67
-71.60
-92.40
-111.16
-130.62
-151.82
-173.85
-194.31
-210.52
-220.62
-224.08
-221.49
-214.13
-203.36
-190.50
-176.81
-163.67
-152.43
-144.22
-139.41
-137.36
-136.38
-134.07
-127.98
-116.38
-98.78
-76.14
-50.48
-24.13
1.07
24.35
45.93
66.68
87.28
107.79
127.39
144.62
157.95
166.32
169.58
168.55
164.85
160.28
156.38
154.06
153.48
154.36
156.31
159.27
163.72
170.51
180.45
193.65
209.07
224.21
235.60
239.54
233.16
215.21
186.58
150.12
110.14
71.49
38.73
15.33
3.08
1.89
9.66
22.91
37.58
50.17
58.40
61.26
58.50
49.86
34.78
12.87
-15.31
-47.65
-80.61
-110.25
-133.56
-149.37
-158.38
-162.33
-162.83
-160.66
-155.84
-148.21
-138.18
-127.00
-116.52
-108.63
-104.50
-104.18
-106.68
-110.27
-113.18
-114.24
-113.19
-110.65
-107.67
-105.25
-103.85
-103.40
-103.46
-103.61
-103.73
-104.01
-104.85
-106.45
-108.63
-110.81
-112.27
-112.44
-111.09
-108.30
-104.31
-99.29
-93.22
-86.05
-77.77
-68.69
-59.48
-51.15
-44.81
-41.46
-41.66
-45.41
-52.07
-60.59
-69.71
-78.16
-84.71
-88.24
-87.83
-82.85
-73.28
-59.72
-43.41
-25.83
-8.35
8.09
23.05
36.49
48.53
59.25
68.57
76.22
81.85
85.04
85.49
83.04
77.93
70.62
61.83
52.41
43.29
35.54
30.20
28.16
29.80
34.83
42.19
50.38
57.88
63.47
66.42
66.39
63.35
57.59
49.91
41.69
34.73
30.80
30.97
35.21
42.46
51.13
59.74
67.49
74.22
80.19
85.55
90.07
93.11
93.93
92.11
87.83
81.97
75.85
70.83
67.85
67.08
67.94
69.37
70.24
69.83
68.05
65.45
63.08
62.17
63.79
68.42
75.68
83.98
90.55
92.03
85.37
69.08
44.18
14.30
-15.19
-38.85
-52.88
-56.15
-50.07
-37.58
-21.69
-4.63
12.34
28.40
42.62
53.74
60.53
62.33
59.45
53.02
44.49
35.01
25.12
14.76
3.66
-8.26
-20.79
-33.55
-46.10
-58.24
-69.96
-81.31
-92.35
-102.99
-113.13
-122.69
-131.72
-140.32
-148.56
-156.26
-162.92
-167.77
-169.97
-168.85
-164.20
-156.29
-145.78
-133.51
-120.28
-106.74
-93.43
-80.88
-69.61
-60.11
-52.57
-46.83
-42.29
-38.09
-33.41
-27.78
-21.22
-14.16
-7.22
-0.92
4.48
9.04
13.02
16.65
19.98
22.80
24.77
25.60
25.30
24.15
22.61
21.06
19.64
18.14
16.17
13.47
10.18
6.95
4.86
4.92
7.76
13.33
20.89
29.31
37.27
43.48
46.75
46.16
41.28
32.55
21.44
10.24
1.34
-3.58
-4.21
-1.49
2.97
7.80
12.51
17.35
22.84
29.11
35.58
41.19
44.94
46.27
45.20
42.11
37.43
31.40
24.11
15.67
6.34
-3.36
-12.69
-20.74
-26.49
-28.92
-27.28
-21.38
-11.77
0.27
13.07
25.08
35.20
42.95
48.32
51.48
52.60
51.81
49.33
45.59
41.29
37.19
33.99
32.03
31.28
31.43
31.89
32.08
31.51
29.89
27.14
23.46
19.10
14.37
9.42
4.28
-1.14
-6.91
-13.05
-19.52
-26.29
-33.45
-41.10
-49.16
-57.05
-63.61
-67.22
-66.38
-60.25
-49.13
-34.36
-17.92
-1.81
12.48
24.15
32.90
38.79
42.00
42.96
42.32
40.84
39.23
37.79
36.40
34.61
32.09
28.80
25.19
21.92
19.61
18.53
18.54
19.31
20.43
21.67
22.86
23.84
24.38
24.13
22.71
19.74
14.89
7.93
-1.16
-12.01
-23.72
-34.93
-44.21
-50.54
-53.77
-54.74
-54.82
-55.29
-56.66
-58.34
-59.03
-57.39
-52.70
-45.25
-36.15
-26.76
-18.11
-10.56
-3.92
2.26
8.25
14.02
19.25
23.59
26.89
29.19
30.71
31.67
32.25
32.60
32.86
33.12
33.29
33.02
31.73
28.81
23.84
16.84
8.48
-0.00
-6.97
-10.75
-10.05
-4.42
5.69
19.01
33.98
49.32
64.57
79.98
95.98
112.14
126.59
136.00
136.32
124.14
97.88
58.53
9.63
-43.46
-94.52
-137.72
-168.57
-184.76
-186.42
-176.00
-157.47
-135.25
-113.26
-94.21
-79.49
-69.31
-63.09
-59.69
-57.71
-55.81
-53.09
-49.30
-44.77
-40.04
-35.24
-29.76
-22.36
-11.71
2.82
20.75
40.47
59.86
76.88
90.24
99.60
105.45
108.81
110.84
112.72
115.45
119.64
125.30
131.56
136.55
137.63
132.14
118.22
95.70
66.18
32.46
-2.57
-37.01
-70.17
-102.04
-132.20
-159.03
-179.82
-191.85
-193.80
-186.72
-173.73
-158.81
-145.09
-133.69
-123.75
-113.31
-100.69
-85.42
-68.34
-51.02
-34.78
-20.14
-6.77
6.00
18.60
30.88
42.15
51.75
59.46
65.84
71.98
79.04
87.68
97.89
108.99
119.93
129.68
137.28
142.02
143.37
141.13
135.50
127.18
117.17
106.55
96.01
85.64
75.03
63.50
50.45
35.64
19.27
1.87
-15.76
-32.68
-48.05
-61.24
-72.01
-80.54
-87.44
-93.29
-98.48
-102.90
-106.02
-107.11
-105.56
-101.15
-93.99
-84.50
-73.17
-60.35
-46.15
-30.24
-12.04
9.03
32.94
58.62
83.96
106.24
123.13
133.55
137.96
137.89
134.97
129.93
122.38
111.31
96.06
77.02
55.45
32.78
9.62
-14.47
-40.49
-68.76
-98.09
-125.63
-147.79
-161.72
-166.48
-163.33
-155.01
-144.47
-133.80
-123.78
-114.29
-104.80
-95.03
-85.03
-74.98
-64.91
-54.42
-42.84
-29.46
-13.96
3.41
21.71
39.63
55.93
69.87
81.34
90.64
98.06
103.43
105.97
104.55
98.22
86.64
70.24
50.07
27.45
3.60
-20.55
-44.18
-66.53
-86.69
-103.70
-116.62
-124.68
-127.40
-124.57
-116.24
-102.61
-84.05
-61.04
-34.26
-4.67
26.51
57.79
87.74
115.38
140.51
163.82
186.49
209.26
231.60
251.07
263.68
265.02
251.84
223.18
180.57
127.27
67.13
3.68
-60.09
-121.35
-177.03
-224.03
-259.75
-282.86
-293.56
-293.12
-283.12
-264.58
-238.00
-203.75
-162.94
-117.89
-71.92
-28.73
8.49
37.66
57.96
69.64
73.62
71.29
64.33
54.73
44.66
36.18
30.79
28.93
29.72
31.13
30.72
26.50
17.67
4.95
-9.76
-24.16
-36.30
-45.14
-50.52
-52.71
-51.91
-47.88
-40.08
-27.98
-11.50
8.86
32.20
57.53
83.66
108.86
130.40
144.73
148.53
140.41
122.10
98.52
76.08
60.07
52.51
51.48
52.34
50.07
41.42
25.86
5.09
-18.09
-40.84
-60.66
-75.32
-82.75
-81.36
-70.61
-51.66
-27.47
-2.25
19.57
34.59
41.29
40.22
33.35
23.02
10.85
-2.76
-18.42
-36.92
-58.23
-80.90
-102.25
-119.24
-129.64
-132.82
-129.86
-122.77
-113.65
-103.74
-93.27
-81.80
-68.75
-53.94
-37.71
-20.79
-4.00
12.06
27.26
42.02
57.21
73.93
93.00
114.38
136.90
158.25
175.69
186.84
190.26
185.61
173.28
153.80
127.59
95.11
57.38
16.14
-26.25
-67.50
-106.04
-141.10
-172.12
-197.83
-215.77
-222.80
-216.37
-195.92
-163.51
-123.26
-79.96
-37.59
1.39
35.77
64.79
87.59
103.23
111.28
112.54
109.07
103.65
98.61
94.85
91.37
85.58
74.23
54.73
26.52
-8.07
-44.12
-75.29
-95.87
-102.62
-95.72
-78.26
-54.86
-29.88
-6.31
14.49
32.34
47.67
61.09
73.28
84.71
95.18
103.43
107.09
103.52
91.13
70.58
44.98
18.90
-3.50
-20.31
-32.48
-43.02
-54.92
-69.06
-83.21
-92.71
-92.60
-80.01
-55.72
-23.97
9.20
38.17
59.43
72.01
76.52
74.04
65.23
50.35
29.96
5.49
-20.68
-46.02
-68.78
-88.57
-106.11
-122.41
-137.77
-151.22
-160.75
-164.00
-159.31
-146.35
-126.39
-101.97
-76.16
-51.75
-30.56
-13.22
0.63
11.79
20.97
28.43
34.02
37.38
38.28
36.74
33.03
27.53
20.73
13.28
6.02
-0.06
-4.07
-5.44
-4.11
-0.53
4.55
10.27
15.79
20.37
23.45
24.64
23.93
21.79
19.25
17.72
18.65
23.05
31.09
41.96
54.16
65.95
75.96
83.47
88.52
91.65
93.52
94.68
95.31
95.27
94.25
91.93
88.23
83.28
77.33
70.46
62.47
52.86
41.07
26.91
10.82
-6.14
-22.55
-37.15
-49.15
-58.42
-65.29
-70.30
-73.97
-76.67
-78.56
-79.65
-79.74
-78.47
-75.34
-70.00
-62.44
-53.19
-43.31
-33.95
-25.97
-19.55
-14.26
-9.36
-4.28
1.09
6.40
11.12
14.89
17.71
19.99
22.27
25.02
28.52
32.78
37.57
42.47
46.73
49.44
49.68
46.95
41.49
34.40
27.31
21.79
18.75
17.97
18.23
17.72
14.56
7.40
-4.24
-19.69
-37.21
-54.06
-67.15
-73.69
-72.17
-62.75
-47.31
-28.67
-9.66
7.72
22.51
34.55
43.90
50.48
54.07
54.61
52.48
48.52
43.75
38.92
34.35
30.18
26.83
25.10
25.80
29.01
33.67
37.77
39.35
37.46
32.66
26.50
20.44
14.88
9.01
1.54
-8.29
-19.98
-31.98
-42.37
-49.65
-52.98
-52.10
-46.97
-37.73
-25.00
-10.03
5.33
18.99
29.29
35.51
38.01
37.87
36.38
34.52
32.77
31.17
29.56
27.88
26.25
24.90
24.06
23.77
23.86
23.98
23.75
22.77
20.64
16.94
11.28
3.67
-5.26
-14.18
-21.25
-24.84
-24.26
-20.33
-15.34
-12.32
-13.88
-21.06
-32.83
-46.46
-58.65
-66.85
-70.18
-69.39
-66.12
-61.90
-57.38
-52.29
-46.00
-38.18
-29.27
-20.32
-12.39
-6.03
-1.00
3.47
8.17
13.45
19.03
24.15
27.92
29.72
29.36
27.10
23.44
18.86
13.65
7.99
2.11
-3.43
-7.79
-10.09
-9.85
-7.35
-3.54
0.31
3.27
5.04
6.00
6.71
7.36
7.37
5.62
1.04
-6.64
-16.64
-27.31
-36.79
-43.71
-47.46
-48.15
-46.25
-42.20
-36.26
-28.77
-20.33
-11.88
-4.58
0.60
3.19
3.29
1.47
-1.53
-5.02
-8.48
-11.59
-14.19
-16.26
-17.89
-19.27
-20.64
-22.25
-24.36
-27.20
-30.99
-35.75
-41.26
-46.79
-51.18
-53.01
-51.09
-44.87
-34.74
-22.03
-8.42
4.45
15.56
24.51
31.42
36.57
40.17
42.28
43.00
42.64
41.75
41.04
41.06
41.96
43.40
44.78
45.44
44.97
43.35
40.86
38.03
35.34
33.17
31.72
30.97
30.67
30.34
29.40
27.16
23.12
17.12
9.55
1.39
-5.91
-10.80
-12.18
-9.79
-4.30
2.92
10.32
16.76
21.72
25.23
27.53
28.78
29.00
28.22
26.73
25.16
24.37
25.20
28.05
32.79
38.56
43.93
47.10
46.40
40.70
29.87
14.91
-2.34
-19.61
-34.89
-46.77
-54.60
-58.44
-58.87
-56.91
-53.81
-50.82
-48.78
-47.82
-47.26
-45.83
-42.11
-35.17
-24.86
-11.82
2.73
17.44
31.09
42.72
51.68
57.56
60.32
60.21
57.88
54.22
50.24
46.74
44.28
43.06
42.97
43.80
45.21
46.88
48.46
49.67
50.23
50.03
49.09
47.53
45.42
42.65
38.82
33.34
25.54
15.07
2.09
-12.51
-27.23
-40.18
-49.68
-54.65
-55.04
-51.79
-46.49
-40.85
-36.17
-33.08
-31.72
-32.15
-34.61
-39.62
-47.49
-57.89
-69.47
-80.11
-87.57
-90.27
-87.89
-81.25
-71.90
-61.39
-50.78
-40.62
-31.21
-22.88
-16.15
-11.60
-9.63
-10.20
-12.85
-16.86
-21.45
-25.92
-29.58
-31.75
-31.71
-28.81
-22.78
-13.88
-2.92
9.01
20.76
31.45
40.47
47.34
51.67
53.09
51.54
47.53
42.33
37.95
36.59
40.02
48.87
62.27
77.95
92.70
103.29
107.25
103.53
92.65
76.50
57.79
39.43
23.87
12.68
6.33
4.27
5.40
8.65
13.48
19.92
28.27
38.36
49.16
58.77
65.07
66.49
62.57
53.88
41.48
26.24
8.57
-11.34
-32.99
-55.21
-76.20
-94.02
-107.23
-115.18
-117.95
-115.99
-109.82
-99.91
-86.82
-71.29
-54.25
-36.58
-18.83
-1.15
16.35
33.21
48.09
58.96
63.63
60.69
50.20
33.70
13.59
-7.77
-28.88
-49.24
-68.83
-87.41
-104.01
-117.00
-124.67
-125.97
-120.85
-110.14
-95.09
-76.94
-56.56
-34.63
-11.72
11.44
33.91
54.67
72.83
87.79
99.17
106.72
110.08
108.83
102.66
91.66
76.52
58.52
39.20
19.92
1.60
-15.27
-30.33
-43.02
-52.58
-58.41
-60.49
-59.66
-57.45
-55.54
-55.16
-56.78
-60.11
-64.49
-69.23
-73.88
-78.28
-82.43
-86.44
-90.27
-93.76
-96.41
-97.52
-96.25
-91.96
-84.43
-74.00
-61.32
-47.10
-31.87
-15.94
0.44
16.87
32.67
47.05
59.29
69.03
76.36
81.66
85.36
87.63
88.31
86.94
82.99
76.18
66.65
55.17
42.83
30.88
20.31
11.64
4.87
-0.29
-4.18
-7.01
-8.82
-9.69
-9.85
-9.83
-10.25
-11.53
-13.72
-16.41
-18.99
-20.97
-22.11
-22.44
-22.02
-20.65
-17.91
-13.36
-6.84
1.28
10.39
19.90
29.70
39.98
50.68
60.85
68.57
71.65
68.92
61.22
51.43
43.40
40.19
42.71
49.40
57.22
63.20
65.71
64.61
60.66
54.56
46.42
35.91
22.88
7.97
-7.42
-21.52
-32.98
-41.28
-46.87
-50.85
-54.36
-58.08
-62.00
-65.35
-66.81
-64.85
-58.15
-46.05
-28.82
-7.64
15.78
39.82
63.57
87.17
111.63
138.21
167.49
198.78
229.92
257.77
279.05
291.42
294.07
287.79
274.46
256.31
235.31
213.07
190.95
170.37
152.80
139.38
130.30
124.53
119.95
114.17
105.53
93.73
79.78
65.42
52.19
40.87
31.28
22.67
14.18
5.08
-5.24
-17.25
-31.02
-45.86
-59.85
-70.17
-73.92
-69.29
-56.36
-37.03
-14.16
9.70
33.08
55.54
76.87
96.16
111.60
120.97
122.80
117.19
105.88
91.48
76.27
61.28
46.04
28.98
8.13
-18.18
-50.88
-89.93
-133.97
-180.15
-224.23
-261.34
-287.19
-299.56
-298.96
-288.48
-272.56
-255.42
-239.75
-226.30
-214.18
-201.46
-186.01
-165.90
-140.02
-108.57
-73.34
-37.58
-5.39
19.42
34.21
38.10
31.82
17.28
-3.16
-26.99
-51.76
-75.11
-94.97
-109.82
-119.01
-122.84
-122.48
-119.65
-116.14
-113.37
-112.02
-111.92
-112.26
-112.07
-110.74
-108.28
-105.34
-102.74
-101.09
-100.37
-100.00
-99.13
-96.93
-92.83
-86.52
-77.86
-66.75
-53.37
-38.28
-22.34
-6.56
8.25
21.62
33.31
43.05
50.27
54.06
53.59
48.48
39.09
26.39
11.50
-4.68
-21.55
-38.52
-54.64
-68.34
-77.68
-80.68
