1515727498.00
64.000000
-0.00
-0.00
-0.00
-0.00
-0.00
-0.00
-0.00
-0.00
-0.00
-0.00
0.00
0.01
0.01
-0.00
-0.03
-0.05
-0.05
0.00
0.13
0.36
0.66
1.01
1.37
1.72
2.06
2.40
2.79
3.24
3.80
4.42
5.06
5.66
6.20
6.68
7.15
7.68
8.31
9.14
10.09
11.04
11.88
12.56
13.14
13.76
14.65
15.96
17.91
20.32
22.90
25.38
27.58
29.57
31.68
34.32
37.81
42.54
48.15
54.10
59.83
64.97
69.58
74.14
79.34
85.71
93.76
103.00
112.62
121.73
129.77
136.75
143.30
150.75
157.77
166.64
177.95
191.79
206.97
220.57
228.25
225.36
208.53
176.87
132.76
80.05
23.07
-34.94
-92.44
-149.16
-205.23
-260.37
-313.74
-363.88
-409.83
-450.90
-486.49
-515.72
-537.20
-549.17
-549.89
-538.27
-514.07
-478.50
-433.66
-382.18
-326.70
-269.46
-212.19
-156.15
-102.37
-51.73
-5.19
36.37
72.30
102.30
126.54
145.51
159.93
170.50
177.84
182.36
184.33
184.00
181.62
177.56
172.22
166.01
159.27
152.25
145.10
137.89
130.66
123.45
116.33
109.37
102.64
96.20
90.06
84.26
78.81
73.71
68.97
64.60
60.62
57.02
53.79
50.94
48.45
46.35
44.61
43.24
42.22
41.53
41.12
40.92
40.82
40.69
40.37
39.68
38.46
36.57
33.91
30.45
26.20
21.21
15.65
9.71
3.63
-2.35
-7.98
-13.04
-17.36
-20.82
-23.36
-24.96
-25.68
-25.61
-24.87
-23.57
-21.84
-19.78
-17.50
-15.04
-12.45
-9.78
-7.05
-4.30
-1.52
1.28
4.10
6.95
9.84
12.79
15.76
18.73
21.69
24.65
27.62
30.65
33.78
37.06
40.58
44.26
48.07
51.99
56.03
60.21
64.56
69.14
74.00
79.26
84.76
90.42
96.19
102.04
107.94
113.88
119.86
125.90
132.05
137.99
143.51
148.39
152.39
155.24
156.56
155.87
152.45
147.69
142.10
136.00
129.60
123.05
116.46
109.93
103.55
97.44
91.74
86.30
81.03
75.89
70.88
66.00
61.29
56.79
52.56
48.69
45.02
41.49
38.05
34.68
31.41
28.27
25.30
22.58
20.18
18.01
15.99
14.03
12.07
10.07
7.99
5.85
3.69
1.56
-0.59
-2.79
-5.05
-7.40
-9.82
-12.24
-14.57
-16.71
-18.57
-20.14
-21.44
-22.57
-23.62
-24.67
-25.75
-26.85
-27.91
-28.94
-29.98
-31.22
-32.88
-35.13
-38.02
-41.43
-45.05
-48.49
-51.48
-53.95
-56.13
-58.45
-61.38
-65.21
-69.91
-75.17
-80.54
-85.67
-90.62
-95.84
-102.13
-110.24
-120.68
-133.41
-147.96
-163.66
-179.94
-196.57
-213.69
-231.72
-251.30
-273.18
-298.24
-327.00
-358.92
-391.67
-421.17
-442.49
-451.63
-447.17
-430.83
-406.58
-378.68
-349.87
-320.63
-289.86
-256.30
-219.73
-181.18
-142.29
-104.52
-68.63
-34.93
-3.79
24.11
47.93
66.94
80.98
90.59
96.92
101.49
105.81
111.11
118.15
127.21
138.37
151.66
167.19
184.98
204.57
224.72
243.47
258.81
269.33
274.89
276.36
274.92
271.12
264.37
253.25
236.38
213.39
185.21
153.87
121.54
89.58
58.26
27.01
-4.68
-36.41
-66.53
-92.57
-112.07
-123.52
-126.93
-123.63
-115.80
-105.47
-93.89
-81.29
-67.24
-51.50
-34.85
-19.38
-7.91
-2.78
-4.54
-11.56
-20.58
-28.24
-32.59
-33.55
-32.54
-31.08
-29.89
-28.53
-26.06
-21.88
-16.37
-10.72
-6.29
-4.11
-4.76
-8.69
-16.47
-28.60
-45.00
-64.53
-85.05
-103.92
-119.16
-130.02
-137.00
-141.15
-143.06
-142.49
-138.60
-131.30
-121.96
-113.72
-110.22
-113.84
-124.22
-138.32
-151.69
-160.27
-161.84
-155.97
-143.35
-124.77
-100.89
-72.69
-42.10
-12.19
13.78
33.48
46.52
54.33
59.30
63.54
68.05
72.86
77.48
81.61
85.37
89.12
93.07
97.02
100.43
102.66
103.50
103.26
102.60
102.09
101.81
101.12
98.97
94.35
86.67
76.14
63.42
48.97
32.36
11.97
-14.25
-47.44
-86.40
-127.52
-165.63
-195.91
-215.44
-223.61
-221.43
-210.26
-191.13
-165.04
-133.92
-101.15
-70.86
-46.18
-27.61
-12.71
2.51
21.10
43.39
66.67
86.66
99.68
104.22
101.47
94.29
85.76
77.93
71.48
66.16
61.68
58.26
56.55
57.21
60.14
64.17
67.20
67.06
62.45
53.56
42.10
30.56
21.19
15.14
12.16
11.03
10.21
8.67
6.13
3.08
0.33
-1.48
-2.14
-2.04
-1.77
-1.96
-2.90
-4.55
-6.60
-8.67
-10.55
-12.22
-13.82
-15.43
-17.06
-18.55
-19.75
-20.65
-21.43
-22.52
-24.29
-26.99
-30.53
-34.55
-38.58
-42.18
-45.13
-47.45
-49.38
-51.13
-52.99
-55.15
-57.78
-60.96
-64.67
-68.78
-73.11
-77.85
-83.73
-92.01
-103.73
-118.88
-135.59
-150.23
-158.44
-156.52
-142.57
-116.78
-81.04
-38.52
6.68
49.42
83.98
105.05
109.52
97.88
74.53
46.59
21.56
5.11
-0.12
5.51
19.49
38.27
58.04
75.44
88.17
95.41
97.97
97.76
96.83
96.37
96.38
96.05
94.52
91.64
87.90
84.03
80.26
75.96
69.81
60.43
47.21
30.72
12.88
-3.74
-16.55
-23.76
-24.75
-19.94
-10.29
3.42
20.90
42.20
67.04
94.25
121.53
146.10
165.79
180.02
190.19
198.96
209.12
222.33
238.40
255.40
270.42
280.74
284.56
281.33
271.38
255.34
233.45
205.43
170.84
129.64
83.03
33.66
-14.70
-58.14
-93.84
-120.83
-140.13
-153.96
-164.73
-174.15
-182.84
-190.68
-197.31
-202.48
-205.99
-207.52
-206.40
-201.84
-193.43
-181.52
-167.20
-151.76
-136.16
-120.71
-105.09
-88.96
-72.21
-55.01
-37.34
-18.62
2.31
26.82
55.87
89.19
124.86
159.21
187.29
203.97
205.12
188.68
155.18
107.71
51.37
-7.45
-61.92
-105.70
-134.02
-144.79
-139.29
-121.93
-99.02
-76.80
-59.60
-48.77
-43.08
-39.98
-36.88
-32.10
-24.94
-15.36
-3.77
9.25
22.74
35.43
45.80
52.49
54.82
53.04
48.46
43.05
38.90
37.48
38.94
41.88
43.63
41.28
32.82
18.15
-0.62
-19.94
-36.12
-46.81
-51.67
-52.18
-50.59
-48.65
-46.90
-44.69
-40.90
-34.85
-26.78
-17.66
-8.86
-1.62
3.22
5.26
4.61
1.95
-1.31
-2.93
-0.22
9.29
26.72
51.17
79.49
107.21
129.97
144.95
151.63
151.29
146.01
137.40
126.19
112.44
96.53
79.63
63.73
50.82
41.88
36.48
33.09
30.08
26.45
22.22
17.98
14.17
10.67
6.66
1.26
-5.92
-14.35
-22.75
-29.59
-33.77
-35.06
-34.08
-32.04
-30.17
-29.32
-29.77
-31.31
-33.40
-35.38
-36.70
-37.00
-36.24
-34.67
-32.70
-30.78
-29.20
-28.05
-27.21
-26.55
-25.96
-25.46
-25.06
-24.72
-24.39
-23.96
-23.39
-22.70
-22.02
-21.41
-20.89
-20.48
-20.22
-20.23
-20.71
-21.82
-23.52
-25.58
-27.57
-29.06
-29.67
-29.27
-27.87
-25.60
-22.64
-19.20
-15.55
-11.93
-8.58
-5.65
-3.12
-0.99
0.82
2.31
3.53
4.55
5.45
6.29
7.02
7.53
7.68
7.41
6.82
6.11
5.44
4.83
4.20
3.33
2.09
0.53
-1.12
-2.53
-3.47
-3.86
-3.90
-3.89
-4.19
-5.00
-6.40
-8.30
-10.53
-12.90
-15.25
-17.35
-18.93
-19.68
-19.37
-17.94
-15.63
-12.91
-10.40
-8.65
-7.99
-8.40
-9.61
-11.15
-12.43
-12.92
-12.27
-10.52
-8.20
-6.35
-6.18
-8.56
-13.44
-19.50
-24.52
-26.00
-22.08
-11.92
4.53
26.83
54.13
84.69
115.38
141.86
159.85
166.81
163.14
151.92
137.24
122.11
107.31
92.05
75.58
58.73
43.89
33.73
29.34
29.42
31.04
31.33
29.11
25.12
20.92
17.59
14.78
10.97
4.41
-5.64
-18.45
-32.06
-44.31
-53.71
-60.13
-64.67
-68.98
-74.35
-80.90
-87.47
-91.95
-92.37
-87.81
-78.93
-67.72
-56.53
-47.03
-39.39
-32.61
-25.34
-16.94
-7.93
0.25
6.19
9.44
10.75
11.55
12.83
14.38
14.65
11.53
3.60
-9.05
-24.73
-40.94
-55.51
-67.41
-76.86
-84.55
-90.85
-95.18
-96.37
-93.27
-85.69
-74.62
-61.92
-49.51
-38.62
-29.56
-21.80
-14.65
-7.62
-0.70
5.61
10.41
12.40
10.14
2.15
-12.40
-33.31
-59.04
-87.09
-114.79
-140.10
-162.05
-180.39
-195.07
-205.52
-210.53
-208.65
-198.85
-181.15
-156.77
-127.81
-96.56
-65.05
-34.85
-7.31
16.34
35.17
48.88
58.15
64.46
69.81
76.01
84.08
94.02
104.90
115.44
124.53
131.63
136.72
140.14
142.27
143.50
144.20
144.74
145.56
146.94
149.13
152.37
156.99
163.30
171.38
180.75
190.13
197.60
201.10
199.33
192.54
182.79
173.40
167.60
167.33
172.28
180.31
188.23
193.01
192.38
184.72
168.81
143.74
109.62
68.42
24.61
-15.59
-46.17
-63.85
-69.66
-68.51
-66.89
-69.70
-78.20
-89.68
-99.21
-102.27
-96.99
-85.25
-71.79
-62.46
-61.91
-72.09
-92.07
-118.68
-147.93
-175.66
-198.01
-211.57
-214.01
-204.82
-186.06
-162.12
-138.46
-119.78
-108.23
-103.04
-101.31
-99.84
-96.53
-91.16
-84.87
-79.06
-74.40
-70.09
-63.98
-53.14
-35.22
-9.80
20.82
51.78
77.58
94.18
100.99
100.95
98.99
99.54
104.36
112.03
119.04
121.99
119.29
111.88
102.25
92.93
85.19
78.74
72.65
66.44
60.96
58.03
59.46
65.83
75.99
87.38
97.10
102.97
104.03
100.51
93.02
81.98
67.35
48.87
26.76
2.17
-22.60
-44.62
-60.95
-69.64
-70.35
-64.48
-54.91
-45.30
-39.27
-39.63
-47.88
-63.88
-85.70
-109.74
-131.07
-144.34
-145.02
-130.97
-103.46
-67.40
-30.23
0.06
17.21
18.31
3.88
-22.88
-57.86
-97.27
-138.15
-178.22
-215.45
-248.01
-274.46
-294.28
-307.96
-316.65
-321.38
-322.24
-318.21
-307.58
-288.83
-261.48
-226.65
-186.75
-144.83
-103.58
-64.67
-28.44
5.80
39.07
72.10
104.89
136.87
167.25
195.21
220.05
240.89
256.56
265.60
266.65
259.05
243.37
221.38
195.77
169.44
144.68
122.82
104.11
88.11
74.11
61.53
50.14
39.85
30.89
23.53
18.29
15.88
17.13
22.62
32.28
45.06
59.04
72.04
82.34
89.20
93.05
95.03
96.36
97.74
99.21
100.22
100.15
98.52
95.28
90.69
85.01
78.49
71.14
62.99
54.20
45.20
36.66
29.20
23.27
18.83
15.50
12.64
9.58
5.87
1.39
-3.57
-8.45
-12.51
-15.25
-16.59
-17.00
-17.34
-18.47
-20.85
-24.27
-27.92
-30.72
-31.89
-31.27
-29.50
-27.65
-26.70
-27.20
-29.08
-31.94
-35.49
-39.84
-45.49
-52.99
-62.48
-73.48
-85.09
-96.48
-107.19
-117.07
-125.77
-132.20
-134.57
-130.97
-120.38
-103.47
-82.50
-60.59
-40.51
-23.83
-10.87
-1.08
6.16
11.27
14.41
15.83
16.01
15.61
15.21
15.13
15.47
16.22
17.48
19.42
22.11
25.36
28.75
31.78
34.09
35.69
36.85
38.08
39.93
42.87
47.25
53.08
60.05
67.35
73.92
78.66
81.01
81.50
81.93
85.05
93.51
108.58
129.21
152.09
172.64
186.81
192.60
190.54
183.18
173.54
163.70
153.98
143.27
129.91
112.89
92.39
69.77
47.10
26.52
9.71
-2.37
-9.73
-13.48
-15.60
-18.51
-24.55
-35.30
-51.30
-71.90
-95.54
-120.12
-143.52
-163.99
-180.62
-193.54
-203.79
-212.92
-222.23
-232.11
-241.78
-249.47
-253.38
-252.54
-247.30
-238.89
-228.42
-216.24
-201.81
-184.48
-164.38
-142.80
-121.91
-103.89
-89.88
-79.56
-71.26
-62.57
-51.12
-35.03
-13.03
15.70
51.45
93.69
140.49
188.27
232.17
267.10
289.38
298.21
296.18
288.24
279.51
272.81
267.36
259.59
245.22
221.82
190.07
153.35
115.87
80.59
48.15
16.97
-15.40
-51.04
-90.89
-134.29
-178.57
-218.98
-249.25
-263.27
-257.72
-234.35
-200.61
-167.36
-144.50
-136.42
-139.87
-145.77
-144.11
-129.43
-103.49
-74.09
-50.46
-38.30
-37.01
-40.55
-40.99
-32.46
-13.67
12.43
40.97
67.95
91.99
113.95
135.23
156.14
174.92
188.34
193.46
189.21
177.33
161.92
147.81
138.83
136.35
139.05
143.52
145.74
142.53
132.61
116.85
97.58
77.60
59.26
43.82
31.29
20.62
10.15
-1.98
-17.20
-36.08
-57.89
-80.63
-101.27
-116.58
-124.18
-123.42
-115.89
-104.85
-94.29
-87.52
-85.98
-88.58
-92.05
-92.06
-84.51
-66.90
-38.73
-1.50
41.72
86.98
130.08
167.47
197.03
218.64
233.94
245.51
255.42
264.06
269.95
270.42
263.12
247.09
223.41
194.39
162.59
129.76
96.49
62.48
27.05
-9.96
-47.90
-85.21
-119.96
-150.42
-175.70
-195.98
-212.17
-225.47
-236.64
-245.68
-252.02
-255.03
-254.52
-251.09
-245.93
-240.28
-234.97
-230.05
-224.89
-218.61
-210.43
-200.07
-187.65
-173.77
-159.00
-144.00
-129.28
-115.35
-102.53
-90.96
-80.55
-70.97
-61.96
-53.47
-45.94
-39.99
-36.11
-34.32
-34.12
-34.95
-36.37
-38.50
-41.50
-45.29
-49.15
-51.91
-52.61
-51.01
-47.99
-45.00
-43.50
-44.10
-46.46
-49.55
-52.19
-53.63
-53.60
-52.21
-49.63
-46.01
-41.40
-35.87
-29.70
-23.40
-17.80
-13.76
-12.23
-13.93
-19.23
-27.89
-38.75
-49.89
-59.09
-64.85
-67.36
-69.14
-74.30
-86.86
-108.65
-137.63
-168.01
-192.01
-202.57
-195.55
-170.84
-131.95
-84.78
-36.05
8.08
43.00
66.56
79.41
84.78
87.54
92.62
103.60
121.95
147.16
177.23
209.29
240.07
266.21
284.87
294.37
294.85
288.37
278.19
267.52
258.30
250.57
242.51
231.39
214.89
192.03
163.67
132.30
101.14
73.14
49.97
31.84
17.68
6.04
-4.05
-12.74
-19.48
-23.64
-25.10
-24.58
-23.43
-23.05
-24.24
-26.87
-30.07
-32.79
-34.31
-34.58
-34.09
-33.43
-32.81
-31.93
-30.21
-27.23
-22.96
-17.82
-12.33
-6.81
-1.33
4.19
9.62
14.45
17.94
19.41
18.67
16.13
12.75
9.59
7.51
6.89
7.55
8.99
10.58
11.79
12.29
11.96
10.81
8.98
6.66
4.04
1.37
-1.21
-3.67
-6.09
-8.61
-11.34
-14.24
-17.05
-19.37
-20.72
-20.75
-19.28
-16.41
-12.52
-8.15
-3.82
0.09
3.42
6.24
8.69
10.81
12.48
13.41
13.38
12.30
10.39
8.03
5.63
3.48
1.71
0.28
-0.93
-2.00
-2.98
-3.83
-4.52
-5.08
-5.74
-6.93
-9.16
-12.83
-18.01
-24.33
-31.02
-37.15
-41.98
-45.19
-46.97
-47.96
-49.01
-50.89
-54.05
-58.45
-63.54
-68.23
-71.07
-70.62
-65.88
-56.72
-44.02
-29.54
-15.33
-3.03
6.69
14.28
20.88
27.64
34.87
41.66
45.88
44.96
36.95
21.53
0.61
-22.06
-41.92
-54.99
-58.87
-53.13
-39.30
-20.42
-0.63
15.69
24.98
25.83
19.74
11.03
5.49
8.26
21.81
44.98
73.71
102.79
127.93
147.00
160.17
169.02
175.16
179.07
179.28
172.51
155.03
124.83
83.61
37.28
-5.71
-37.39
-53.20
-53.25
-41.24
-22.09
0.48
24.67
49.66
73.74
93.32
103.85
101.92
87.74
65.72
43.09
27.06
21.86
27.20
38.74
50.14
55.83
53.21
43.26
29.53
16.28
6.52
1.08
-1.14
-2.12
-3.57
-6.06
-9.07
-11.54
-12.65
-12.42
-11.54
-11.05
-11.63
-13.29
-15.39
-17.00
-17.49
-16.89
-15.95
-15.69
-16.96
-19.90
-23.84
-27.61
-29.97
-30.29
-28.67
-25.98
-23.26
-21.35
-20.44
-20.10
-19.53
-18.12
-15.72
-12.73
-9.86
-7.72
-6.55
-6.16
-6.16
-6.20
-6.20
-6.38
-7.01
-8.29
-10.13
-12.17
-13.95
-15.11
-15.57
-15.51
-15.33
-15.35
-15.71
-16.30
-16.84
-17.12
-17.11
-17.05
-17.18
-17.64
-18.32
-18.90
-19.01
-18.51
-17.55
-16.47
-15.62
-15.11
-14.81
-14.33
-13.30
-11.55
-9.17
-6.47
-3.83
-1.59
0.07
1.17
1.89
2.47
3.06
3.66
4.05
3.99
3.24
1.76
-0.31
-2.71
-5.12
-7.26
-9.01
-10.37
-11.55
-12.90
-14.92
-17.93
-21.99
-26.70
-31.43
-35.59
-38.98
-41.81
-44.51
-47.53
-51.09
-55.46
-61.00
-68.26
-77.68
-89.46
-103.46
-119.30
-136.69
-155.37
-174.94
-194.19
-210.93
-222.33
-226.04
-221.45
-210.32
-196.65
-185.29
-180.10
-182.29
-189.93
-198.37
-201.69
-194.16
-171.43
-131.34
-74.36
-3.96
73.33
148.69
212.71
257.95
281.16
284.30
273.38
255.96
238.48
224.79
216.41
213.48
215.68
221.90
229.63
234.76
232.61
220.06
197.55
169.76
143.82
126.04
118.72
119.03
120.42
115.82
100.89
75.48
43.06
8.49
-24.09
-52.31
-75.16
-91.66
-99.98
-97.80
-83.91
-59.63
-29.40
0.76
25.37
41.38
48.71
49.42
46.24
41.24
35.64
30.04
25.04
21.33
19.49
19.63
21.31
23.76
26.15
27.81
28.14
26.46
22.25
15.35
6.43
-3.22
-11.93
-18.40
-22.06
-23.37
-23.56
-24.15
-26.36
-30.47
-35.75
-40.68
-43.63
-43.59
-40.63
-35.75
-30.32
-25.56
-22.09
-19.93
-18.57
-17.22
-15.02
-11.19
-5.44
1.93
9.86
16.96
22.02
24.48
24.71
23.74
22.92
23.31
25.35
28.59
31.90
33.76
32.86
28.57
21.22
12.04
2.76
-4.84
-9.48
-10.60
-8.62
-4.79
-0.79
1.72
1.86
-0.13
-2.96
-4.93
-4.90
-2.88
-0.29
0.92
-0.82
-5.72
-12.49
-18.81
-22.32
-21.77
-17.46
-11.41
-6.44
-5.21
-8.98
-17.12
-27.32
-36.59
-42.52
-44.27
-42.89
-40.55
-39.49
-40.82
-44.09
-47.63
-49.45
-48.31
-44.16
-38.21
-32.15
-27.39
-24.24
-21.84
-18.76
-13.86
-7.10
0.58
7.84
13.85
18.77
23.54
29.25
36.36
44.41
52.13
58.14
61.56
62.51
61.90
60.98
61.02
63.09
68.28
77.57
91.47
109.46
129.42
147.75
160.16
163.06
154.80
136.37
111.00
83.03
56.48
33.98
16.42
3.01
-8.26
-19.88
-33.89
-51.02
-70.20
-88.92
-104.38
-114.86
-120.55
-123.34
-125.66
-129.08
-133.49
-137.32
-138.47
-135.46
-127.97
-116.86
-103.71
-90.11
-77.34
-66.16
-56.87
-49.39
-43.46
-38.75
-35.07
-32.49
-31.25
-31.52
-32.95
-34.57
-34.98
-33.00
-28.21
-21.25
-13.45
-6.08
0.41
6.75
14.32
24.27
36.62
49.82
61.33
68.52
69.97
66.03
58.79
51.19
45.86
44.35
46.76
52.13
58.92
65.60
70.66
72.55
69.61
60.24
43.53
19.73
-9.37
-40.74
-70.81
-96.34
-115.11
-126.18
-129.91
-127.47
-120.49
-110.50
-98.78
-86.26
-73.63
-61.43
-50.09
-39.85
-30.52
-21.51
-11.99
-1.41
10.04
21.24
30.39
35.80
36.45
32.44
24.88
15.32
5.18
-4.70
-14.05
-22.94
-31.39
-39.22
-46.05
-51.35
-54.50
-54.83
-52.05
-46.76
-40.87
-37.18
-38.45
-45.95
-58.62
-73.37
-86.28
-94.46
-97.31
-96.65
-95.77
-98.17
-106.35
-121.16
-141.74
-165.43
-188.19
-205.40
-213.06
-209.05
-193.86
-170.18
-141.45
-110.48
-78.38
-44.56
-7.38
34.67
81.96
132.95
184.04
230.27
266.40
288.77
296.48
291.83
279.45
264.41
250.43
238.82
228.74
218.51
207.07
194.56
181.90
169.76
157.89
145.25
130.75
114.15
96.41
79.37
64.93
54.27
47.50
43.81
42.02
41.10
40.62
40.80
42.24
45.38
49.82
54.20
56.42
54.66
48.48
39.40
30.40
24.37
22.50
23.43
24.04
21.21
13.60
2.40
-9.70
-20.05
-27.45
-32.20
-35.29
-37.18
-37.28
-34.45
-27.85
-17.78
-5.70
6.31
16.10
21.69
21.13
12.65
-4.60
-29.32
-57.58
-83.35
-100.47
-104.85
-95.78
-75.66
-48.27
-17.10
15.46
47.60
77.24
101.65
118.01
124.69
121.79
110.85
93.51
70.46
41.36
6.18
-33.30
-72.87
-106.42
-127.86
-133.18
-122.00
-97.99
-68.05
-40.69
-23.93
-22.96
-38.33
-65.32
-95.28
-118.32
-126.52
-116.02
-87.69
-45.85
3.55
54.46
101.21
138.57
161.89
167.82
155.48
127.09
87.79
44.38
3.48
-30.03
-53.73
-67.66
-73.78
-75.12
-75.09
-76.52
-81.18
-89.49
-100.49
-112.31
-122.60
-129.01
-129.37
-122.08
-106.82
-85.46
-62.72
-45.23
-39.30
-47.56
-66.62
-86.83
-95.03
-79.41
-34.38
36.44
121.10
203.24
267.77
305.47
314.89
300.81
270.59
230.71
185.12
136.01
85.51
36.93
-5.41
-37.63
-57.69
-66.08
-65.21
-58.27
-48.40
-38.56
-31.85
-31.27
-39.23
-56.55
-81.64
-110.42
-136.95
-154.71
-158.20
-144.62
-115.17
-75.35
-33.43
2.59
28.14
43.75
54.09
64.93
79.65
97.27
112.96
120.68
116.30
99.55
73.91
44.69
16.81
-7.02
-26.71
-43.89
-60.54
-77.60
-94.38
-108.75
-117.78
-118.46
-108.02
-84.24
-46.23
4.28
61.75
116.83
158.44
177.80
172.40
147.90
116.23
90.65
79.96
85.09
99.40
112.51
115.10
102.67
76.45
41.88
5.92
-25.47
-48.73
-62.95
-69.45
-70.91
-70.52
-71.21
-74.92
-82.17
-92.10
-102.77
-111.63
-115.91
-113.19
-102.34
-84.55
-63.89
-46.41
-37.98
-41.57
-55.43
-73.49
-87.71
-91.67
-83.10
-64.74
-42.76
-24.05
-13.48
-12.44
-18.86
-28.31
-35.69
-36.65
-28.96
-13.21
7.27
27.57
42.91
50.34
49.71
43.45
35.53
29.88
28.96
33.11
40.66
48.71
53.96
53.48
45.10
28.08
3.83
-23.47
-47.05
-59.25
-54.28
-30.95
5.79
45.82
76.90
88.85
77.07
43.98
-1.96
-49.27
-87.12
-108.47
-111.74
-100.56
-81.87
-63.26
-50.45
-45.82
-48.40
-55.01
-61.86
-65.69
-64.16
-55.99
-41.24
-21.96
-2.50
11.26
14.04
3.77
-16.64
-39.80
-56.59
-60.27
-49.56
-29.17
-7.53
7.41
11.77
7.23
-0.27
-3.58
2.28
18.15
40.71
64.28
83.46
95.28
99.99
100.15
98.81
97.80
97.21
96.04
93.30
88.65
82.08
73.14
60.67
43.59
22.33
-0.10
-18.50
-27.48
-24.01
-9.23
11.74
31.75
44.32
45.83
36.13
17.80
-5.35
-29.45
-51.26
-68.43
-79.62
-84.69
-84.76
-82.03
-78.92
-77.24
-77.52
-78.98
-80.13
-79.42
-75.59
-67.47
-53.95
-34.65
-11.02
12.75
30.45
36.20
27.60
7.64
-15.87
-33.48
-38.33
-29.08
-10.10
11.13
27.76
36.52
38.30
36.67
35.38
36.29
38.75
40.29
38.29
31.62
21.40
10.56
2.42
-0.98
0.15
3.70
7.01
8.26
7.14
4.56
1.65
-1.07
-3.84
-6.91
-9.79
-10.93
-8.39
-1.05
10.30
22.90
32.94
37.24
34.67
26.76
17.21
10.46
10.05
17.48
31.68
49.50
66.66
79.12
84.15
81.07
71.25
57.49
42.97
30.22
20.41
13.39
8.25
4.09
0.55
-2.17
-3.67
-3.85
-3.04
-1.80
-0.39
1.39
4.10
8.13
13.29
18.67
23.00
25.16
24.61
21.48
16.34
9.95
2.99
-3.96
-10.34
-15.65
-19.52
-21.77
-22.53
-22.20
-21.31
-20.49
-20.33
-21.29
-23.57
-27.04
-31.26
-35.55
-39.16
-41.56
-42.46
-41.98
-40.59
-39.13
-38.68
-40.35
-44.82
-51.93
-60.47
-68.37
-73.27
-73.28
-67.69
-57.11
-43.28
-28.49
-14.82
-3.70
4.25
9.19
11.68
12.32
11.53
9.45
6.01
1.26
-4.53
-10.83
-16.95
-22.19
-25.84
-27.07
-24.99
-19.00
-9.29
2.70
14.48
23.29
27.16
25.86
20.89
14.81
10.07
8.04
8.83
11.80
16.27
21.97
28.93
37.05
45.54
53.05
57.95
59.05
56.07
49.72
41.36
32.43
24.01
16.56
10.14
4.64
0.12
-3.18
-4.84
-4.54
-2.25
1.71
6.66
11.65
15.56
17.34
16.32
12.43
6.37
-0.60
-6.95
-11.32
-12.84
-11.23
-6.73
0.03
8.20
16.80
24.86
31.57
36.32
38.88
39.32
37.89
34.95
30.91
26.25
21.48
17.07
13.24
9.96
6.94
3.89
0.66
-2.81
-6.43
-10.19
-14.09
-17.96
-21.49
-24.23
-25.83
-26.26
-25.88
-25.26
-24.89
-24.90
-24.98
-24.55
-23.09
-20.37
-16.53
-12.11
-7.84
-4.33
-2.00
-0.82
-0.32
0.28
1.87
5.10
10.15
16.65
23.84
30.86
37.15
42.55
47.22
51.36
54.86
57.15
57.39
54.89
49.48
41.76
32.89
24.17
16.57
10.53
5.98
2.50
-0.39
-3.07
-5.77
-8.56
-11.36
-13.98
-16.18
-17.74
-18.53
-18.53
-17.80
-16.40
-14.43
-11.96
-9.19
-6.40
-4.04
-2.50
-2.00
-2.45
-3.47
-4.53
-5.23
-5.50
-5.66
-6.28
-7.98
-11.10
-15.53
-20.70
-25.75
-29.87
-32.59
-33.99
-34.72
-35.74
-37.93
-41.67
-46.79
-52.53
-58.00
-62.52
-65.93
-68.65
-71.55
-75.64
-81.81
-90.53
-101.58
-113.95
-125.99
-135.84
-142.17
-144.57
-143.62
-140.22
-134.60
-125.53
-110.23
-85.19
-47.42
4.03
67.19
136.93
205.72
265.07
307.47
328.04
325.54
302.37
263.53
215.21
163.33
112.63
66.23
25.93
-7.20
-32.29
-48.50
-55.40
-53.61
-45.30
-33.94
-23.15
-15.43
-11.12
-8.73
-6.34
-3.21
-0.48
-0.72
-6.26
-17.72
-33.69
-51.41
-68.16
-82.22
-93.07
-100.90
-106.12
-109.15
-110.45
-110.74
-110.89
-111.85
-114.36
-119.10
-126.66
-137.42
-151.24
-167.02
-182.64
-195.21
-202.05
-201.50
-193.55
-179.66
-161.85
-141.62
-119.02
-92.68
-60.84
-22.92
19.32
61.68
98.74
125.96
141.31
145.61
141.48
131.84
119.01
104.82
91.67
82.97
82.41
92.00
110.46
133.01
153.20
165.92
169.53
166.14
159.82
154.21
150.67
148.20
144.62
138.25
129.02
118.50
109.18
103.22
101.47
102.92
105.22
105.62
102.14
94.47
83.96
72.85
63.04
55.28
49.10
43.46
37.67
31.86
26.90
23.72
22.67
23.11
23.67
22.76
19.32
13.24
5.38
-2.85
-10.20
-16.15
-21.06
-25.92
-31.88
-39.76
-49.68
-61.04
-72.75
-83.58
-92.60
-99.45
-104.46
-108.41
-112.17
-116.19
-120.28
-123.58
-124.92
-123.30
-118.20
-109.73
-98.48
-85.32
-71.23
-57.34
-44.84
-34.87
-28.17
-24.69
-23.38
-22.41
-19.76
-14.11
-5.42
4.89
14.57
21.41
24.09
22.58
17.93
11.82
5.88
1.36
-1.06
-1.19
0.72
4.14
8.34
12.47
15.74
17.50
17.31
14.97
10.54
4.44
-2.47
-9.17
-14.81
-19.15
-22.79
-26.92
-32.70
-40.48
-49.31
-57.02
-60.87
-58.54
-48.97
-32.82
-12.25
9.66
29.77
45.77
56.70
63.21
67.12
70.61
75.08
80.37
84.71
85.32
79.69
66.72
47.24
23.76
-0.54
-22.89
-41.60
-56.07
-66.38
-72.64
-74.78
-72.72
-66.96
-58.90
-50.62
-44.21
-40.96
-40.75
-42.27
-43.75
-43.78
-42.02
-39.03
-35.84
-33.26
-31.45
-30.04
-28.49
-26.56
-24.30
-21.90
-19.31
-16.04
-11.42
-5.10
2.30
8.89
11.94
9.03
-0.68
-15.64
-32.23
-46.25
-54.63
-56.70
-54.16
-50.01
-46.98
-46.48
-48.58
-52.71
-58.36
-65.28
-73.05
-80.47
-85.58
-86.26
-81.16
-70.33
-54.94
-36.60
-16.52
4.83
27.49
51.33
75.61
98.90
119.57
136.17
147.81
154.06
154.70
149.55
138.55
121.86
100.15
74.63
47.01
19.30
-6.48
-28.49
-45.38
-56.26
-60.76
-58.89
-51.13
-38.55
-22.84
-6.27
8.76
20.31
27.55
30.79
31.11
29.90
28.29
27.19
27.39
29.68
34.76
42.86
53.45
65.29
76.81
86.57
93.61
97.40
97.57
93.84
85.99
74.22
59.42
43.16
27.42
13.99
3.99
-2.37
-5.70
-7.14
-7.79
-8.39
-9.22
-10.22
-11.20
-11.94
-12.16
-11.46
-9.53
-6.35
-2.44
1.35
4.21
5.79
6.21
5.71
4.18
0.73
-5.87
-16.58
-31.18
-47.88
-63.83
-76.18
-83.22
-84.90
-82.51
-77.84
-72.12
-65.63
-57.84
-48.19
-36.68
-24.00
-11.03
2.02
15.86
31.85
50.92
72.64
94.87
114.19
126.76
129.39
120.29
99.80
70.70
38.13
8.69
-11.36
-18.31
-12.54
1.44
16.90
27.65
30.38
25.13
14.26
0.46
-14.50
-29.78
-44.63
-57.47
-66.02
-68.12
-63.05
-52.02
-37.79
-23.57
-11.85
-3.85
0.37
1.27
-0.73
-5.56
-13.29
-23.77
-36.30
-49.50
-61.52
-70.55
-75.42
-75.99
-73.21
-68.71
-64.09
-60.40
-57.81
-55.87
-53.87
-51.29
-47.96
-44.05
-39.84
-35.54
-31.30
-27.13
-23.27
-20.20
-18.63
-19.38
-23.01
-29.54
-38.28
-47.94
-56.96
-63.97
-68.25
-70.00
-70.25
-70.52
-72.36
-76.75
-83.73
-92.06
-99.37
-102.43
-97.88
-83.07
-56.71
-19.35
26.67
77.80
129.99
179.39
222.76
257.59
282.04
295.14
296.86
288.42
272.07
250.59
226.50
201.45
176.06
150.22
123.79
97.07
70.90
46.38
24.36
5.23
-11.14
-25.04
-36.78
-46.54
-54.51
-61.02
-66.46
-71.30
-75.80
-80.04
-83.97
-87.47
-90.54
-93.33
-96.19
-99.60
-104.06
-109.96
-117.48
-126.63
-137.20
-148.64
-159.97
-169.62
-175.70
-176.48
-171.14
-160.48
-147.00
-134.38
-126.15
-124.24
-128.20
-135.33
-141.89
-144.56
-141.40
-131.92
-116.42
-95.28
-68.48
-35.92
2.04
44.21
88.39
131.62
170.61
202.34
224.49
236.00
237.13
229.38
214.93
196.13
175.23
154.37
135.69
121.14
112.01
108.17
107.81
107.94
105.62
99.37
89.69
78.63
68.52
60.85
55.70
52.10
48.80
44.64
38.89
30.97
20.35
6.66
-9.98
-28.65
-47.60
-64.58
-77.46
-84.65
-85.39
-79.63
-67.80
-50.67
-29.20
-4.61
21.73
48.26
73.54
96.16
114.80
128.18
135.06
134.36
125.42
108.32
84.08
54.63
22.60
-9.24
-38.37
-63.02
-82.28
-96.10
-105.22
-110.77
-114.07
-116.30
-118.28
-120.16
-121.34
-120.54
-116.22
-107.24
-93.42
-75.89
-56.65
-38.05
-21.88
-8.97
0.86
8.37
14.31
18.95
22.08
23.30
22.47
20.00
16.88
14.45
14.08
16.77
23.00
32.48
44.28
56.97
69.05
79.33
87.14
92.47
95.73
97.46
98.04
97.70
96.45
94.33
91.44
87.85
83.70
79.13
74.41
69.77
65.16
60.02
53.33
44.03
31.75
17.44
3.23
-8.22
-14.89
-16.17
-12.88
-6.68
0.94
9.19
17.87
26.88
35.68
43.24
48.34
50.05
48.03
42.62
34.45
24.17
12.23
-1.05
-15.19
-29.44
-42.68
-53.70
-61.42
-65.23
-65.30
-62.70
-59.28
-57.13
-57.79
-61.53
-67.12
-72.28
-74.59
-72.43
-65.40
-54.35
-40.66
-25.67
-10.33
4.88
19.61
33.54
46.20
57.04
65.35
70.34
71.16
67.22
58.50
45.81
30.74
15.13
0.59
-12.00
-22.62
-31.74
-39.84
-46.92
-52.62
-56.44
-58.46
-59.56
-61.35
-65.38
-72.39
-81.79
-91.99
-101.26
-108.42
-113.11
-115.17
-114.02
-108.29
-96.55
-78.66
-56.89
-36.14
-22.62
-21.54
-34.92
-60.74
-93.52
-126.34
-153.05
-169.54
-174.05
-166.58
-148.24
-120.81
-86.74
-49.32
-12.45
19.98
44.96
61.15
69.25
71.66
71.78
73.03
77.92
87.47
101.14
117.23
133.63
148.42
160.40
169.06
174.45
176.94
176.99
175.08
171.60
166.67
160.23
152.28
143.14
133.74
125.35
119.06
115.21
113.12
111.38
108.39
103.11
95.26
85.14
73.18
59.68
44.88
29.13
13.17
-2.26
-16.73
-30.55
-44.54
-59.45
-75.56
-92.47
-109.60
-126.75
-144.46
-163.72
-185.18
-208.64
-232.66
-255.17
-273.96
-287.15
-292.98
-289.66
-275.53
-250.04
-214.70
-173.28
-130.99
-92.56
-60.62
-35.36
-15.61
-0.79
7.98
8.16
-2.29
-22.94
-49.83
-76.26
-95.12
-101.44
-93.98
-75.21
-49.87
-22.79
2.59
24.78
43.80
60.00
73.23
82.73
87.75
88.40
86.11
83.19
81.67
82.18
83.41
82.76
77.71
67.23
52.51
36.59
23.28
15.57
14.49
18.70
25.20
30.48
32.00
28.94
22.31
14.19
6.79
1.66
-0.67
-0.45
1.65
4.76
7.93
10.10
10.25
7.68
2.50
-4.17
-10.42
-14.21
-14.27
-10.54
-4.13
3.32
10.48
16.67
21.78
25.75
28.32
28.93
27.28
23.67
19.17
15.32
13.37
13.90
16.54
20.37
24.34
27.72
30.09
31.24
31.03
29.26
25.97
21.47
16.40
11.60
7.68
4.93
3.19
2.08
1.15
0.09
-1.38
-3.57
-6.80
-11.22
-16.64
-22.45
-27.86
-32.30
-35.58
-37.83
-39.16
-39.32
-37.73
-33.77
-27.31
-18.93
-9.79
-1.25
5.67
10.32
12.45
11.89
8.54
2.50
-5.61
-14.57
-22.74
-28.56
-31.05
-30.07
-26.15
-20.09
-12.67
-4.58
3.41
10.27
14.69
15.45
11.99
4.73
-4.80
-14.33
-21.53
-24.72
-23.25
-17.53
-8.77
1.51
11.89
21.32
29.27
35.61
40.53
44.29
47.24
49.54
51.21
52.08
51.94
50.67
48.36
45.38
42.15
39.04
36.19
33.56
31.03
28.63
26.50
24.76
23.28
21.50
18.46
13.07
4.56
-7.09
-20.84
-34.71
-46.21
-52.98
-53.74
-48.69
-39.54
-28.84
-18.88
-10.85
-4.58
0.87
6.41
12.37
18.45
24.21
29.33
33.48
35.89
35.17
29.95
20.07
7.62
-3.20
-7.63
-2.72
10.91
29.12
46.23
57.76
62.51
62.71
62.39
65.18
72.56
83.65
96.05
107.19
115.27
119.39
119.34
115.15
106.99
95.18
80.26
62.96
44.01
24.15
4.14
-15.14
-32.76
-47.96
-60.52
-70.83
-79.70
-87.72
-94.75
-99.74
-101.21
-98.07
-90.37
-79.51
-67.75
-57.31
-49.51
-44.32
-40.61
-36.76
-31.42
-24.07
-15.08
-5.50
3.45
10.98
17.05
22.43
28.36
35.91
45.41
56.11
66.48
74.82
79.97
81.65
80.39
76.94
71.99
65.97
59.34
52.87
47.69
44.92
45.16
48.29
53.58
60.36
68.41
78.05
89.53
102.23
114.42
123.52
127.18
124.28
115.62
103.48
90.75
79.72
71.32
65.08
59.50
53.00
44.59
34.37
23.46
13.42
5.57
0.23
-3.19
-5.83
-8.35
-10.32
-10.17
-5.94
3.44
17.42
33.56
48.21
57.71
59.40
52.09
35.92
11.74
-19.79
-58.48
-104.25
-155.90
-209.97
-260.40
-299.54
-320.48
-319.44
-297.19
-258.52
-210.15
-158.26
-107.20
-59.71
-18.06
14.99
36.46
44.45
39.48
24.93
6.05
-11.75
-24.55
-30.53
-30.04
-25.13
-18.80
-14.25
-13.91
-18.39
-25.73
-31.74
-31.50
-21.72
-2.30
23.49
50.62
74.64
93.28
106.50
115.15
119.60
119.06
112.30
98.87
79.93
58.09
36.36
17.09
1.33
-10.98
-20.48
-28.02
-34.53
-41.00
-48.45
-57.58
-68.51
-80.71
-93.21
-104.81
-114.37
-120.84
-123.49
-122.06
-116.99
-109.32
-100.46
-91.72
-83.97
-77.39
-71.50
-65.30
-57.57
-47.23
-33.59
-16.67
2.77
23.38
43.51
61.64
76.72
88.26
96.46
102.00
105.93
109.38
113.26
117.81
122.50
126.25
128.04
127.61
125.64
123.62
122.97
124.37
127.17
129.66
129.73
125.77
117.33
105.17
90.90
76.31
62.79
51.16
41.64
33.97
27.43
20.93
13.20
3.11
-9.77
-24.67
-39.46
-50.96
-55.82
-51.68
-38.05
-16.73
8.71
34.00
55.40
70.60
79.08
81.78
80.39
76.62
71.73
66.26
60.23
53.34
45.23
35.58
24.24
11.12
-3.77
-20.16
-37.51
-54.78
-70.65
-83.85
-93.69
-100.41
-105.09
-109.08
-113.21
-117.28
-120.05
-120.14
-117.02
-111.52
-105.61
-101.10
-98.65
-97.21
-94.74
-89.35
-80.47
-69.12
-57.32
-47.14
-39.88
-35.95
-35.15
-37.20
-41.87
-48.96
-58.03
-68.17
-78.24
-87.14
-94.14
-99.01
-101.94
-103.30
-103.41
-102.41
-100.25
-97.08
-93.39
-90.12
-88.09
-87.61
-87.91
-87.28
-83.71
-75.55
-62.36
-44.79
-24.34
-2.72
18.49
38.01
54.84
68.18
77.62
83.28
85.89
86.48
85.80
83.72
78.76
68.63
51.18
25.85
-5.44
-38.50
-68.23
-90.73
-104.78
-112.25
-116.66
-121.36
-127.70
-134.47
-138.82
-137.69
-129.29
-113.61
-92.23
-67.64
-42.62
-19.87
-1.75
10.06
15.04
14.04
9.19
3.23
-1.35
-3.09
-1.85
1.64
6.24
11.17
16.14
21.32
26.99
33.24
39.96
46.94
54.10
61.54
69.42
77.63
85.68
92.74
97.83
100.33
100.13
97.80
94.25
90.38
86.80
83.59
80.49
77.05
72.95
68.07
62.57
56.74
50.86
45.15
39.62
34.22
28.74
23.02
17.02
10.87
4.89
-0.58
-5.16
-8.69
-11.08
-12.43
-12.86
-12.54
-11.69
-10.43
-8.68
-5.92
-1.27
6.28
17.35
31.64
47.76
63.48
76.48
84.95
88.10
86.00
79.17
68.29
54.11
37.68
20.59
4.75
-8.08
-17.00
-22.28
-25.25
-27.63
-30.97
-36.08
-43.09
-51.68
-61.40
-71.80
-82.49
-93.09
-103.18
-112.45
-120.53
-127.01
-131.36
-132.86
-130.94
-125.41
-116.73
-105.93
-94.33
-83.09
-72.92
-63.99
-56.07
-48.80
-41.79
-34.71
-27.18
-18.82
-9.26
1.68
13.83
26.61
39.13
50.48
59.95
67.32
72.81
77.00
80.51
83.75
86.72
89.07
90.31
90.01
88.16
85.26
82.15
79.87
79.12
80.01
81.84
83.37
83.22
80.55
75.49
69.27
63.85
61.26
63.03
69.76
80.96
95.07
109.32
120.09
123.40
116.14
97.33
68.86
35.07
1.19
-28.59
-52.56
-71.38
-86.74
-99.64
-109.47
-114.51
-113.18
-105.47
-93.30
-79.85
-68.32
-60.91
-58.44
-60.55
-66.34
-74.55
-83.75
-92.22
-98.11
-99.88
-96.79
-89.25
-78.75
-67.44
-57.48
-50.46
-47.02
-46.65
-47.91
-48.67
-46.84
-40.81
-30.25
-16.31
-1.64
10.49
17.32
17.64
12.36
3.87
-5.08
-12.73
-18.85
-24.42
-30.55
-37.25
-43.10
-45.74
-43.18
-34.89
-22.41
-8.70
2.98
10.22
12.23
9.75
4.65
-0.87
-4.80
-5.96
-4.17
-0.22
4.27
7.49
7.96
4.97
-1.39
-10.27
-20.44
-30.41
-38.48
-42.96
-42.50
-36.57
-25.83
-12.16
1.74
13.27
20.68
23.75
23.65
22.44
22.04
23.41
26.32
29.61
32.20
33.68
34.70
36.22
38.77
41.77
43.55
42.34
37.29
29.25
20.51
13.97
12.06
15.83
24.72
36.54
47.97
55.34
55.73
48.06
33.79
16.62
1.35
-7.78
-8.52
-0.99
12.74
29.83
47.53
63.74
76.92
86.01
90.54
90.89
88.29
84.45
80.76
77.75
75.00
71.79
67.74
63.34
59.63
57.47
56.85
56.67
55.36
51.65
45.22
36.57
26.62
16.03
5.04
-6.41
-18.20
-29.79
-40.37
-49.12
-55.69
-60.25
-63.40
-65.76
-67.61
-68.81
-68.92
-67.52
-64.43
-59.82
-54.08
-47.65
-40.89
-33.89
-26.62
-19.07
-11.45
-4.19
2.07
6.73
9.47
10.35
9.82
8.51
7.11
6.15
5.92
6.44
7.53
8.88
10.12
10.96
11.19
10.76
9.73
8.25
6.50
4.65
2.77
0.91
-0.96
-2.91
-5.11
-7.71
-10.77
-14.08
-17.15
-19.23
-19.66
-18.15
-14.98
-10.89
-6.79
-3.34
-0.71
1.40
3.50
6.02
8.99
12.09
14.85
16.88
18.12
18.75
19.09
19.42
19.82
20.19
20.40
20.37
20.13
19.69
19.00
17.81
15.81
12.74
8.53
3.48
-1.90
-7.00
-11.44
-15.12
-18.30
-21.40
-24.65
-27.94
-30.71
-32.19
-31.81
-29.55
-25.93
-21.73
-17.59
-13.72
-9.93
-6.08
-2.32
0.73
2.48
2.72
2.04
1.58
2.54
5.56
10.40
16.14
21.69
26.26
29.64
31.98
33.60
34.60
34.99
34.60
33.37
31.32
28.57
25.26
21.52
17.47
13.31
9.33
5.89
3.31
1.79
1.36
1.80
2.71
3.63
4.06
3.70
2.49
0.62
-1.52
-3.52
-5.11
-6.28
-7.23
-8.35
-9.96
-12.23
-15.21
-18.83
-23.04
-27.79
-33.05
-38.61
-44.17
-49.36
-53.89
-57.71
-61.06
-64.33
-67.91
-71.97
-76.42
-80.91
-85.02
-88.33
-90.58
-91.72
-91.93
-91.51
-90.84
-90.04
-88.86
-86.58
-82.18
-74.72
-63.76
-49.65
-33.42
-16.55
-0.45
13.84
25.70
35.06
42.13
47.46
51.77
55.96
60.84
66.96
74.51
83.38
93.28
103.74
114.18
123.66
131.01
135.10
135.32
131.98
126.33
120.07
114.60
110.46
107.31
104.36
101.03
97.35
93.85
91.02
88.73
86.15
82.07
75.64
66.87
56.84
47.16
39.35
34.13
31.20
29.51
27.81
25.19
21.39
16.75
11.87
7.27
3.17
-0.58
-4.17
-7.72
-11.12
-14.13
-16.50
-18.20
-19.43
-20.45
-21.50
-22.64
-23.77
-24.71
-25.34
-25.70
-26.03
-26.66
-27.88
-29.83
-32.42
-35.44
-38.57
-41.51
-44.04
-46.01
-47.40
-48.20
-48.48
-48.34
-47.92
-47.35
-46.74
-46.17
-45.59
-44.89
-43.87
-42.36
-40.26
-37.68
-34.90
-32.31
-30.29
-29.08
-28.78
-29.31
-30.50
-32.09
-33.82
-35.47
-37.01
-38.62
-40.74
-43.82
-48.09
-53.28
-58.56
-62.81
-65.06
-64.90
-62.72
-59.46
-56.14
-53.32
-50.87
-48.14
-44.42
-39.33
-33.08
-26.34
-19.91
-14.42
-10.13
-7.10
-5.21
-4.17
-3.42
-2.07
0.90
6.18
13.63
22.09
29.86
35.46
38.47
39.80
41.10
43.83
48.45
54.17
59.61
63.71
66.40
68.69
72.07
77.81
86.45
97.76
111.00
125.13
139.03
151.40
161.00
166.77
168.22
165.62
159.86
152.15
143.51
134.62
125.78
117.04
108.45
100.05
91.85
83.73
75.47
66.89
57.95
48.83
39.82
31.24
23.24
15.91
9.26
3.37
-1.70
-6.02
-9.84
-13.55
-17.54
-21.97
-26.72
-31.45
-35.79
-39.53
-42.64
-45.24
-47.42
-49.17
-50.42
-51.07
-51.04
-50.23
-48.50
-45.73
-41.92
-37.36
-32.68
-28.79
-26.58
-26.62
-28.99
-33.20
-38.36
-43.44
-47.42
-49.46
-49.02
-45.98
-40.75
-34.19
-27.48
-21.72
-17.58
-15.01
-13.31
-11.59
-9.35
-6.94
-5.55
-6.69
-11.49
-20.06
-31.47
-44.03
-56.07
-66.42
-74.66
-80.93
-85.55
-88.69
-90.27
-90.16
-88.33
-85.00
-80.55
-75.40
-69.81
-63.81
-57.29
-50.20
-42.59
-34.70
-26.83
-19.26
-12.18
-5.73
-0.08
4.54
7.95
10.14
11.26
11.62
11.52
11.09
10.34
9.27
7.98
6.75
5.96
5.91
6.65
7.96
9.41
10.60
11.30
11.57
11.66
11.85
12.26
12.82
13.20
13.10
12.43
11.38
10.41
10.01
10.49
11.88
13.98
16.47
19.02
21.40
23.43
24.97
25.92
26.21
25.84
24.93
23.69
22.37
21.27
20.55
20.13
19.72
18.79
16.79
13.42
8.74
3.29
-2.21
-7.10
-11.12
-14.36
-17.17
-19.84
-22.44
-24.73
-26.43
-27.27
-27.22
-26.53
-25.64
-25.13
-25.62
-27.65
-31.49
-36.95
-43.27
-49.20
-53.39
-54.87
-53.46
-49.95
-45.88
-43.15
-43.41
-47.65
-55.92
-67.39
-80.48
-93.23
-103.90
-111.42
-115.86
-118.31
-120.39
-123.38
-127.41
-131.12
-131.79
-126.14
-111.46
-86.53
-52.25
-11.42
31.95
73.59
109.80
138.09
157.30
167.55
169.91
165.95
157.28
145.38
131.55
116.94
102.68
89.72
78.84
70.31
63.94
59.07
54.71
49.87
43.68
35.50
25.03
12.36
-1.89
-16.50
-29.96
-40.82
-48.35
-52.78
-55.21
-57.01
-59.21
-61.95
-64.58
-66.09
-65.74
-63.41
-59.47
-54.35
-48.15
-40.62
-31.50
-21.04
-10.23
-0.59
6.49
10.40
11.62
11.46
11.37
12.39
14.66
17.65
20.46
22.36
23.13
23.05
22.75
22.76
23.33
24.26
25.15
25.65
25.62
25.16
24.41
23.38
21.96
20.03
17.68
15.29
13.36
12.33
12.27
12.89
13.73
14.42
14.89
15.19
15.41
15.45
15.18
14.76
14.75
16.04
19.32
24.60
30.90
36.60
40.11
40.54
38.02
33.38
27.56
21.20
14.60
8.06
2.16
-2.27
-4.69
-5.42
-5.75
-7.44
-11.81
-18.94
-27.56
-35.60
-41.18
-43.44
-42.59
-39.44
-34.66
-28.23
-19.66
-8.44
5.31
20.71
36.38
51.03
63.90
74.85
84.15
92.08
98.67
103.70
106.91
108.23
107.91
106.46
104.41
102.18
99.85
97.12
93.38
87.98
80.56
71.41
61.42
51.74
43.25
36.02
29.42
22.50
14.64
5.89
-3.21
-12.17
-20.89
-29.67
-38.83
-48.09
-56.61
-63.26
-67.40
-69.28
-69.91
-70.61
-72.28
-75.12
-78.64
-82.07
-84.69
-86.05
-86.01
-84.65
-82.27
-79.25
-76.06
-73.07
-70.48
-68.35
-66.58
-65.00
-63.41
-61.52
-58.95
-55.25
-50.05
-43.18
-34.79
-25.26
-15.18
-5.13
4.41
13.11
20.79
27.30
32.54
36.39
38.83
39.93
40.00
39.39
38.46
37.36
35.85
33.34
29.07
22.46
13.48
2.74
-8.56
-19.07
-27.70
-33.98
-38.01
-40.40
-41.85
-43.04
-44.43
-46.35
-48.95
-52.23
-56.04
-60.06
-63.84
-66.95
-69.05
-69.90
-69.38
-67.48
-64.26
-59.98
-54.96
-49.64
-44.40
-39.42
-34.69
-30.00
-25.13
-19.94
-14.42
-8.60
-2.55
3.64
9.76
15.30
19.56
21.77
21.47
18.73
14.27
9.19
4.58
1.18
-0.84
-1.67
-1.70
-1.29
-0.62
0.16
0.92
1.40
1.32
0.34
-1.75
-5.02
-9.28
-14.03
-18.60
-22.20
-24.36
-25.03
-24.71
-24.29
-24.67
-26.44
-29.67
-33.95
-38.48
-42.44
-45.08
-45.90
-44.69
-41.49
-36.66
-30.74
-24.48
-18.62
-13.81
-10.47
-8.72
-8.39
-9.10
-10.32
-11.51
-12.27
-12.39
-11.93
-11.04
-9.89
-8.58
-7.06
-5.30
-3.27
-1.13
0.86
2.38
3.14
3.01
2.09
0.79
-0.28
-0.39
1.00
4.13
8.75
14.21
19.70
24.51
28.34
31.33
33.90
36.54
39.51
42.74
45.79
48.00
48.69
47.42
44.14
39.20
33.36
27.48
22.30
18.12
14.80
11.79
8.44
4.36
-0.44
-5.33
-9.34
-11.43
-10.93
-7.74
-2.46
3.79
9.72
14.13
16.17
15.42
11.89
5.96
-1.66
-9.95
-17.78
-24.03
-27.92
-29.19
-28.16
-25.61
-22.44
-19.41
-16.83
-14.68
-12.65
-10.41
-7.77
-4.75
-1.55
1.68
4.76
7.68
10.48
13.25
16.04
18.88
21.73
24.46
26.91
28.86
30.17
30.72
30.52
29.66
28.33
26.81
25.41
24.46
24.14
24.46
25.18
25.90
26.11
25.43
23.71
21.08
17.93
14.75
12.14
10.58
10.42
11.77
14.42
17.94
21.64
24.93
27.38
28.85
29.49
29.57
29.37
28.97
28.38
27.49
26.28
24.81
23.22
21.62
20.04
18.47
16.89
15.38
14.15
13.45
13.49
14.32
15.79
17.61
19.46
21.09
22.38
23.30
23.87
24.12
24.04
23.54
22.43
20.48
17.51
13.46
8.55
3.28
-1.62
-5.36
-7.31
-7.22
-5.26
-2.03
1.73
5.35
8.36
10.70
12.53
14.18
15.84
17.59
19.31
20.79
21.92
22.61
22.90
22.81
22.39
21.70
20.93
20.27
19.91
19.87
19.93
19.70
18.75
16.92
14.34
11.43
8.65
6.28
4.34
2.53
0.52
-1.93
-4.87
-8.11
-11.39
-14.43
-16.98
-18.88
-20.07
-20.55
-20.48
-20.07
-19.48
-18.85
-18.16
-17.36
-16.45
-15.54
-14.82
-14.46
-14.45
-14.54
-14.35
-13.53
-11.90
-9.51
-6.59
-3.43
-0.32
2.40
4.42
5.47
5.48
4.68
3.53
2.62
2.32
2.72
3.46
4.09
4.13
3.38
1.91
-0.04
-2.07
-3.85
-5.10
-5.71
-5.71
-5.27
-4.61
-3.85
-3.00
-1.94
-0.49
1.45
3.82
6.49
9.24
11.85
14.19
16.11
17.52
18.30
18.40
17.86
16.80
15.43
13.88
12.27
10.54
8.55
6.18
3.39
0.26
-3.00
-6.11
-8.83
-10.91
-12.22
-12.79
-12.74
-12.29
-11.62
-10.81
-9.78
-8.49
-6.93
-5.38
-4.30
-4.28
-5.71
-8.64
-12.75
-17.38
-21.79
-25.31
-27.49
-28.18
-27.52
-26.00
-24.28
-23.11
-23.00
-23.97
-25.40
-26.10
-24.74
-20.28
-12.51
-2.08
9.63
20.99
30.66
37.84
42.36
44.50
44.87
44.08
42.72
41.20
39.70
38.14
36.16
33.43
29.67
24.94
19.60
14.21
9.36
5.43
2.54
0.47
-1.18
-2.94
-5.25
-8.32
-12.07
-16.11
-19.83
-22.52
-23.61
-22.87
-20.53
-17.30
-14.14
-11.92
-11.00
-11.07
-11.25
-10.57
-8.42
-4.86
-0.62
3.36
6.17
7.28
6.47
3.81
-0.52
-6.11
-12.24
-17.82
-21.59
-22.53
-20.19
-14.96
-7.87
-0.30
6.49
11.73
15.13
16.86
17.22
16.45
14.75
12.17
8.83
4.78
0.18
-4.87
-10.17
-15.33
-19.75
-22.58
-23.09
-20.92
-16.52
-11.13
-6.51
-4.22
-4.96
-8.24
-12.53
-16.10
-17.76
-17.46
-16.13
-15.10
-15.34
-16.95
-19.25
-21.25
-22.26
-22.15
-21.32
-20.25
-19.28
-18.49
-17.85
-17.50
-17.80
-19.33
-22.56
-27.57
-33.87
-40.43
-46.09
-49.79
-50.90
-49.06
-44.14
-36.09
-25.11
-11.94
1.89
13.98
21.68
22.88
16.86
4.57
-11.78
-29.57
-46.67
-61.75
-74.18
-83.55
-89.46
-91.74
-90.73
-87.48
-83.43
-79.72
-76.51
-72.90
-67.38
-58.58
-45.98
-30.09
-12.15
6.30
23.85
39.35
51.94
61.06
66.51
68.62
68.34
66.99
66.08
66.85
70.00
75.55
82.85
90.82
98.29
104.30
108.35
110.29
110.35
108.90
106.40
103.32
100.06
96.84
93.75
90.76
87.92
85.53
84.04
84.12
86.33
90.92
97.68
105.85
114.24
121.46
126.16
127.40
124.82
118.75
110.10
100.02
89.46
78.99
68.64
58.14
47.21
35.91
24.60
13.84
4.00
-4.94
-13.33
-21.64
-30.11
-38.64
-46.95
-54.82
-62.49
-70.45
-79.26
-89.04
-99.31
-109.15
-117.59
-123.98
-128.14
-130.13
-129.96
-127.47
-122.37
-114.57
-104.42
-92.71
-80.36
-68.14
-56.45
-45.39
-35.04
-25.63
-17.59
-11.33
-6.97
-4.17
-2.16
-0.08
2.75
6.55
11.05
15.71
19.96
23.50
26.28
28.45
30.19
31.49
32.16
31.97
30.76
28.51
25.41
21.67
17.49
13.00
8.29
3.49
-1.19
-5.45
-8.93
-11.31
-12.37
-12.08
-10.58
-8.20
-5.35
-2.46
0.11
2.01
3.03
3.05
2.21
0.87
-0.38
-0.83
0.07
2.46
6.02
10.03
13.69
16.35
17.69
17.57
16.01
13.08
9.14
4.84
1.18
-0.94
-1.20
-0.16
0.91
0.66
-1.73
-6.20
-12.07
-18.48
-24.92
-31.31
-37.67
-43.82
-49.16
-53.02
-54.98
-55.19
-54.21
-52.67
-50.82
-48.49
-45.28
-40.87
-35.29
-28.94
-22.32
-15.91
-9.96
-4.54
0.39
4.82
8.70
11.97
14.60
16.68
18.30
19.54
20.36
20.63
20.19
18.91
16.82
14.07
10.90
7.57
4.31
1.23
-1.59
-4.06
-6.14
-7.80
-9.06
-10.04
-10.87
-11.64
-12.36
-12.93
-13.14
-12.80
-11.78
-10.09
-7.80
-5.12
-2.27
0.52
2.99
4.94
6.24
6.86
6.82
6.31
5.52
4.70
4.07
3.72
3.71
4.03
4.62
5.37
6.11
6.67
6.84
6.47
5.56
4.18
2.56
0.88
-0.74
-2.32
-3.94
-5.70
-7.58
-9.38
-10.73
-11.21
-10.45
-8.28
-4.75
-0.04
5.55
11.70
17.95
23.77
28.50
31.62
32.96
32.82
31.94
31.16
31.03
31.49
31.94
31.43
29.12
24.53
17.67
8.97
-0.81
-10.74
-19.80
-27.12
-32.06
-34.40
-34.35
-32.40
-29.12
-24.93
-20.11
-14.77
-9.04
-3.16
2.51
7.50
11.42
14.01
15.19
15.08
13.93
11.97
9.49
6.75
4.11
2.01
0.92
1.24
3.13
6.39
10.56
14.96
18.96
21.97
23.59
23.49
21.53
17.79
12.63
6.75
0.92
-4.08
-7.85
-10.36
-11.89
-12.83
-13.48
-13.92
-14.10
-13.96
-13.51
-12.87
-12.20
-11.63
-11.30
-11.26
-11.52
-12.07
-12.79
-13.56
-14.25
-14.82
-15.33
-16.01
-16.98
-18.32
-19.82
-21.12
-21.75
-21.34
-19.73
-17.11
-13.91
-10.67
-7.83
-5.66
-4.18
-3.28
-2.81
-2.65
-2.72
-2.94
-3.16
-3.22
-2.98
-2.39
-1.51
-0.52
0.41
1.13
1.58
1.78
1.78
1.60
1.26
0.75
0.07
-0.79
-1.84
-3.10
-4.56
-6.22
-8.05
-10.02
-12.09
-14.18
-16.19
-17.94
-19.17
-19.60
-18.99
-17.28
-14.54
-11.09
-7.36
-3.85
-0.93
1.20
2.57
3.46
4.24
5.21
6.50
8.03
9.61
11.04
12.21
13.11
13.77
14.19
14.33
14.11
13.50
12.56
11.35
9.96
8.31
6.25
3.50
-0.16
-4.77
-10.09
-15.59
-20.57
-24.39
-26.78
-27.86
-28.08
-27.89
-27.51
-26.86
-25.74
-24.17
-22.39
-20.73
-19.18
-17.00
-12.84
-5.31
6.13
20.66
36.22
50.36
61.39
69.08
74.60
79.65
85.45
92.05
98.45
103.22
105.36
104.60
101.17
95.35
87.14
76.41
63.34
48.87
34.59
22.25
13.07
7.14
3.49
0.59
-2.94
-7.72
-13.56
-19.64
-25.04
-29.08
-31.60
-32.88
-33.42
-33.65
-33.74
-33.56
-32.83
-31.35
-29.15
-26.62
-24.26
-22.57
-21.78
-21.80
-22.32
-22.92
-23.28
-23.24
-22.77
-21.90
-20.69
-19.22
-17.55
-15.82
-14.13
-12.55
-11.04
-9.52
-7.95
-6.36
-4.95
-4.03
-3.97
-5.05
-7.33
-10.62
-14.46
-18.26
-21.45
-23.58
-24.44
-24.02
-22.52
-20.26
-17.57
-14.77
-12.14
-9.89
-8.16
-7.00
-6.35
-6.00
-5.66
-5.06
-4.02
-2.56
-0.88
0.70
1.84
2.33
2.06
1.09
-0.50
-2.57
-5.05
-7.82
-10.75
-13.68
-16.37
-18.71
-20.59
-22.05
-23.17
-24.03
-24.71
-25.30
-25.92
-26.66
-27.51
-28.22
-28.30
-27.12
-24.26
-19.71
-13.95
-7.83
-2.23
2.28
5.56
7.86
9.59
11.13
12.70
14.39
16.20
18.14
20.24
22.44
24.67
26.81
28.76
30.44
31.83
32.93
33.74
34.17
34.08
33.31
31.71
29.33
26.48
23.64
21.34
19.92
19.30
18.97
18.15
16.08
12.42
7.34
1.61
-3.68
-7.51
-9.13
-8.35
-5.52
-1.50
2.66
6.00
7.96
8.61
8.50
8.50
9.26
10.87
12.70
13.68
12.72
9.38
4.08
-2.00
-7.49
-11.35
-13.26
-13.57
-12.95
-11.94
-10.76
-9.31
-7.51
-5.46
-3.57
-2.38
-2.33
-3.51
-5.64
-8.11
-10.27
-11.64
-12.14
-12.07
-11.97
-12.27
-12.96
-13.48
-12.66
-9.08
-1.42
11.08
28.37
49.35
72.02
93.79
112.09
125.01
131.85
133.25
130.80
126.32
121.12
115.60
109.37
101.96
93.50
85.05
78.26
74.49
74.14
76.29
79.18
81.01
80.48
76.99
70.25
59.86
45.27
26.14
2.79
-23.54
-51.04
-77.99
-103.16
-126.09
-146.59
-164.34
-178.49
-187.85
-191.31
-188.23
-178.62
-163.04
-142.43
-118.04
-91.59
-65.21
-41.29
-21.93
-8.23
0.06
4.47
7.19
10.28
14.94
21.20
27.98
33.38
35.34
32.07
22.67
7.56
-11.26
-30.62
-47.14
-58.31
-63.49
-64.03
-62.75
-62.54
-64.97
-69.63
-74.21
-75.65
-71.51
-61.03
-45.45
-27.49
-10.27
3.79
13.40
18.43
19.43
17.15
12.32
5.77
-1.55
-8.66
-14.77
-19.65
-23.55
-26.95
-30.02
-32.49
-33.64
-32.70
-29.24
-23.26
-15.09
-5.04
6.67
19.64
32.97
45.04
53.76
57.26
54.92
47.74
38.11
29.13
23.76
24.37
32.25
47.22
66.90
86.41
98.94
97.71
78.91
44.07
0.49
-40.91
-69.65
-79.47
-70.28
-47.10
-17.18
12.88
38.60
57.17
66.43
64.59
51.19
28.67
3.00
-17.69
-26.31
-20.24
-2.85
17.97
33.34
37.50
29.92
14.74
-2.03
-15.64
-24.38
-29.37
-32.74
-35.99
-39.06
-40.96
-40.75
-38.49
-35.33
-32.81
-32.17
-33.67
-36.79
-40.57
-44.22
-47.35
-49.94
-52.15
-53.96
-55.03
-54.68
-52.20
-47.22
-40.06
-31.94
-24.67
-20.12
-19.45
-22.56
-27.90
-33.02
-35.29
-32.86
-25.14
-12.83
2.39
18.48
33.43
45.67
54.11
58.32
58.54
55.58
50.65
45.03
39.92
36.19
34.45
35.00
37.72
42.05
46.92
51.06
53.35
53.25
50.93
47.14
42.86
38.88
35.59
32.96
30.73
28.56
26.37
24.41
23.25
23.63
25.91
29.63
33.39
35.37
34.41
31.05
27.66
27.37
32.49
43.00
56.25
68.09
74.64
73.75
65.37
50.98
32.34
10.94
-12.18
-35.99
-59.18
-80.25
-97.92
-111.71
-121.98
-129.55
-134.86
-137.21
-134.58
-124.12
-103.60
-72.78
-34.51
5.33
39.23
60.30
64.75
53.32
31.16
5.95
-14.73
-25.81
-25.98
-17.29
-3.81
10.27
21.93
29.79
33.74
34.28
32.00
27.51
21.61
15.34
9.82
5.89
3.89
3.62
4.50
5.85
7.07
7.75
7.62
6.59
4.68
2.03
-1.19
-4.88
-9.03
-13.62
-18.51
-23.38
-27.70
-30.97
-32.87
-33.49
-33.31
-32.99
-33.14
-34.02
-35.48
-36.96
-37.76
-37.28
-35.30
-32.12
-28.45
-25.15
-22.85
-21.68
-21.27
-20.93
-20.03
-18.27
-15.75
-12.86
-10.06
-7.63
-5.67
-4.20
-3.14
-2.48
-2.16
-2.17
-2.40
-2.75
-3.16
-3.62
-4.23
-5.17
-6.62
-8.65
-11.16
-13.78
-16.01
-17.34
-17.45
-16.37
-14.35
-11.78
-8.97
-6.11
-3.23
-0.33
2.55
5.27
7.61
9.38
10.45
10.86
10.76
10.37
9.89
9.47
9.20
9.08
9.04
9.03
8.91
8.57
7.89
6.81
5.38
3.77
2.22
0.88
-0.18
-1.12
-2.15
-3.51
-5.29
-7.34
-9.31
-10.67
-11.02
-10.06
-7.87
-4.77
-1.27
2.11
4.99
7.19
8.67
9.43
9.53
9.03
7.99
6.55
4.87
3.13
1.53
0.27
-0.54
-0.79
-0.49
0.31
1.48
2.82
4.13
5.19
5.86
6.03
5.65
4.76
3.40
1.70
-0.25
-2.33
-4.48
-6.62
-8.62
-10.35
-11.55
-12.00
-11.58
-10.33
-8.45
-6.24
-4.03
-1.96
-0.13
1.49
2.86
3.86
4.36
4.28
3.75
3.09
2.69
2.82
3.52
4.52
5.31
5.46
4.75
3.35
1.69
0.38
-0.17
0.14
1.03
1.97
2.49
2.38
1.86
1.36
1.29
1.76
2.48
2.94
2.68
1.54
-0.38
-2.56
-4.13
-3.78
0.23
9.85
26.55
50.28
78.67
106.92
128.93
139.33
135.65
119.47
95.94
71.70
52.28
40.32
35.12
33.81
32.89
29.64
22.57
11.25
-4.00
-22.31
-42.08
-60.81
-75.34
-82.72
-81.20
-71.10
-55.04
-37.15
-21.86
-12.45
-10.13
-13.91
-21.13
-28.73
-34.21
-36.40
-35.33
-31.89
-27.11
-21.85
-16.71
-12.04
-8.08
-4.98
-2.74
-1.18
0.03
1.17
2.48
3.98
5.56
7.06
8.30
9.12
9.42
9.20
8.50
7.57
6.68
6.15
6.11
6.44
6.77
6.65
5.85
4.50
3.19
2.63
3.34
5.44
8.67
12.67
17.10
21.78
26.37
30.24
32.38
31.79
28.18
22.32
16.25
12.51
13.21
19.14
29.41
41.77
53.45
62.11
66.37
66.16
62.25
55.86
48.16
39.95
31.64
23.35
15.07
6.70
-1.71
-10.03
-17.98
-25.14
-31.12
-35.53
-38.25
-39.28
-38.92
-37.69
-36.31
-35.77
-37.02
-40.79
-47.10
-55.13
-63.23
-69.55
-72.66
-72.04
-68.31
-62.82
-57.14
-52.44
-49.16
-46.99
-45.20
-42.89
-39.24
-33.84
-26.70
-18.45
-10.21
-3.24
1.57
4.30
6.11
9.00
14.95
25.08
39.19
55.81
72.90
88.54
101.42
110.92
116.80
118.93
117.27
111.97
103.46
92.51
79.95
66.51
52.66
38.76
25.14
12.28
0.73
-9.04
-16.81
-22.67
-26.95
-30.07
-32.40
-34.22
-35.72
-37.05
-38.38
-39.76
-41.14
-42.31
-43.03
-43.12
-42.55
-41.50
-40.19
-38.78
-37.28
-35.63
-33.82
-32.02
-30.55
-29.74
-29.77
-30.42
-31.23
-31.61
-31.03
-29.34
-26.72
-23.65
-20.73
-18.42
-16.87
-15.90
-15.02
-13.60
-11.20
-7.55
-2.80
2.69
8.39
13.85
18.70
22.84
26.31
29.20
31.58
33.40
34.52
34.76
34.02
32.30
29.76
26.65
23.25
19.88
16.76
14.02
11.73
9.84
8.21
6.73
5.35
4.09
3.07
2.34
1.89
1.62
1.34
0.91
0.16
-1.11
-3.13
-6.16
-10.30
-15.43
-21.00
-26.24
-30.26
-32.38
-32.28
-30.07
-26.24
-21.43
-16.36
-11.69
-7.91
-5.36
-4.13
-4.20
-5.30
-7.08
-8.98
-10.46
-11.01
-10.46
-8.99
-7.15
-5.65
-5.08
-5.76
-7.58
-10.18
-13.06
-15.88
-18.50
-21.09
-24.04
-27.87
-33.05
-39.83
-48.11
-57.38
-66.84
-75.61
-82.77
-87.67
-89.87
-89.25
-85.95
-80.39
-73.17
-64.92
-56.26
-47.71
-39.86
-33.44
-29.39
-28.63
-31.64
-38.02
-46.33
-54.41
-60.08
-61.94
-59.88
-54.94
-48.80
-42.95
-38.24
-34.56
-31.19
-26.82
-19.96
-9.16
6.59
27.27
51.47
76.46
99.02
116.63
128.45
135.66
140.71
146.20
153.56
162.65
172.02
179.70
184.04
184.20
180.12
172.39
162.02
150.24
138.29
126.99
116.43
105.85
93.95
79.68
62.82
44.29
25.78
9.13
-4.26
-13.81
-19.65
-22.48
-23.42
-23.93
-25.59
-29.87
-37.73
-49.28
-63.92
-80.58
-98.17
-115.76
-132.57
-147.92
-161.10
-171.59
-179.09
-183.57
-185.09
-183.78
-179.77
-173.49
-165.66
-157.34
-149.51
-142.80
-137.25
-132.36
-127.32
-121.29
-113.62
-104.06
-92.90
-81.17
-70.68
-63.59
-61.64
-65.09
-72.08
-78.74
-80.21
-72.47
-53.74
-25.29
9.05
44.34
76.23
102.12
121.49
135.31
145.14
152.41
157.99
162.38
165.85
168.64
170.88
172.54
173.37
172.78
170.06
164.54
155.90
144.37
130.71
116.14
101.96
89.25
78.56
69.89
62.86
56.89
51.47
46.18
40.69
34.74
28.15
20.88
13.24
5.88
-0.26
-4.26
-5.51
-3.98
-0.27
4.66
9.76
14.29
17.92
20.70
22.77
24.24
25.17
25.64
26.01
26.80
28.52
31.18
34.28
36.94
38.47
39.04
39.78
42.31
47.82
56.23
66.15
75.40
82.13
85.45
85.50
82.81
77.68
70.20
60.65
50.17
40.51
33.24
28.52
24.49
17.69
4.40
-17.72
-48.56
-85.42
-123.66
-157.74
-182.34
-193.36
-188.88
-169.68
-139.23
-102.88
-66.36
-34.33
-9.47
7.52
17.34
21.36
21.18
18.60
15.52
13.78
14.65
18.38
24.06
29.85
33.64
33.72
29.26
20.41
8.11
-6.29
-21.48
-36.38
-50.26
-62.56
-72.92
-81.03
-86.81
-90.39
-92.03
-92.12
-90.97
-88.87
-86.15
-83.31
-80.95
-79.60
-79.37
-79.87
-80.31
-79.89
-78.15
-75.12
-71.22
-67.04
-63.07
-59.62
-56.84
-54.84
-53.61
-53.12
-53.21
-53.61
-54.07
-54.36
-54.39
-54.19
-53.93
-53.89
-54.45
-56.03
-58.89
-62.92
-67.42
-71.03
-71.89
-68.18
-58.76
-43.81
-24.90
-4.52
14.81
31.37
44.78
55.82
65.96
76.57
88.58
102.22
117.25
133.12
149.14
164.43
177.99
188.82
196.20
199.97
200.74
199.71
198.18
197.13
196.80
196.68
195.85
193.55
189.66
184.76
179.85
175.90
173.48
172.50
172.13
170.88
166.90
158.30
143.71
122.71
96.06
65.43
32.76
-0.36
-33.16
-65.53
-97.42
-128.17
-156.32
-179.85
-196.91
-206.59
-209.18
-206.09
-199.41
-191.47
-184.37
-179.67
-177.96
-178.71
-180.30
-180.63
-178.02
-172.02
-163.62
-154.57
-146.31
-139.07
-131.70
-122.38
-109.73
-93.61
-75.23
-56.53
-39.47
-25.56
-15.74
-10.28
-8.81
-10.14
-12.39
-13.51
-12.00
-7.70
-2.03
2.38
2.58
-3.59
-16.69
-35.44
-56.96
-77.39
-92.86
-100.35
-98.32
-86.93
-67.73
-43.05
-15.47
12.45
38.35
60.29
77.03
88.65
96.74
104.05
113.41
126.45
142.64
159.50
173.66
182.60
185.83
184.84
182.09
179.51
177.62
175.54
171.85
165.74
157.48
148.32
139.66
132.39
126.62
121.92
117.91
114.54
112.13
110.96
110.92
111.50
112.13
112.80
114.13
116.68
119.86
121.10
116.08
100.63
73.24
36.59
-2.75
-36.96
-60.38
-71.87
-74.98
-75.73
-79.38
-88.18
-100.89
-114.05
-123.85
-127.73
-124.90
-116.28
-104.03
-91.08
-80.74
-76.14
-79.77
-92.97
-115.35
-144.34
-175.21
-201.64
-217.23
-217.61
-202.13
-174.36
-140.81
-108.42
-82.03
-63.26
-51.11
-43.63
-39.57
-38.69
-41.10
-46.21
-52.40
-57.50
-59.90
-59.24
-56.26
-51.74
-45.69
-37.18
-25.06
-8.92
10.37
30.94
50.73
68.22
82.58
93.55
100.97
104.80
105.29
103.28
100.21
97.67
96.79
97.72
99.67
101.45
102.35
102.53
102.95
104.71
108.36
113.55
119.04
123.12
124.14
120.83
112.36
98.34
78.91
54.84
27.75
-0.06
-26.01
-47.96
-64.82
-76.76
-84.91
-90.71
-95.23
-98.93
-101.59
-102.80
-102.31
-100.30
-97.27
-93.83
-90.37
-86.91
-83.20
-78.98
-74.21
-69.26
-64.74
-61.39
-59.64
-59.53
-60.53
-61.78
-62.35
-61.53
-59.11
-55.31
-50.74
-46.11
-42.05
-38.83
-36.33
-34.02
-31.21
-27.40
-22.62
-17.67
-13.97
-13.08
-16.04
-22.71
-31.39
-38.87
-41.07
-34.15
-15.82
13.54
50.41
88.53
120.35
139.03
140.57
125.01
96.45
61.68
28.26
2.63
-11.20
-11.94
-0.78
19.31
44.47
70.67
94.38
112.96
124.76
128.97
125.52
115.10
99.42
80.94
62.44
46.03
32.53
21.43
11.71
2.96
-4.14
-8.16
-8.02
-4.02
1.98
7.37
10.12
9.74
7.34
4.63
2.77
1.79
0.90
-0.78
-3.44
-6.47
-8.96
-10.24
-10.47
-10.40
-10.79
-11.74
-12.46
-11.79
-8.93
-4.26
0.74
3.95
3.80
-0.11
-6.85
-14.69
-22.07
-28.15
-33.15
-37.82
-43.02
-49.21
-56.36
-64.14
-71.84
-78.30
-81.76
-79.98
-70.59
-51.95
-23.82
12.28
53.25
95.05
133.64
165.72
189.01
202.12
204.26
194.84
173.53
140.59
97.72
48.42
-2.08
-48.05
-84.86
-110.51
-126.12
-134.86
-140.39
-144.81
-147.94
-147.53
-140.46
-124.12
-97.05
-59.22
-11.79
42.82
100.66
156.11
202.41
233.06
243.59
232.94
203.80
161.50
111.99
60.11
8.90
-39.84
-84.47
-122.80
-152.49
-172.26
-182.92
-187.60
-190.59
-195.52
-203.75
-213.75
-222.00
-224.52
-218.49
-203.24
-179.96
-151.03
-118.91
-85.62
-52.57
-20.95
7.84
32.04
49.85
60.24
63.66
62.26
59.22
57.55
58.94
63.25
68.93
74.06
77.49
79.27
80.41
82.02
84.52
87.31
89.04
88.40
84.82
79.03
72.88
68.55
67.36
68.59
69.22
64.85
51.71
28.82
-1.03
-31.92
-57.04
-71.34
-73.29
-64.86
-50.16
-33.58
-18.73
-8.52
-5.34
-10.83
-24.96
-45.29
-67.00
-84.30
-92.50
-89.86
-77.86
-60.09
-40.38
-21.38
-4.43
9.77
20.37
26.28
26.92
23.15
17.41
12.81
11.88
15.45
22.61
31.34
39.74
46.74
52.19
56.23
58.61
58.48
54.74
46.62
34.00
17.53
-1.40
-20.86
-38.44
-51.65
-58.43
-57.82
-50.48
-38.72
-25.89
-15.21
-8.61
-6.04
-5.72
-5.11
-2.15
3.69
11.11
17.42
19.66
15.87
6.04
-7.92
-23.02
-36.40
-46.47
-53.31
-58.43
-63.95
-71.76
-82.61
-95.89
-109.93
-122.57
-132.07
-137.63
-139.54
-138.56
-135.34
-129.96
-122.00
-110.88
-96.02
-77.21
-54.43
-27.88
2.01
34.27
67.00
97.43
122.44
139.36
146.79
144.97
135.66
121.47
105.27
89.57
76.32
66.84
61.89
61.51
65.32
72.47
81.56
90.76
98.18
102.39
102.80
99.91
95.09
90.02
86.05
83.56
82.10
80.69
78.42
74.89
70.31
65.21
59.85
54.04
47.18
38.78
28.95
18.66
9.44
2.59
-1.40
-3.14
-3.82
-4.56
-5.63
-6.42
-5.81
-2.95
2.22
9.04
16.60
24.41
32.62
41.99
53.24
66.69
82.05
98.61
115.68
132.87
150.11
167.34
184.14
199.48
211.65
218.62
218.40
209.58
191.57
164.82
130.77
91.54
49.62
7.38
-33.26
-71.07
-105.46
-136.23
-163.24
-186.15
-204.61
-218.40
-227.82
-233.62
-236.83
-238.31
-238.51
-237.39
-234.81
-231.00
-226.76
-223.37
-221.91
-222.65
-224.62
-225.91
-224.56
-219.45
-210.91
-200.54
-190.49
-182.55
-177.42
-174.54
-172.32
-168.82
-162.30
-151.81
-137.42
-120.27
-102.19
-85.10
-70.38
-58.32
-48.12
-38.28
-27.30
-14.27
0.80
17.04
33.19
47.90
60.21
69.73
76.61
81.40
84.68
86.88
88.15
88.57
88.22
87.44
86.65
86.11
85.72
85.03
83.49
80.81
77.22
73.34
69.90
67.24
65.12
62.82
59.38
54.10
46.79
37.92
28.47
19.78
13.11
9.27
8.36
9.62
11.71
13.12
12.64
9.69
4.35
-2.72
-10.76
-18.96
-26.79
-33.93
-40.30
-45.91
-50.74
-54.63
-57.17
-57.86
-56.15
-51.71
-44.48
-34.69
-22.68
-8.79
6.56
22.76
38.86
53.67
65.97
74.87
80.18
82.28
81.85
79.30
74.56
66.97
55.75
40.64
22.20
1.96
-18.07
-35.71
-49.04
-56.37
-56.44
-48.58
-33.17
-12.08
11.49
33.60
50.81
61.19
64.84
63.56
59.86
55.99
53.22
51.88
51.63
51.99
52.61
53.23
53.61
53.34
51.98
49.17
44.91
39.66
34.23
29.45
25.84
23.31
21.19
18.64
14.99
10.24
5.03
0.38
-2.73
-3.93
-3.53
-2.38
-1.41
-1.40
-2.61
-4.92
-7.95
-11.23
-14.34
-16.88
-18.52
-19.01
-18.28
-16.41
-13.63
-10.22
-6.44
-2.52
1.30
4.73
7.50
9.42
10.44
10.72
10.54
10.14
9.65
9.09
8.42
7.60
6.70
5.78
4.90
4.00
3.01
1.81
0.42
-1.08
-2.57
-3.87
-4.95
-5.82
-6.52
-7.13
-7.67
-8.19
-8.74
-9.51
-10.68
-12.45
-14.90
-17.91
-21.13
-24.06
-26.18
-27.10
-26.72
-25.16
-22.72
-19.70
-16.33
-12.72
-8.89
-4.90
-0.87
2.97
6.39
9.15
11.14
12.33
12.80
12.78
12.48
12.21
12.12
12.31
12.71
13.15
13.54
13.78
13.86
13.79
13.56
13.13
12.50
11.73
10.94
10.24
9.64
9.05
8.29
7.23
5.82
4.13
2.29
0.38
-1.61
-3.77
-6.24
-9.12
-12.40
-15.87
-19.14
-21.66
-22.94
-22.63
-20.80
-17.78
-14.07
-10.14
-6.21
-2.33
1.58
5.47
9.13
12.19
14.34
15.43
15.55
15.08
14.45
14.11
14.29
15.05
16.24
17.62
18.96
20.08
20.98
21.74
22.47
23.23
24.02
24.82
25.57
26.30
26.96
27.51
27.83
27.80
27.35
26.48
25.23
23.62
21.62
19.17
16.29
13.21
10.32
8.10
6.90
6.77
7.38
8.07
8.11
6.94
4.35
0.56
-3.84
-8.17
-11.80
-14.45
-16.24
-17.52
-18.80
-20.37
-22.34
-24.55
-26.77
-28.75
-30.41
-31.79
-33.15
-35.04
-38.03
-42.58
-48.58
-55.19
-60.93
-64.19
-63.82
-59.63
-52.46
-43.74
-34.89
-26.79
-19.69
-13.45
-7.92
-3.21
0.33
2.37
2.90
2.31
1.32
0.68
0.86
1.84
3.12
3.85
3.25
0.94
-2.84
-7.18
-10.87
-12.85
-12.55
-10.23
-6.70
-2.99
0.12
2.40
4.18
6.05
8.52
11.80
15.67
19.70
23.43
26.52
28.85
30.37
31.13
31.14
30.46
29.25
27.82
26.61
26.01
26.30
27.41
28.92
30.12
30.28
28.89
25.86
21.58
16.82
12.49
9.43
8.18
8.93
11.43
15.11
19.16
22.83
25.54
27.19
28.02
28.55
29.25
30.41
32.09
34.19
36.71
39.74
43.51
48.23
53.93
60.62
68.20
76.57
85.43
94.09
101.18
104.90
103.45
95.76
82.06
63.90
43.63
23.59
5.45
-10.05
-22.84
-33.11
-40.94
-46.28
-49.17
-49.88
-49.06
-47.43
-45.68
-44.24
-43.33
-43.10
-43.62
-44.96
-47.06
-49.76
-52.73
-55.60
-57.92
-59.24
-59.34
-58.32
-56.87
-56.10
-57.16
-60.76
-66.71
-73.92
-80.77
-85.78
-88.02
-87.39
-84.27
-79.30
-72.94
-65.47
-57.09
-47.98
-38.49
-28.99
-19.89
-11.52
-4.13
2.11
7.21
11.21
14.26
16.42
17.80
18.51
18.79
18.94
19.28
19.96
20.88
21.72
22.08
21.71
20.61
19.00
17.17
15.24
13.19
10.79
7.86
4.38
0.54
-3.26
-6.62
-9.22
-10.95
-11.93
-12.44
-12.83
-13.41
-14.37
-15.71
-17.23
-18.57
-19.29
-18.91
-17.20
-14.16
-10.20
-5.99
-2.22
0.61
2.42
3.58
4.70
6.40
9.03
12.57
16.71
21.00
25.03
28.54
31.42
33.69
35.45
36.77
37.68
38.18
38.22
37.81
37.06
36.21
35.60
35.50
35.98
36.93
38.04
38.99
39.58
39.79
39.80
39.82
40.01
40.31
40.48
40.09
38.75
36.23
32.59
28.22
23.68
19.63
16.69
15.39
16.19
19.38
24.91
32.28
40.47
48.17
54.10
57.46
58.08
56.33
52.80
48.04
42.28
35.53
27.76
19.15
10.29
2.06
-4.57
-8.96
-10.91
-10.76
-9.02
-6.10
-2.04
3.24
9.51
15.86
20.53
21.51
17.31
7.83
-5.42
-19.86
-32.78
-42.37
-48.21
-51.13
-52.44
-53.15
-53.52
-53.09
-51.22
-47.65
-42.94
-38.18
-34.65
-33.10
-33.54
-35.19
-36.95
-37.91
-37.73
-36.65
-35.21
-33.96
-33.08
-32.39
-31.54
-30.24
-28.49
-26.53
-24.75
-23.45
-22.74
-22.57
-22.80
-23.31
-24.04
-24.95
-25.85
-26.50
-26.62
-26.07
-24.95
-23.61
-22.58
-22.25
-22.70
-23.56
-24.09
-23.32
-20.49
-15.44
-8.94
-2.68
1.07
0.04
-7.13
-20.27
-37.46
-55.41
-70.46
-79.59
-81.40
-76.38
-66.78
-55.76
-46.40
-40.66
-38.77
-39.26
-39.57
-37.16
-30.47
-19.44
-5.32
9.98
24.59
37.09
46.61
52.55
54.52
52.54
47.26
40.13
33.09
27.85
25.24
24.79
24.99
23.91
20.00
12.54
1.80
-11.14
-24.87
-37.90
-48.90
-56.75
-60.62
-60.14
-55.50
-47.57
-37.80
-27.93
-19.48
-13.39
-9.81
-8.20
-7.68
-7.44
-7.03
-6.36
-5.49
-4.37
-2.76
-0.43
2.73
6.43
10.06
12.98
14.79
15.56
15.79
16.13
17.00
18.42
19.90
20.78
20.48
18.82
16.14
13.22
10.99
10.29
11.71
15.44
21.33
28.82
37.05
44.98
51.68
56.65
60.05
62.64
65.49
69.43
74.64
80.43
85.57
88.70
88.95
86.15
80.88
74.15
67.04
60.43
54.85
50.52
47.43
45.46
44.32
43.60
42.73
41.22
38.72
35.19
30.88
26.14
21.23
16.19
10.94
5.44
-0.13
-5.37
-9.80
-12.92
-14.44
-14.41
-13.36
-12.41
-13.11
-17.11
-25.55
-38.55
-54.98
-72.75
-89.46
-103.11
-112.45
-117.00
-116.80
-112.14
-103.45
-91.45
-77.25
-62.42
-48.77
-37.98
-31.19
-28.75
-30.10
-34.02
-39.21
-44.77
-50.61
-57.45
-66.26
-77.59
-90.84
-104.27
-115.45
-122.03
-122.42
-116.06
-103.20
-84.56
-60.96
-33.12
-1.63
33.05
70.41
109.73
149.80
188.83
224.49
254.15
275.44
286.60
286.72
275.76
254.36
223.69
185.58
142.80
99.09
58.85
26.23
4.00
-7.27
-9.46
-6.08
-1.01
2.83
4.29
3.80
2.55
1.43
0.51
-0.90
-3.53
-7.60
-12.52
-17.33
-21.17
-23.84
-25.83
-27.96
-30.90
-34.69
-38.63
-41.59
-42.45
-40.56
-35.98
-29.47
-22.24
-15.56
-10.40
-7.16
-5.70
-5.49
-5.99
-6.89
-8.18
-10.06
-12.72
-16.10
-19.99
-24.08
-28.22
-32.38
-36.57
-40.61
-43.99
-46.03
-46.02
-43.65
-39.11
-33.10
-26.52
-20.18
-14.54
-9.55
-4.93
-0.31
4.45
9.20
13.55
17.12
19.71
21.35
22.21
22.44
22.00
20.72
18.44
15.22
11.39
7.54
4.30
2.14
1.27
1.63
2.91
4.61
6.17
7.00
6.62
4.76
1.51
-2.69
-7.15
-11.17
-14.32
-16.55
-18.26
-20.02
-22.33
-25.37
-29.01
-32.95
-36.91
-40.79
-44.57
-48.16
-51.16
-52.96
-52.89
-50.55
-46.09
-40.12
-33.48
-26.92
-20.88
-15.40
-10.35
-5.63
-1.29
2.49
5.51
7.61
8.78
9.15
8.93
8.37
7.75
7.30
7.14
7.25
7.46
7.49
7.03
5.79
3.57
0.33
-3.80
-8.52
-13.33
-17.76
-21.47
-24.42
-26.89
-29.31
-32.06
-35.23
-38.63
-41.89
-44.67
-46.85
-48.60
-50.33
-52.43
-55.10
-58.18
-61.07
-62.92
-62.86
-60.13
-54.24
-45.10
-33.07
-19.08
-4.40
9.63
22.19
33.17
43.16
53.04
63.34
73.91
83.97
92.57
99.06
103.36
105.71
106.32
105.07
101.71
96.20
89.14
81.78
75.54
71.33
69.19
68.18
66.90
64.20
59.65
53.71
47.31
41.23
35.68
30.19
23.99
16.57
7.99
-0.99
-9.37
-16.30
-21.49
-25.32
-28.56
-32.04
-36.17
-40.88
-45.56
-49.51
-52.42
-54.67
-57.41
-62.05
-69.73
-80.74
-94.26
-108.57
-121.54
-131.11
-135.60
-133.94
-125.80
-111.73
-93.28
-72.92
-53.59
-38.00
-27.85
-23.33
-23.20
-25.29
-27.36
-27.57
-24.89
-19.02
-10.26
0.69
12.84
24.98
35.94
44.85
51.48
56.45
60.97
66.48
73.86
82.90
92.21
99.62
103.03
101.24
94.58
84.67
73.73
63.56
54.86
47.04
38.89
29.54
19.06
8.70
0.22
-4.88
-6.21
-4.61
-1.74
0.69
1.62
0.99
-0.50
-1.90
-2.55
-2.33
-1.43
-0.11
1.74
4.61
9.12
15.57
23.64
32.37
40.33
46.20
49.13
49.01
46.46
42.54
38.38
34.78
32.08
30.04
28.12
25.70
22.38
18.15
13.28
8.19
3.14
-1.92
-7.40
-13.83
-21.71
-31.19
-42.00
-53.55
-65.03
-75.69
-84.87
-92.02
-96.66
-98.32
-96.60
-91.32
-82.72
-71.38
-58.16
-43.85
-29.00
-13.89
1.27
16.09
29.96
42.19
52.34
60.46
67.00
72.49
77.11
80.51
82.04
81.19
78.04
73.37
68.32
63.91
60.57
58.01
55.55
52.46
48.36
43.32
37.81
32.42
27.66
23.76
20.67
18.10
15.63
12.83
9.44
5.41
0.96
-3.51
-7.51
-10.71
-12.96
-14.30
-14.79
-14.38
-12.92
-10.33
-6.96
-3.64
-1.59
-1.80
-4.53
-8.98
-13.48
-16.20
-15.81
-12.06
-5.74
1.70
8.74
14.26
17.67
18.93
18.21
15.75
11.69
6.18
-0.45
-7.63
-14.53
-20.35
-24.67
-27.68
-30.00
-32.38
-35.14
-38.02
-40.34
-41.41
-41.09
-39.82
-38.43
-37.74
-38.18
-39.71
-41.92
-44.25
-46.18
-47.22
-46.99
-45.27
-42.00
-37.38
-31.82
-25.83
-19.93
-14.46
-9.63
-5.47
-1.98
0.80
2.77
3.87
4.26
4.39
5.02
6.88
10.30
14.87
19.53
22.99
24.36
23.61
21.51
19.32
18.04
18.04
18.99
20.19
21.08
21.52
21.84
22.55
24.15
26.75
29.99
33.18
35.43
35.95
34.35
30.71
25.56
19.75
14.27
10.00
7.71
7.78
10.17
14.23
18.77
22.23
23.18
20.87
15.41
7.91
-0.08
-7.14
-12.48
-16.05
-18.29
-19.79
-20.86
-21.52
-21.58
-20.98
-19.91
-18.84
-18.37
-19.00
-20.99
-24.25
-28.41
-32.85
-36.86
-39.77
-41.09
-40.69
-38.69
-35.53
-31.68
-27.60
-23.67
-20.14
-17.23
-15.09
-13.89
-13.67
-14.48
-16.28
-19.02
-22.52
-26.42
-30.21
-33.14
-34.56
-33.98
-31.31
-26.87
-21.30
-15.33
-9.61
-4.57
-0.37
2.93
5.50
7.53
9.25
10.84
12.37
13.77
14.78
15.23
15.07
14.52
13.91
13.62
13.82
14.42
15.17
15.80
16.28
16.78
17.67
19.20
21.35
23.85
26.26
28.29
29.92
31.44
33.19
35.31
37.55
39.29
39.81
38.44
34.86
29.18
21.81
13.36
4.51
-4.10
-11.93
-18.55
-23.81
-27.72
-30.56
-32.62
-34.08
-34.75
-34.19
-31.89
-27.63
-21.83
-15.44
-9.68
-5.58
-3.53
-3.24
-3.96
-4.91
-5.66
-6.22
-6.87
-7.88
-9.31
-10.92
-12.37
-13.44
-14.16
-14.85
-15.91
-17.65
-20.08
-22.94
-25.79
-28.21
-29.96
-31.09
-31.87
-32.68
-33.94
-35.93
-38.82
-42.48
-46.57
-50.42
-53.14
-53.75
-51.38
-45.59
-36.46
-24.72
-11.57
1.52
13.22
22.61
29.37
33.67
36.12
37.46
38.29
39.00
39.57
39.78
39.29
37.85
35.34
31.86
27.60
22.86
18.01
13.38
9.27
5.88
3.19
1.04
-0.77
-2.41
-3.94
-5.33
-6.58
-7.83
-9.30
-11.17
-13.42
-15.76
-17.75
-18.91
-18.94
-17.87
-16.06
-14.08
-12.74
-12.70
-14.34
-17.48
-21.28
-24.41
-25.48
-23.60
-18.68
-11.60
-3.78
3.27
8.51
11.58
12.84
13.08
13.10
13.54
14.55
16.07
17.84
19.72
21.75
24.04
26.56
28.99
30.73
31.10
29.82
27.13
23.84
20.99
19.31
19.05
19.78
20.86
21.69
22.08
22.28
22.70
23.61
24.79
25.57
24.95
22.06
16.44
8.25
-1.76
-12.61
-23.33
-33.31
-42.25
-50.09
-56.81
-62.36
-66.62
-69.47
-70.87
-70.80
-69.28
-66.21
-61.57
-55.47
-48.27
-40.64
-33.42
-27.43
-23.19
-20.79
-19.92
-19.94
-20.04
-19.26
-16.65
-11.32
-2.83
8.68
22.29
36.49
49.56
60.11
67.51
71.78
73.42
72.92
70.58
66.47
60.68
53.56
45.76
38.11
31.24
25.48
20.71
16.61
12.88
9.44
6.50
4.30
2.96
2.24
1.62
0.50
-1.55
-4.54
-8.09
-11.50
-14.12
-15.47
-15.44
-14.22
-12.24
-10.00
-7.91
-6.22
-4.94
-3.91
-2.81
-1.36
0.67
3.24
6.09
8.77
10.78
11.79
11.75
10.92
9.73
8.59
7.71
7.03
6.36
5.42
4.07
2.30
0.23
-1.95
-4.12
-6.24
-8.36
-10.55
-12.85
-15.22
-17.59
-19.87
-22.06
-24.26
-26.58
-29.11
-31.84
-34.72
-37.59
-40.33
-42.78
-44.67
-45.77
-45.83
-44.82
-42.82
-40.16
-37.25
-34.47
-32.14
-30.43
-29.36
-28.83
-28.63
-28.49
-28.23
-27.76
-27.17
-26.60
-26.09
-25.55
-24.69
-23.29
-21.25
-18.75
-16.19
-13.94
-12.29
-11.24
-10.62
-10.11
-9.43
-8.39
-6.93
-5.20
-3.38
-1.75
-0.46
0.34
0.53
-0.14
-2.08
-5.66
-11.06
-17.89
-25.19
-31.62
-36.02
-37.94
-38.03
-37.77
-38.67
-41.35
-44.77
-46.37
-43.10
-32.96
-16.34
3.65
22.15
34.56
38.38
34.24
25.42
16.28
10.92
12.36
22.61
42.67
72.12
108.29
145.99
178.40
199.35
205.82
199.12
184.19
167.07
152.16
140.79
131.62
122.43
111.86
100.19
88.74
78.67
70.15
62.12
52.87
40.92
25.74
8.02
-10.44
-27.47
-41.35
-51.39
-58.06
-62.36
-65.01
-65.80
-63.71
-57.72
-47.82
-35.56
-23.65
-14.88
-10.81
-11.22
-14.38
-18.27
-21.55
-24.14
-26.82
-30.45
-35.24
-40.49
-45.05
-47.89
-48.60
-47.46
-45.20
-42.61
-40.20
-38.10
-36.16
-34.06
-31.54
-28.51
-25.17
-22.01
-19.65
-18.54
-18.80
-20.19
-22.27
-24.67
-27.22
-29.89
-32.64
-35.23
-37.19
-38.05
-37.55
-35.86
-33.46
-30.81
-28.06
-24.85
-20.56
-14.65
-7.11
1.47
9.98
17.32
22.74
26.05
27.45
27.29
25.76
22.91
18.90
14.28
9.99
7.20
6.74
8.80
12.69
17.23
21.10
23.32
23.45
21.53
17.93
13.06
7.41
1.43
-4.39
-9.66
-14.17
-18.00
-21.46
-24.94
-28.69
-32.55
-35.92
-37.79
-37.10
-33.14
-25.85
-15.88
-4.31
7.81
19.83
31.59
43.14
54.36
64.61
72.77
77.67
78.57
75.51
69.40
61.59
53.44
45.92
39.38
33.71
28.55
23.61
18.81
14.29
10.26
6.79
3.80
1.07
-1.53
-3.84
-5.37
-5.56
-3.99
-0.78
3.40
7.45
10.19
10.75
8.82
4.69
-0.91
-7.10
-13.17
-18.84
-24.29
-30.16
-37.31
-46.39
-57.45
-69.71
-81.52
-90.85
-95.96
-96.05
-91.59
-84.08
-75.49
-67.39
-60.38
-53.97
-47.06
-38.59
-28.30
-16.99
-6.31
1.79
5.81
5.32
1.05
-5.39
-12.09
-17.48
-20.80
-22.26
-22.73
-23.40
-25.19
-28.44
-32.74
-37.20
-40.83
-42.90
-43.33
-42.44
-40.86
-39.22
-38.03
-37.61
-38.17
-39.60
-41.50
-43.18
-43.79
-42.69
-39.62
-34.69
-28.18
-20.34
-11.34
-1.31
9.38
20.26
30.80
40.85
50.61
60.58
71.19
82.54
94.40
106.36
118.05
129.15
139.38
148.37
155.62
160.65
162.97
162.23
158.06
150.20
138.62
123.81
107.03
90.10
74.96
62.99
54.61
49.15
45.26
41.60
37.21
31.82
25.57
18.82
11.85
4.81
-2.14
-8.77
-14.74
-19.73
-23.61
-26.47
-28.55
-30.03
-30.84
-30.68
-29.18
-26.12
-21.65
-16.21
-10.53
-5.30
-1.03
2.02
3.88
4.68
4.68
4.06
2.98
1.51
-0.31
-2.39
-4.55
-6.45
-7.78
-8.34
-8.25
-7.82
-7.52
-7.69
-8.38
-9.38
-10.33
-10.98
-11.30
-11.53
-12.01
-12.98
-14.51
-16.46
-18.63
-20.79
-22.81
-24.63
-26.31
-27.96
-29.73
-31.80
-34.19
-36.83
-39.51
-41.92
-43.73
-44.62
-44.36
-42.75
-39.75
-35.42
-30.07
-24.20
-18.45
-13.44
-9.60
-7.11
-5.81
-5.36
-5.30
-5.24
-4.85
-3.98
-2.72
-1.30
-0.14
0.35
-0.24
-2.13
-5.34
-9.80
-15.43
-22.22
-30.21
-39.37
-49.37
-59.58
-69.07
-76.95
-82.63
-85.90
-86.95
-86.08
-83.55
-79.53
-74.19
-67.94
-61.37
-55.06
-49.37
-44.33
-39.67
-35.18
-30.87
-26.99
-23.84
-21.44
-19.45
-17.26
-14.39
-10.79
-6.85
-3.17
0.01
3.16
7.42
14.07
23.94
36.86
51.75
67.03
81.28
93.73
104.19
112.74
119.18
122.99
123.52
120.37
113.76
104.52
93.88
83.14
73.43
65.62
60.22
57.21
55.97
55.45
54.32
51.54
46.65
39.96
32.29
24.66
17.83
12.14
7.51
3.57
-0.11
-3.93
-8.06
-12.44
-16.71
-20.23
-22.36
-22.62
-21.05
-18.17
-14.91
-12.20
-10.72
-10.68
-11.82
-13.70
-15.83
-17.77
-19.17
-19.72
-19.23
-17.74
-15.59
-13.46
-12.12
-12.19
-13.81
-16.61
-19.80
-22.54
-24.25
-24.93
-25.00
-25.14
-25.89
-27.39
-29.33
-31.15
-32.37
-32.76
-32.50
-32.00
-31.74
-32.02
-32.88
-34.12
-35.39
-36.40
-36.96
-37.13
-37.14
-37.28
-37.85
-38.94
-40.56
-42.52
-44.52
-46.10
-46.70
-45.74
-42.79
-37.85
-31.37
-24.17
-17.11
-10.80
-5.42
-0.75
3.57
7.88
12.36
17.08
22.08
27.47
33.37
39.83
46.77
53.96
61.08
67.75
73.68
78.69
82.73
85.91
88.38
90.26
91.47
91.81
90.97
88.90
85.89
82.69
80.34
79.76
81.43
84.99
89.32
92.86
94.21
92.63
88.25
81.86
74.46
66.81
59.18
51.61
44.10
36.78
29.78
22.88
15.35
6.19
-5.32
-19.00
-33.56
-47.09
-57.83
-65.01
-69.05
-71.17
-72.62
-73.97
-74.90
-74.54
-72.02
-67.06
-60.04
-51.87
-43.60
-36.00
-29.38
-23.69
-18.76
-14.59
-11.47
-9.89
-10.34
-12.86
-16.93
-21.47
-25.16
-26.87
-25.94
-22.40
-16.83
-10.14
-3.30
2.89
7.88
11.44
13.53
14.29
13.95
12.87
11.38
9.83
8.49
7.42
6.52
5.48
4.02
1.87
-1.06
-4.72
-8.92
-13.35
-17.81
-22.14
-26.35
-30.57
-34.94
-39.50
-43.94
-47.71
-50.03
-50.29
-48.20
-44.00
-38.31
-31.91
-25.54
-19.62
-14.40
-9.79
-5.75
-2.17
0.93
3.53
5.53
6.81
7.32
6.97
5.81
3.95
1.69
-0.63
-2.67
-4.12
-4.87
-4.99
-4.70
-4.35
-4.22
-4.46
-5.03
-5.74
-6.31
-6.44
-5.89
-4.64
-2.97
-1.52
-1.16
-2.65
-6.43
-12.35
-19.86
-28.24
-36.94
-45.65
-54.24
-62.44
-69.71
-75.25
-78.26
-78.31
-75.43
-70.08
-62.90
-54.44
-45.10
-35.03
-24.39
-13.31
-2.09
9.03
19.78
30.08
40.06
49.98
60.21
71.08
82.70
94.87
106.88
117.64
125.88
130.65
131.71
129.70
125.84
121.35
116.76
111.44
103.89
92.30
75.58
53.97
29.33
4.62
-16.96
-32.82
-41.74
-44.00
-41.25
-35.90
-30.51
-27.05
-26.35
-27.95
-30.17
-30.87
-28.34
-22.05
-12.98
-3.19
5.07
10.45
13.02
14.32
16.66
22.14
31.54
43.60
54.96
61.01
57.43
42.02
15.84
-16.80
-49.76
-77.10
-94.97
-102.33
-100.35
-91.04
-76.04
-56.16
-31.82
-3.88
25.99
55.44
82.03
103.63
118.64
125.91
124.92
116.03
100.71
81.51
61.33
42.51
25.91
10.77
-4.72
-22.28
-42.41
-63.76
-83.17
-96.54
-99.84
-90.32
-67.32
-32.72
9.35
53.26
93.05
123.56
141.24
144.62
134.47
113.60
86.47
58.36
34.25
17.52
9.11
7.26
8.31
8.01
2.88
-8.69
-26.25
-47.69
-70.17
-91.08
-108.63
-121.97
-130.91
-135.61
-136.25
-133.13
-126.73
-117.87
-107.67
-97.32
-87.78
-79.41
-72.02
-64.92
-57.32
-48.67
-38.90
-28.33
-17.48
-6.79
3.55
13.48
22.90
31.53
38.89
44.57
48.45
50.80
52.07
52.73
52.91
52.49
51.18
48.79
45.37
41.20
36.60
31.71
26.49
20.74
14.39
7.55
0.65
-5.61
-10.37
-12.84
-12.52
-9.42
-4.17
1.94
7.24
10.13
9.57
5.49
-1.16
-8.70
-15.37
-20.01
-22.39
-23.12
-23.18
-23.40
-24.20
-25.67
-27.80
-30.56
-33.81
-37.07
-39.51
-40.29
-39.07
-36.32
-33.19
-30.96
-30.49
-31.95
-35.05
-39.41
-44.85
-51.25
-58.18
-64.72
-69.57
-71.56
-70.23
-65.93
-59.62
-52.32
-44.64
-36.73
-28.51
-20.02
-11.63
-4.04
2.00
5.93
7.54
6.97
4.67
1.20
-2.86
-6.94
-10.48
-12.95
-13.92
-13.12
-10.50
-6.38
-1.34
3.87
8.47
11.83
13.63
13.85
12.74
10.60
7.74
4.28
0.19
-4.55
-9.94
-15.79
-21.82
-27.71
-33.21
-38.08
-42.17
-45.23
-46.93
-46.91
-44.89
-40.85
-35.12
-28.40
-21.47
-15.08
-9.67
-5.41
-2.19
0.18
1.95
3.36
4.68
6.16
7.99
10.15
12.41
14.27
15.26
15.07
13.79
11.92
10.18
9.26
9.48
10.72
12.42
13.85
14.43
13.91
12.47
10.60
8.89
7.84
7.69
8.34
9.33
9.89
9.08
6.16
0.89
-6.19
-13.74
-19.93
-23.00
-21.79
-16.07
-6.58
5.30
18.01
30.23
41.04
49.91
56.54
60.75
62.45
61.80
59.28
55.68
52.04
49.19
47.61
47.14
47.06
46.27
43.69
38.61
31.02
21.57
11.40
1.71
-6.71
-13.75
-19.88
-25.72
-31.66
-37.54
-42.73
-46.51
-48.44
-48.62
-47.58
-46.15
-45.19
-45.38
-47.10
-50.27
-54.34
-58.35
-61.17
-62.08
-61.07
-58.95
-56.93
-55.86
-55.75
-55.49
-53.34
-47.71
-37.95
-24.92
-10.76
1.69
9.80
11.78
7.07
-3.54
-17.70
-31.63
-40.50
-39.77
-26.94
-2.99
27.33
56.96
78.96
89.25
87.75
77.90
64.62
52.10
42.62
36.60
33.72
33.73
36.68
42.26
49.29
55.64
58.94
57.63
51.79
43.19
34.62
28.80
27.30
30.06
35.72
42.24
47.84
51.43
52.92
52.86
52.09
51.36
51.02
51.14
51.57
52.15
52.82
53.52
54.02
53.86
52.46
49.34
44.47
38.35
31.78
25.65
20.49
16.42
13.15
10.36
7.83
5.58
3.71
2.24
1.01
-0.26
-1.84
-3.88
-6.35
-9.10
-11.87
-14.40
-16.30
-17.15
-16.48
-13.92
-9.48
-3.57
2.91
8.78
12.93
14.58
13.63
10.51
6.14
1.57
-2.28
-4.75
-5.50
-4.40
-1.65
2.28
6.54
10.12
12.02
11.70
9.25
5.41
1.22
-2.34
-4.73
-5.93
-6.26
-6.17
-5.96
-5.76
-5.52
-5.16
-4.70
-4.29
-4.20
-4.77
-6.25
-8.66
-11.68
-14.74
-17.17
-18.45
-18.32
-16.90
-14.53
-11.65
-8.72
-6.18
-4.52
-4.16
-5.43
-8.40
-12.87
-18.40
-24.48
-30.62
-36.32
-41.03
-44.03
-44.55
-41.97
-35.98
-26.83
-15.28
-2.54
9.94
20.51
27.73
30.55
28.75
23.09
15.27
7.40
1.39
-1.66
-1.67
0.58
3.95
7.39
10.18
11.98
12.77
12.69
12.12
11.68
12.17
14.29
18.26
23.64
29.27
33.72
35.69
34.54
30.35
23.70
15.41
6.20
-3.31
-12.55
-20.82
-27.28
-31.04
-31.43
-28.36
-22.32
-14.31
-5.54
2.86
10.12
15.84
19.94
22.49
23.52
23.05
21.11
17.83
13.52
8.62
3.64
-0.99
-4.91
-7.86
-9.69
-10.32
-9.77
-8.10
-5.34
-1.40
3.74
9.86
16.18
21.36
23.93
22.86
18.28
11.44
4.31
-1.42
-5.03
-6.99
-8.52
-10.68
-13.81
-17.35
-20.34
-21.92
-21.73
-19.94
-17.08
-14.00
-11.73
-11.48
-14.29
-20.57
-29.53
-38.87
-45.29
-45.68
-38.50
-24.71
-7.52
8.83
20.86
27.13
28.40
26.88
25.01
24.60
26.71
31.85
40.12
50.91
62.52
72.12
76.84
75.20
68.19
59.07
51.77
48.76
49.83
52.19
52.12
46.89
35.95
20.74
3.53
-13.69
-29.92
-44.96
-58.77
-71.01
-81.03
-88.26
-92.65
-94.84
-95.96
-97.14
-99.02
-101.53
-103.79
-104.49
-102.53
-97.63
-90.75
-83.78
-78.84
-77.14
-78.22
-80.09
-80.12
-76.23
-67.72
-55.17
-39.77
-22.41
-3.32
17.67
40.20
62.84
83.16
98.40
106.55
107.00
100.78
90.18
78.04
67.02
59.13
55.44
56.05
60.24
66.63
73.46
78.97
81.83
81.47
78.41
74.09
70.34
68.65
69.50
72.10
74.73
75.50
73.12
67.34
58.90
49.06
39.03
29.48
20.48
11.62
2.32
-7.93
-19.32
-31.61
-44.09
-55.64
-64.99
-70.97
-72.96
-71.06
-66.20
-59.81
-53.37
-47.97
-43.99
-41.16
-38.71
-35.76
-31.57
-25.80
-18.62
-10.75
-3.34
2.31
5.11
4.47
0.49
-6.20
-14.76
-24.48
-34.75
-44.87
-53.77
-60.05
-62.34
-60.02
-53.64
-44.92
-36.14
-29.14
-24.68
-22.35
-21.00
-19.52
-17.37
-14.62
-11.66
-8.80
-5.96
-2.85
0.76
4.78
8.77
12.20
14.72
16.47
18.03
20.11
23.23
27.40
32.12
36.56
39.95
41.89
42.44
42.01
41.20
40.52
40.33
40.62
41.12
41.18
40.01
36.93
31.72
24.90
17.74
11.84
8.53
8.27
10.44
13.64
16.33
17.42
16.67
14.57
11.94
9.49
7.50
5.94
4.72
3.90
3.72
4.41
5.90
7.67
8.92
8.90
7.35
4.64
1.67
-0.52
-1.15
-0.02
2.53
5.81
9.20
12.37
15.32
18.30
21.55
25.08
28.58
31.59
33.61
34.50
34.53
34.36
34.87
36.82
40.65
46.29
53.29
60.86
68.20
74.65
79.81
83.44
85.35
85.29
83.09
78.84
72.93
65.90
57.99
48.99
38.35
25.79
11.99
-1.24
-11.52
-17.03
-17.45
-14.23
-9.85
-6.54
-5.24
-5.41
-5.78
-5.41
-4.50
-4.33
-6.43
-11.63
-19.43
-28.11
-35.61
-40.45
-42.37
-42.39
-42.18
-43.16
-45.91
-49.96
-54.13
-57.16
-58.22
-57.25
-54.78
-51.73
-48.98
-47.13
-46.36
-46.52
-47.23
-48.23
-49.45
-51.12
-53.50
-56.72
-60.47
-64.05
-66.51
-67.07
-65.35
-61.48
-55.96
-49.30
-41.79
-33.48
-24.33
-14.59
-5.00
3.36
9.40
12.57
13.23
12.43
11.50
11.28
11.86
12.66
12.84
11.92
10.04
7.94
6.66
7.22
10.39
16.59
25.77
37.26
49.70
61.08
69.19
72.35
69.95
62.63
52.01
39.96
27.99
16.85
6.52
-3.54
-13.90
-24.79
-35.78
-45.78
-53.45
-57.80
-58.74
-57.28
-55.17
-54.11
-55.06
-57.83
-61.41
-64.60
-66.69
-67.56
-67.39
-66.19
-63.52
-58.77
-51.62
-42.52
-32.69
-23.68
-16.69
-12.04
-9.07
-6.54
-3.21
1.57
7.59
13.95
19.51
23.52
25.77
26.77
27.34
28.38
30.40
33.50
37.32
41.22
44.51
46.68
47.53
47.30
46.48
45.71
45.48
45.92
46.75
47.39
47.33
46.57
46.01
47.46
53.13
64.71
82.38
104.13
126.13
143.89
153.76
154.23
146.03
131.46
113.22
93.41
73.17
52.79
32.10
10.79
-11.52
-35.12
-60.08
-85.88
-111.17
-133.89
-151.65
-162.43
-165.19
-160.31
-149.53
-135.64
-121.77
-110.57
-103.47
-100.43
-100.19
-101.14
-102.19
-103.26
-105.18
-108.69
-113.56
-118.00
-119.06
-113.90
-101.28
-82.48
-61.01
-41.24
-26.72
-18.83
-16.67
-17.82
-19.70
-20.57
-19.76
-17.37
-13.57
-8.27
-1.18
7.76
18.10
28.87
38.83
46.91
52.48
55.31
55.59
53.73
50.36
46.31
42.35
39.11
36.78
35.18
33.92
32.71
31.46
30.36
29.52
28.88
28.11
26.78
24.59
21.54
17.90
14.00
10.12
6.35
2.64
-1.12
-5.07
-9.29
-13.76
-18.26
-22.43
-25.77
-27.82
-28.34
-27.40
-25.35
-22.74
-20.11
-17.86
-16.24
-15.27
-14.89
-14.89
-14.88
-14.29
-12.33
-8.29
-2.06
5.54
12.71
17.24
17.45
12.96
5.04
-3.92
-11.39
-15.66
-16.37
-14.31
-10.94
-7.68
-5.63
-5.51
-7.81
-12.69
-19.91
-28.66
-37.54
-44.82
-49.05
-49.43
-46.06
-39.70
-31.48
-22.56
-13.90
-6.26
-0.15
4.34
7.72
11.09
15.71
22.12
29.40
34.93
35.23
27.41
10.81
-12.34
-37.33
-58.52
-71.38
-73.90
-67.20
-54.90
-41.83
-32.38
-29.22
-32.52
-40.18
-48.67
-54.47
-55.48
-51.78
-45.53
-39.86
-37.48
-39.63
-45.75
-54.01
-62.12
-68.04
-70.31
-68.15
-61.49
-51.16
-39.08
-28.07
-21.12
-20.09
-24.76
-32.56
-39.53
-42.10
-38.54
-29.56
-17.51
-4.98
6.54
16.94
27.08
37.84
49.68
62.53
76.12
90.16
104.11
116.79
126.48
131.46
130.94
125.49
116.70
106.20
94.87
82.88
70.49
59.09
51.48
50.93
59.54
76.81
99.14
120.90
136.31
141.42
135.17
119.31
97.22
72.61
48.42
26.55
8.15
-5.95
-14.91
-18.12
-15.68
-8.65
1.13
11.72
21.92
31.59
41.06
50.07
56.57
56.62
45.68
20.77
-17.26
-62.86
-106.74
-138.70
-150.98
-140.85
-111.30
-69.48
-24.09
17.44
50.38
72.85
84.83
87.26
81.50
69.48
53.94
38.21
25.49
17.80
15.33
16.53
18.99
20.64
20.63
19.54
18.75
19.80
23.64
30.32
39.03
48.45
57.06
63.43
66.51
65.70
60.88
52.29
40.43
25.93
9.55
-7.80
-25.06
-41.06
-54.74
-65.33
-72.54
-76.50
-77.73
-76.82
-74.29
-70.48
-65.61
-59.81
-53.20
-45.95
-38.39
-30.90
-23.94
-17.80
-12.38
-7.16
-1.44
5.18
12.42
19.20
24.20
26.51
26.26
24.54
22.89
22.45
23.44
25.11
26.33
26.22
24.44
21.22
16.92
11.77
5.80
-0.98
-8.27
-15.43
-21.51
-25.53
-26.81
-25.18
-20.99
-15.07
-8.49
-2.36
2.45
5.42
6.56
6.34
5.58
5.16
5.69
7.31
9.66
11.98
13.38
13.07
10.61
5.94
-0.43
-7.61
-14.41
-19.79
-23.17
-24.74
-25.35
-26.16
-28.03
-31.13
-34.84
-38.08
-39.77
-39.37
-36.97
-33.22
-29.04
-25.24
-22.28
-20.24
-18.78
-17.20
-14.69
-10.48
-4.21
3.92
13.16
22.45
30.82
37.74
43.11
47.17
50.23
52.52
54.25
55.77
57.84
61.49
67.74
76.99
88.51
100.30
109.48
113.31
110.21
100.51
86.59
72.16
60.96
55.59
56.62
62.52
70.22
76.00
76.54
69.73
55.26
34.77
11.47
-10.73
-28.48
-39.92
-45.17
-46.03
-45.14
-44.93
-46.98
-51.77
-58.82
-67.01
-74.90
-80.98
-83.96
-83.05
-78.25
-70.38
-60.87
-51.26
-42.84
-36.24
-31.49
-28.12
-25.49
-22.91
-19.73
-15.51
-9.95
-3.16
4.41
11.99
18.77
24.10
27.64
29.38
29.53
28.55
27.00
25.42
23.98
22.20
18.88
12.55
2.29
-11.40
-26.39
-39.45
-47.46
-48.71
-43.50
-33.81
-22.32
-11.25
-1.91
5.26
10.08
12.16
10.95
6.08
-2.05
-12.06
-21.92
-29.62
-33.94
-34.84
-33.35
-31.02
-29.22
-28.67
-29.39
-30.91
-32.68
-34.31
-35.61
-36.55
-37.10
-37.24
-36.99
-36.45
-35.88
-35.59
-35.85
-36.69
-37.85
-38.87
-39.31
-39.02
-38.33
-37.99
-38.84
-41.34
-45.17
-49.11
-51.33
-49.96
-43.87
-33.10
-18.93
-3.42
11.17
23.04
31.21
35.61
36.80
35.64
33.10
30.01
27.12
25.07
24.41
25.61
28.99
34.63
42.30
51.43
61.21
70.77
79.30
86.09
90.44
91.51
88.26
79.68
65.26
45.60
22.63
-0.69
-21.21
-36.62
-46.12
-50.43
-51.12
-49.94
-48.13
-46.36
-44.82
-43.47
-42.17
-40.70
-38.76
-36.09
-32.64
-28.72
-25.00
-22.17
-20.61
-20.14
-20.01
-19.18
-16.73
-12.23
-5.91
1.41
8.64
14.79
19.30
22.09
23.39
23.51
22.73
21.25
19.34
17.39
15.77
14.64
13.87
13.06
11.78
9.82
7.33
4.69
2.26
0.21
-1.61
-3.50
-5.74
-8.43
-11.52
-14.79
-18.02
-21.00
-23.56
-25.55
-26.80
-27.18
-26.62
-25.24
-23.28
-21.17
-19.45
-18.60
-18.99
-20.74
-23.68
-27.33
-31.09
-34.24
-36.21
-36.68
-35.61
-33.27
-30.10
-26.56
-23.02
-19.63
-16.38
-13.19
-10.02
-6.85
-3.70
-0.53
2.78
6.41
10.47
14.82
19.12
22.91
25.79
27.58
28.42
28.59
28.39
27.91
27.10
25.83
24.03
21.84
19.55
17.50
15.98
15.07
14.74
14.92
15.54
16.53
17.73
18.93
19.78
19.97
19.29
17.73
15.43
12.65
9.66
6.74
4.19
2.34
1.47
1.72
3.07
5.24
7.76
10.09
11.73
12.33
11.73
10.04
7.59
4.84
2.26
0.18
-1.27
-2.20
-2.78
-3.18
-3.42
-3.38
-2.89
-1.81
-0.17
1.90
4.14
6.36
8.42
10.25
11.79
12.97
13.61
13.64
13.02
11.92
10.60
9.34
8.37
7.85
7.90
8.64
10.15
12.46
15.47
18.92
22.52
25.99
29.23
32.29
35.38
38.79
42.86
47.87
53.98
61.06
68.60
75.84
81.95
86.38
89.07
90.43
91.13
91.61
91.89
91.37
89.10
84.12
75.91
64.54
50.54
34.67
17.64
0.06
-17.37
-33.66
-47.57
-57.95
-64.23
-66.80
-67.04
-66.75
-67.54
-70.22
-74.69
-80.15
-85.67
-90.43
-93.91
-95.88
-96.33
-95.50
-93.93
-92.29
-91.12
-90.61
-90.45
-90.02
-88.71
-86.17
-82.46
-77.89
-72.72
-67.03
-60.69
-53.59
-45.86
-37.92
-30.34
-23.61
-17.90
-13.03
-8.61
-4.28
0.07
4.23
7.86
10.70
12.71
14.18
15.57
17.27
19.36
21.65
23.84
25.71
27.30
28.89
30.74
32.98
35.41
37.59
39.12
39.79
39.64
38.91
37.85
36.57
35.05
33.18
30.97
28.54
26.10
23.87
21.91
20.09
18.14
15.82
13.01
9.82
6.51
3.42
0.88
-0.86
-1.61
-1.26
0.21
2.70
6.01
9.81
13.74
17.55
21.06
24.26
27.20
30.00
32.81
35.80
39.16
43.06
47.52
52.43
57.47
62.20
66.21
69.25
71.35
72.75
73.88
75.15
76.85
79.02
81.38
83.26
83.74
81.74
76.34
67.01
53.86
37.68
19.83
1.94
-14.54
-28.57
-39.72
-48.09
-54.16
-58.57
-62.00
-65.04
-68.17
-71.71
-75.74
-80.09
-84.32
-87.76
-89.73
-89.68
-87.33
-82.79
-76.56
-69.45
-62.40
-56.17
-51.16
-47.25
-43.96
-40.74
-37.25
-33.51
-29.83
-26.54
-23.72
-21.15
-18.46
-15.43
-12.20
-9.22
-7.05
-6.08
-6.28
-7.27
-8.54
-9.64
-10.33
-10.61
-10.60
-10.42
-10.12
-9.77
-9.48
-9.40
-9.66
-10.30
-11.24
-12.37
-13.57
-14.80
-16.13
-17.69
-19.61
-22.02
-24.96
-28.38
-32.05
-35.53
-38.18
-39.40
-38.72
-36.12
-32.00
-27.10
-22.27
-18.08
-14.76
-12.13
-9.75
-7.12
-3.93
-0.13
4.10
8.41
12.44
15.89
18.56
20.39
21.42
21.72
21.45
20.70
19.60
18.22
16.58
14.66
12.34
9.51
6.07
2.07
-2.31
-6.64
-10.32
-12.71
-13.27
-11.79
-8.38
-3.48
2.37
8.62
14.82
20.64
25.84
30.25
33.78
36.47
38.51
40.19
41.84
43.70
45.79
47.89
49.58
50.40
50.06
48.48
45.87
42.61
39.07
35.46
31.75
27.73
23.17
17.97
12.26
6.50
1.27
-2.85
-5.47
-6.59
-6.52
-5.76
-4.85
-4.11
-3.69
-3.47
-3.34
-3.20
-3.08
-3.04
-3.13
-3.38
-3.80
-4.43
-5.34
-6.63
-8.35
-10.47
-12.91
-15.61
-18.54
-21.71
-25.17
-28.94
-33.00
-37.25
-41.48
-45.25
-48.01
-49.16
-48.30
-45.41
-40.94
-35.73
-30.68
-26.44
-23.27
-21.01
-19.35
-17.98
-16.82
-15.95
-15.45
-15.31
-15.37
-15.37
-15.10
-14.50
-13.72
-13.02
-12.56
-12.37
-12.28
-12.06
-11.52
-10.64
-9.52
-8.30
-7.08
-5.91
-4.79
-3.83
-3.15
-2.92
-3.21
-3.95
-4.88
-5.71
-6.18
-6.22
-5.94
-5.59
-5.50
-5.95
-7.00
-8.44
-9.78
-10.38
-9.65
-7.22
-3.05
2.58
9.09
15.73
21.73
26.29
28.88
29.30
27.80
25.03
21.89
19.21
17.57
17.19
17.95
19.59
21.75
24.08
26.22
27.86
28.80
29.04
28.78
28.41
28.31
28.65
29.32
29.98
30.18
29.61
28.18
26.00
23.29
20.29
17.12
13.85
10.45
6.92
3.21
-0.69
-4.83
-9.18
-13.60
-17.83
-21.43
-23.86
-24.67
-23.64
-20.93
-17.07
-12.87
-9.05
-6.09
-4.05
-2.63
-1.42
-0.11
1.35
2.81
4.04
4.95
5.60
6.18
6.91
7.88
9.02
10.17
11.12
11.72
11.90
11.69
11.18
10.45
9.57
8.55
7.33
5.83
3.96
1.75
-0.73
-3.28
-5.73
-7.93
-9.82
-11.40
-12.73
-13.86
-14.85
-15.84
-17.06
-18.79
-21.26
-24.40
-27.86
-30.92
-32.81
-32.86
-30.84
-27.01
-22.01
-16.67
-11.69
-7.45
-4.03
-1.32
0.87
2.64
4.01
5.01
5.68
6.18
6.58
6.88
6.90
6.50
5.70
4.79
4.28
4.59
5.87
7.85
10.05
11.91
13.14
13.66
13.59
13.05
12.18
11.06
9.84
8.72
7.87
7.33
6.91
6.30
5.21
3.43
1.03
-1.84
-4.96
-8.17
-11.39
-14.44
-17.01
-18.56
-18.52
-16.49
-12.57
-7.42
-2.11
2.28
5.07
6.21
6.19
5.73
5.39
5.35
5.46
5.45
5.15
4.63
4.11
3.81
3.79
3.99
4.26
4.56
4.95
5.57
6.48
7.60
8.69
9.48
9.73
9.33
8.34
6.92
5.26
3.52
1.75
-0.08
-2.09
-4.38
-7.02
-10.03
-13.41
-17.21
-21.49
-26.26
-31.30
-36.09
-39.83
-41.66
-40.96
-37.58
-31.93
-24.81
-17.16
-9.78
-3.17
2.50
7.33
11.54
15.37
18.94
22.26
25.25
27.87
30.22
32.52
34.97
37.68
40.49
43.07
45.08
46.34
46.90
46.98
46.83
46.57
46.20
45.57
44.51
42.92
40.79
38.16
35.15
31.87
28.43
24.92
21.40
17.95
14.62
11.45
8.47
5.61
2.81
0.05
-2.53
-4.61
-5.77
-5.65
-4.18
-1.58
1.64
4.93
7.97
10.69
13.25
15.87
18.55
21.01
22.76
23.27
22.16
19.35
15.04
9.66
3.72
-2.28
-7.89
-12.74
-16.49
-18.85
-19.68
-19.02
-17.13
-14.48
-11.59
-8.94
-6.86
-5.56
-5.14
-5.60
-6.92
-8.96
-11.54
-14.39
-17.25
-19.94
-22.34
-24.44
-26.21
-27.64
-28.73
-29.44
-29.74
-29.44
-28.28
-25.98
-22.37
-17.61
-12.16
-6.61
-1.51
2.90
6.71
10.23
13.82
17.69
21.81
26.00
29.98
33.54
36.56
39.06
41.18
43.10
44.93
46.64
48.02
48.74
48.47
46.99
44.28
40.53
35.97
30.76
24.99
18.59
11.52
3.81
-4.41
-12.87
-21.26
-29.30
-36.77
-43.54
-49.59
-54.97
-59.77
-64.13
-68.13
-71.72
-74.71
-76.65
-76.95
-74.88
-69.78
-61.14
-48.80
-33.02
-14.49
5.75
26.48
46.53
64.77
80.20
91.94
99.28
101.82
99.70
93.64
84.92
75.13
65.83
58.23
52.93
49.96
48.88
49.03
49.77
50.56
51.06
51.09
50.62
49.71
48.58
47.46
46.60
46.11
45.94
45.86
45.54
44.72
43.33
41.52
39.60
37.91
36.66
35.84
35.23
34.46
33.09
30.78
27.37
22.89
17.56
11.70
5.61
-0.48
-6.42
-12.09
-17.31
-21.89
-25.65
-28.55
-30.78
-32.70
-34.75
-37.27
-40.42
-44.13
-48.21
-52.45
-56.71
-60.81
-64.60
-67.88
-70.53
-72.62
-74.39
-76.19
-78.31
-80.79
-83.38
-85.68
-87.34
-88.20
-88.34
-87.94
-87.19
-86.15
-84.78
-83.03
-80.96
-78.80
-76.92
-75.70
-75.34
-75.79
-76.70
-77.51
-77.56
-76.29
-73.46
-69.17
-63.90
-58.40
-53.47
-49.77
-47.66
-47.08
-47.57
-48.35
-48.50
-47.29
-44.29
-39.59
-33.71
-27.41
-21.44
-16.26
-12.05
-8.73
-6.19
-4.43
-3.57
-3.81
-5.18
-7.50
-10.43
-13.55
-16.63
-19.63
-22.68
-25.90
-29.20
-32.24
-34.48
-35.34
-34.40
-31.55
-26.96
-21.03
-14.30
-7.33
-0.65
5.32
10.34
14.42
17.82
20.99
24.41
28.43
33.09
38.16
43.21
47.78
51.55
54.42
56.40
57.60
58.12
58.05
57.52
56.69
55.78
55.00
54.47
54.22
54.14
54.04
53.69
52.94
51.75
50.20
48.51
46.96
45.76
44.99
44.62
44.51
44.45
44.29
43.89
43.10
41.73
39.51
36.11
31.33
25.08
17.54
9.00
-0.20
-9.84
-19.77
-29.90
-39.99
-49.46
-57.51
-63.18
-65.67
-64.63
-60.23
-53.19
-44.60
-35.75
-27.87
-21.97
-18.62
-17.85
-19.11
-21.42
-23.57
-24.51
-23.69
-21.29
-18.40
-16.73
-18.16
-23.99
-34.35
-47.91
-62.11
-74.00
-81.12
-82.28
-77.70
-68.66
-56.84
-43.69
-30.14
-16.60
-3.27
9.61
21.63
32.29
41.11
47.78
52.16
54.28
54.29
52.39
49.05
44.98
41.28
39.22
39.87
43.75
50.44
58.69
66.74
72.96
76.28
76.51
74.22
70.51
66.52
63.21
61.09
60.22
60.28
60.70
60.87
60.24
58.43
55.28
50.77
45.08
38.44
31.09
23.31
15.34
7.47
-0.06
-7.05
-13.40
-19.11
-24.29
-29.06
-33.45
-37.39
-40.73
-43.32
-45.14
-46.51
-48.01
-50.37
-54.12
-59.32
-65.45
-71.53
-76.39
-79.02
-78.82
-75.63
-69.62
-61.13
-50.60
-38.67
-26.13
-13.98
-3.15
5.61
11.89
15.60
16.87
15.94
13.29
9.60
5.65
2.18
-0.43
-2.24
-3.64
-5.03
-6.52
-7.78
-8.21
-7.28
-4.82
-1.19
2.92
6.72
9.69
11.88
13.86
16.52
20.51
25.93
32.02
37.34
40.22
39.34
34.20
25.30
13.97
2.00
-8.74
-16.65
-20.83
-21.18
-18.53
-14.33
-10.29
-7.83
-7.70
-9.96
-14.12
-19.46
-25.26
-30.80
-35.35
-38.18
-38.68
-36.73
-32.76
-27.66
-22.47
-17.86
-13.96
-10.42
-6.75
-2.69
1.65
5.88
9.55
12.42
14.51
16.03
17.30
18.69
20.60
23.45
27.55
32.94
39.25
45.64
50.97
54.14
54.46
51.88
47.03
40.94
34.65
28.90
23.97
19.85
16.52
14.13
13.03
13.54
15.64
18.78
22.01
24.23
24.75
23.46
20.93
18.07
15.73
14.47
14.35
15.15
16.49
18.08
19.69
21.12
22.12
22.34
21.51
19.53
16.61
13.26
10.06
7.43
5.53
4.19
3.09
2.00
0.82
-0.35
-1.38
-2.25
-3.18
-4.54
-6.70
-9.82
-13.58
-17.35
-20.29
-21.62
-20.90
-18.08
-13.53
-7.84
-1.66
4.45
10.05
14.89
18.80
21.72
23.63
24.62
24.96
25.02
25.20
25.77
26.72
27.69
28.13
27.57
25.85
23.25
20.27
17.51
15.32
13.75
12.60
11.57
10.43
9.05
7.40
5.43
3.00
-0.11
-4.04
-8.78
-14.10
-19.57
-24.72
-29.23
-33.05
-36.38
-39.52
-42.66
-45.68
-48.14
-49.41
-48.96
-46.55
-42.35
-36.83
-30.61
-24.17
-17.77
-11.46
-5.23
0.81
6.43
11.23
14.92
17.37
18.80
19.72
20.73
22.31
24.56
27.25
29.90
32.01
33.28
33.67
33.43
32.90
32.41
32.13
32.01
31.80
31.11
29.53
26.79
22.80
17.85
12.45
7.24
2.76
-0.77
-3.46
-5.68
-7.84
-10.17
-12.62
-14.78
-16.00
-15.62
-13.01
-7.90
-0.61
7.71
15.15
19.56
19.46
14.81
7.22
-0.55
-5.88
-7.31
-5.13
-0.93
3.38
6.49
8.03
8.27
7.50
5.66
2.41
-2.37
-8.27
-14.31
-19.38
-22.68
-24.10
-24.06
-23.31
-22.51
-22.01
-21.83
-21.74
-21.43
-20.61
-19.17
-17.24
-15.20
-13.60
-12.95
-13.56
-15.31
-17.71
-20.14
-22.09
-23.47
-24.57
-25.92
-27.97
-30.80
-34.04
-37.01
-38.87
-39.01
-37.13
-33.30
-27.90
-21.51
-14.80
-8.40
-2.87
1.48
4.53
6.38
7.26
7.45
7.27
7.03
7.04
7.59
8.80
10.58
12.59
14.39
15.61
16.12
16.09
15.84
15.58
15.31
14.78
13.66
11.73
9.07
5.97
2.83
-0.15
-3.01
-6.14
-9.97
-14.82
-20.77
-27.56
-34.75
-41.82
-48.36
-54.11
-58.97
-62.96
-66.17
-68.73
-70.69
-71.89
-71.92
-70.06
-65.58
-57.98
-47.34
-34.36
-20.12
-5.74
8.06
20.98
33.03
44.18
54.16
62.49
68.72
72.76
75.08
76.51
77.92
79.92
82.59
85.59
88.30
90.06
90.33
88.76
85.26
79.95
73.17
65.45
57.35
49.30
41.54
34.01
26.51
18.80
10.70
2.16
-6.75
-15.85
-24.88
-33.45
-41.03
-47.01
-50.92
-52.54
-51.98
-49.70
-46.15
-41.67
-36.32
-30.02
-22.84
-15.13
-7.63
-1.24
3.28
5.57
5.76
4.36
2.10
-0.27
-2.08
-2.75
-1.81
0.94
5.37
11.00
17.10
22.92
27.87
31.73
34.62
36.84
38.64
40.04
40.70
40.09
37.66
33.04
26.22
17.54
7.58
-2.98
-13.44
-23.20
-31.83
-39.17
-45.41
-51.07
-56.84
-63.41
-71.23
-80.39
-90.60
-101.27
-111.52
-120.25
-126.30
-128.73
-127.16
-122.01
-114.43
-105.85
-97.45
-89.73
-82.18
-73.36
-61.11
-43.02
-17.13
17.30
59.18
105.62
152.45
195.31
230.72
256.62
272.49
278.84
276.76
267.63
253.03
234.74
214.56
193.96
173.89
154.69
136.29
118.42
100.78
83.17
65.44
47.60
29.82
12.50
-3.84
-18.75
-31.94
-43.36
-53.08
-61.27
-68.11
-73.71
-78.08
-81.19
-82.97
-83.46
-82.81
-81.36
-79.43
-77.22
-74.66
-71.45
-67.25
-61.88
-55.43
-48.28
-40.96
-33.99
-27.72
-22.22
-17.33
-12.64
-7.68
-2.08
4.23
10.99
17.63
23.52
28.08
31.10
32.70
33.31
33.41
33.36
33.21
32.72
31.42
28.83
24.64
18.79
11.48
3.02
-6.25
-16.01
-25.90
-35.45
-44.00
-50.87
-55.40
-57.20
-56.19
-52.56
-46.75
-39.31
-30.92
-22.28
-14.07
-6.84
-0.87
3.77
7.28
9.93
12.12
14.35
17.27
21.53
27.52
35.02
42.97
49.68
53.29
52.59
47.50
39.13
29.37
20.09
12.53
7.11
3.65
1.72
1.04
1.43
2.70
4.37
5.61
5.43
2.94
-2.32
-10.30
-20.50
-32.07
-44.14
-55.94
-67.09
-77.57
-87.64
-97.54
-107.20
-116.07
-123.19
-127.47
-128.07
-124.70
-117.80
-108.42
-98.08
-88.42
-80.81
-76.07
-74.29
-74.84
-76.76
-79.15
-81.64
-84.64
-89.11
-96.07
-105.69
-116.57
-125.57
-128.55
-121.76
-103.47
-74.92
-40.04
-4.23
27.51
51.92
68.01
76.76
80.15
80.36
79.28
78.37
78.59
80.20
82.64
84.57
84.26
80.26
71.96
59.81
45.08
29.52
14.84
2.30
-7.43
-14.23
-18.41
-20.51
-21.08
-20.50
-19.02
-16.85
-14.54
-13.31
-15.04
-21.77
-34.66
-52.87
-73.06
-90.18
-99.18
-97.13
-84.59
-65.55
-45.94
-31.33
-24.72
-25.41
-29.32
-30.52
-23.47
-5.05
24.23
60.34
97.12
128.26
149.37
158.98
158.53
151.19
140.39
128.79
117.88
108.38
100.78
95.56
93.20
93.78
96.61
100.24
102.91
103.21
100.76
96.29
91.31
87.31
85.04
84.21
83.78
82.54
79.73
75.20
69.39
62.86
56.04
49.19
42.57
36.61
32.02
29.53
29.60
32.07
36.09
40.37
43.55
44.69
43.50
40.30
35.70
30.33
24.64
18.97
13.75
9.58
7.21
7.15
9.38
13.19
17.27
20.30
21.37
20.40
18.15
15.83
14.72
15.71
19.12
24.61
31.28
37.76
42.45
43.71
40.32
31.69
18.16
0.95
-18.25
-37.61
-55.63
-71.33
-84.22
-94.33
-101.96
-107.68
-112.19
-116.14
-120.00
-123.86
-127.37
-129.82
-130.41
-128.44
-123.69
-116.36
-107.14
-96.92
-86.59
-76.87
-68.18
-60.72
-54.55
-49.69
-46.18
-44.02
-43.04
-42.79
-42.63
-41.79
-39.77
-36.46
-32.27
-27.92
-24.01
-20.74
-17.79
-14.53
-10.53
-5.87
-1.34
1.85
2.54
0.20
-4.84
-11.34
-17.63
-22.07
-23.57
-21.79
-17.10
-10.42
-3.00
3.81
8.77
10.98
10.10
6.45
0.79
-5.88
-12.73
-19.22
-25.19
-30.59
-35.30
-39.06
-41.49
-42.25
-41.10
-37.93
-32.79
-26.04
-18.49
-11.37
-6.05
-3.67
-4.72
-8.87
-15.09
-21.94
-27.93
-31.75
-32.41
-29.32
-22.34
-11.94
0.76
14.06
26.01
35.07
40.70
43.78
46.22
50.28
57.42
67.77
80.42
94.31
109.02
124.60
140.96
157.13
171.41
182.21
189.08
193.04
195.58
197.33
197.05
192.23
180.57
161.70
137.48
110.97
84.56
58.65
31.85
2.08
-31.68
-68.52
-105.65
-139.17
-165.28
-181.42
-187.19
-184.39
-176.53
-167.57
-160.44
-156.14
-153.68
-150.98
-146.21
-138.71
-129.16
-118.83
-108.84
-99.73
-91.72
-85.08
-80.56
-78.97
-80.68
-85.02
-90.33
-94.56
-95.99
-93.97
-88.74
-80.96
-71.07
-58.94
-44.13
-26.37
-5.99
16.01
38.32
59.65
78.82
94.67
106.00
111.65
111.11
104.95
95.11
84.38
75.44
69.95
68.03
68.61
70.03
70.90
70.31
67.76
62.89
55.48
45.60
33.85
21.47
9.98
0.70
-5.77
-9.78
-12.40
-14.96
-18.53
-23.62
-30.02
-37.15
-44.27
-50.83
-56.63
-61.73
-66.27
-70.27
-73.55
-75.84
-76.93
-76.73
-75.16
-72.07
-67.25
-60.88
-53.85
-47.96
-45.44
-47.87
-55.26
-65.72
-76.12
-83.37
-85.63
-82.87
-76.67
-69.37
-63.28
-60.10
-60.60
-64.50
-70.37
-75.81
-77.88
-73.97
-62.56
-43.92
-20.18
5.30
28.88
47.88
61.19
69.50
74.71
78.89
83.40
88.34
92.81
95.48
95.33
92.17
86.74
80.54
75.30
72.49
72.79
75.94
80.70
85.35
88.24
88.34
85.25
79.10
70.18
58.89
46.04
33.12
22.22
15.38
13.60
16.20
20.95
25.03
26.36
24.45
20.39
16.05
12.96
11.51
10.97
10.02
7.67
3.68
-1.47
-6.89
-11.79
-15.54
-17.60
-17.53
-15.22
-11.19
-6.68
-3.37
-2.53
-4.23
-7.07
-8.66
-6.77
-0.31
10.03
22.27
34.14
44.22
52.43
59.88
67.86
77.01
86.93
96.32
103.79
108.56
110.84
111.58
111.85
112.17
112.19
110.85
107.02
100.16
90.77
80.29
70.55
63.07
58.53
56.62
56.35
56.57
56.44
55.65
54.26
52.48
50.41
48.08
45.60
43.23
41.30
39.95
39.03
38.17
37.07
35.68
34.00
31.71
27.81
20.54
7.77
-12.16
-39.46
-72.03
-105.41
-133.62
-151.21
-155.28
-147.07
-131.86
-117.10
-109.57
-112.74
-125.76
-144.31
-162.86
-176.95
-184.59
-186.42
-184.83
-182.95
-183.57
-188.27
-196.73
-206.68
-214.61
-217.14
-212.56
-201.49
-186.48
-170.43
-154.94
-139.48
-121.87
-99.82
-72.36
-40.60
-7.24
24.61
52.67
76.05
94.97
109.97
120.99
127.32
128.05
122.96
113.19
101.16
89.80
81.42
76.89
75.43
75.19
74.16
70.96
65.20
57.43
48.74
40.36
33.24
27.86
24.22
21.97
20.58
19.63
18.95
18.61
18.75
19.42
20.42
21.38
21.90
21.70
20.77
19.36
17.81
16.48
15.55
15.08
15.02
15.17
15.17
14.61
13.08
10.40
6.77
2.83
-0.56
-2.60
-2.88
-1.42
1.32
4.69
8.15
11.33
14.06
16.31
18.03
19.27
20.06
20.52
20.78
20.95
21.18
21.54
22.09
22.87
23.87
25.03
26.20
27.22
27.96
28.45
28.90
29.66
31.21
33.90
37.84
42.81
48.35
53.81
58.69
62.72
66.02
69.03
72.31
76.32
81.09
86.07
90.03
91.35
88.47
80.59
68.12
52.72
36.93
23.29
13.52
8.15
6.57
7.54
9.74
12.09
13.75
13.99
12.05
7.38
-0.13
-9.97
-21.11
-32.30
-42.47
-51.20
-58.54
-65.00
-71.08
-76.97
-82.44
-86.88
-89.58
-90.07
-88.46
-85.39
-81.94
-79.18
-77.73
-77.66
-78.47
-79.41
-79.80
-79.27
-77.78
-75.52
-72.73
-69.54
-66.09
-62.49
-58.97
-55.95
-53.94
-53.37
-54.52
-57.24
-60.90
-64.59
-67.28
-68.28
-67.42
-65.27
-62.85
-61.42
-62.01
-65.13
-70.77
-78.48
-87.64
-97.77
-108.67
-120.60
-134.16
-150.05
-168.66
-189.59
-211.27
-230.73
-243.93
-246.49
-234.91
-207.77
-166.56
-115.62
-61.10
-9.44
34.31
67.55
90.36
104.86
114.19
121.38
128.74
137.44
147.63
158.60
169.07
177.61
183.01
184.69
182.81
178.07
171.40
163.61
155.25
146.65
138.06
129.70
121.69
114.12
107.00
100.67
95.92
94.01
95.99
101.75
109.39
115.38
115.75
107.80
91.50
69.59
46.43
26.17
11.03
0.83
-6.30
-12.45
-18.73
-24.91
-30.11
-33.90
-36.83
-40.17
-45.03
-51.42
-57.94
-62.42
-62.87
-58.46
-49.84
-38.72
-27.19
-16.90
-8.93
-3.81
-1.78
-2.99
-7.45
-14.96
-24.94
-36.46
-48.36
-59.44
-68.75
-75.63
-79.79
-81.12
-79.63
-75.31
-68.41
-59.65
-50.33
-42.14
-36.65
-34.55
-35.23
-36.91
-37.28
-34.44
-27.79
-18.29
-8.15
0.22
5.15
6.45
5.46
4.59
6.59
13.95
28.54
51.49
82.72
120.44
160.41
196.19
221.17
231.11
226.14
210.60
190.74
171.64
154.49
136.66
113.68
82.48
43.75
2.14
-35.44
-63.25
-78.81
-83.21
-79.37
-69.57
-54.35
-33.61
-8.96
14.51
28.72
25.95
3.12
-35.26
-78.13
-112.45
-129.32
-127.66
-113.65
-96.90
-85.06
-80.65
-81.09
-81.63
-78.75
-71.95
-63.85
-58.03
-57.03
-60.81
-67.00
-72.12
-72.85
-67.17
-54.48
-35.85
-14.01
6.56
20.54
23.61
14.56
-3.30
-23.07
-36.86
-39.37
-29.98
-12.45
7.50
25.33
39.18
49.62
57.79
63.80
66.38
63.96
56.06
43.90
29.98
16.56
4.76
-5.52
-14.54
-21.79
-25.99
-26.05
-22.52
-18.05
-16.49
-20.82
-31.41
-45.58
-59.01
-68.00
-71.19
-69.88
-66.60
-63.45
-60.98
-58.35
-54.36
-48.27
-40.16
-30.52
-19.83
-8.39
3.34
14.43
23.44
28.85
29.94
27.37
23.33
20.76
22.24
28.85
39.74
52.68
65.20
75.98
85.51
95.63
108.11
122.94
137.60
147.62
148.38
137.10
114.17
82.94
48.37
15.75
-10.18
-25.42
-27.24
-15.18
7.56
33.91
54.69
62.33
54.87
37.52
20.67
14.79
25.31
50.03
80.61
106.75
120.83
120.33
107.33
86.23
61.35
35.88
12.04
-8.36
-23.57
-32.27
-34.18
-30.55
-23.84
-17.03
-12.73
-12.54
-16.94
-25.45
-37.15
-50.97
-65.88
-80.81
-94.54
-105.89
-113.87
-117.90
-118.00
-114.84
-109.73
-104.51
-101.24
-101.62
-106.31
-114.42
-123.48
-130.13
-131.39
-125.93
-114.66
-100.34
-86.10
-74.09
-64.52
-55.85
-45.67
-31.94
-13.92
7.52
30.18
51.43
69.22
82.85
93.14
101.40
108.38
113.01
112.51
103.56
84.88
59.20
33.39
15.97
12.83
24.07
43.57
62.11
71.86
69.90
58.58
43.07
27.81
14.22
1.02
-13.84
-30.81
-47.98
-61.94
-69.73
-70.52
-65.91
-59.16
-53.49
-50.83
-50.81
-50.68
-46.27
-33.47
-9.89
24.26
66.21
111.84
157.02
198.45
233.81
261.16
278.57
284.33
277.87
260.50
235.64
207.80
181.06
157.61
137.29
118.26
98.16
75.24
48.91
19.87
-9.90
-37.24
-58.09
-68.73
-67.50
-56.43
-41.33
-29.98
-28.86
-40.21
-61.05
-84.81
-104.70
-116.62
-120.33
-118.29
-113.49
-107.75
-101.26
-93.48
-84.25
-74.39
-65.25
-57.89
-52.44
-48.07
-43.56
-38.04
-31.46
-24.46
-18.06
-13.03
-9.58
-7.36
-5.67
-3.88
-1.56
1.53
5.61
10.96
17.71
25.55
33.49
40.01
43.61
43.40
39.52
32.99
25.25
17.55
10.67
4.76
-0.31
-4.84
-9.13
-13.48
-18.21
-23.52
-29.45
-35.69
-41.66
-46.73
-50.39
-52.42
-52.82
-51.73
-49.26
-45.62
-41.10
-36.30
-31.96
-28.73
-26.85
-26.02
-25.43
-24.20
-21.80
-18.23
-14.06
-10.04
-6.68
-4.00
-1.46
1.72
6.25
12.44
19.95
27.88
35.01
40.19
42.79
42.85
40.99
38.07
34.72
31.05
26.67
20.84
12.91
2.52
-10.17
-24.43
-38.86
-51.15
-58.28
-57.21
-46.25
-26.32
-1.49
22.06
38.25
43.50
38.11
25.73
11.41
-0.82
-9.26
-14.49
-17.94
-20.43
-21.56
-20.24
-15.76
-8.70
-0.92
5.27
8.06
6.89
2.66
-2.86
-7.75
-10.77
-11.80
-11.77
-12.18
-14.28
-18.32
-23.27
-27.15
-27.83
-23.99
-15.71
-4.33
8.19
20.16
30.67
39.58
46.96
52.65
56.06
56.42
53.36
47.21
39.01
30.11
21.68
14.43
8.67
4.56
2.30
2.18
4.37
8.67
14.34
20.20
24.88
27.25
26.77
23.59
18.42
12.22
5.89
0.12
-4.68
-8.20
-10.28
-10.81
-9.88
-7.81
-5.07
-2.10
0.87
3.89
7.22
11.01
15.05
18.67
20.94
21.04
18.65
14.07
8.10
1.72
-4.29
-9.52
-13.90
-17.44
-20.10
-21.78
-22.36
-21.99
-21.00
-19.84
-18.94
-18.48
-18.51
-18.90
-19.40
-19.71
-19.46
-18.25
-15.84
-12.34
-8.22
-4.34
-1.65
-0.88
-2.37
-6.09
-11.79
-19.14
-27.83
-37.48
-47.54
-57.26
-65.76
-72.25
-76.21
-77.48
-76.32
-73.33
-69.31
-65.15
-61.60
-59.22
-58.20
-58.43
-59.44
-60.55
-60.89
-59.65
-56.21
-50.38
-42.50
-33.32
-23.71
-14.38
-5.69
2.41
10.04
17.14
23.20
27.17
27.80
24.06
15.90
4.67
-6.79
-14.72
-15.56
-7.46
8.80
29.59
49.51
63.19
67.27
61.54
49.09
35.04
24.61
21.45
26.49
37.86
51.72
63.69
70.28
69.99
63.75
54.38
45.64
40.90
42.09
49.18
60.37
72.75
83.25
89.39
89.70
83.85
72.42
56.61
38.04
18.55
0.01
-15.87
-27.79
-35.01
-37.37
-35.15
-28.92
-19.48
-8.02
3.69
13.42
19.04
19.34
14.69
7.03
-0.92
-6.79
-9.35
-8.59
-5.16
0.42
7.97
17.23
27.28
36.14
41.30
40.81
34.43
24.14
13.49
6.09
4.07
7.04
12.39
16.46
16.20
10.36
-0.27
-13.55
-26.94
-38.19
-45.65
-48.48
-46.93
-42.72
-38.92
-39.21
-46.29
-60.46
-79.14
-97.79
-111.86
-118.61
-117.96
-111.83
-102.73
-92.52
-81.99
-71.33
-60.92
-51.57
-44.21
-39.24
-36.02
-33.02
-28.29
-20.45
-9.35
3.87
17.16
28.42
36.27
40.48
41.85
41.67
41.06
40.56
40.03
38.95
36.77
33.29
28.72
23.68
18.86
14.74
11.47
8.81
6.30
3.48
0.06
-3.98
-8.35
-12.51
-15.74
-17.26
-16.47
-13.14
-7.66
-0.89
5.89
11.48
15.16
16.99
18.03
20.04
25.03
34.48
48.57
65.78
83.13
96.97
104.23
103.48
95.35
82.22
67.09
52.56
40.08
29.97
21.83
15.23
10.01
6.28
4.11
3.32
3.34
3.48
3.25
2.57
1.75
1.21
1.26
1.86
2.58
2.86
2.24
0.50
-2.23
-5.56
-8.95
-12.02
-14.54
-16.49
-17.73
-17.89
-16.25
-12.05
-4.96
4.46
14.60
23.17
27.99
27.81
22.75
14.23
4.33
-4.99
-12.49
-17.94
-21.92
-25.53
-29.89
-35.83
-43.62
-52.90
-62.81
-72.22
-79.95
-84.98
-86.66
-84.64
-78.90
-69.93
-58.74
-46.99
-36.91
-30.91
-31.05
-38.29
-51.66
-68.13
-83.14
-92.23
-92.59
-84.16
-69.46
-52.40
-36.81
-25.40
-19.46
-18.94
-22.37
-26.50
-26.20
-15.52
9.93
50.10
99.08
146.43
181.11
196.07
190.73
170.57
143.94
118.38
98.22
84.42
75.81
70.79
68.17
67.10
66.53
64.79
59.83
49.96
34.86
16.28
-2.11
-15.61
-20.35
-15.10
-2.38
12.20
22.07
22.41
12.11
-6.08
-27.12
-46.06
-59.60
-66.26
-65.55
-57.40
-42.37
-22.63
-2.43
12.76
18.28
12.72
-1.19
-17.65
-30.57
-36.26
-34.68
-28.61
-21.44
-15.38
-10.77
-6.87
-3.00
0.64
3.22
3.81
1.90
-2.16
-7.39
-12.35
-15.68
-16.54
-14.87
-11.57
-7.97
-5.40
-4.48
-5.01
-6.30
-7.85
-9.81
-12.87
-17.61
-23.90
-30.48
-35.45
-37.07
-34.59
-28.56
-20.71
-13.08
-7.31
-4.12
-3.21
-3.57
-4.01
-3.57
-1.88
0.86
4.07
7.08
9.38
10.77
11.32
11.31
11.05
10.89
11.00
11.41
11.92
12.19
11.92
10.96
9.51
7.97
6.79
6.15
6.01
6.02
5.84
5.17
3.81
1.63
-1.55
-5.80
-10.88
-16.12
-20.41
-22.57
-21.71
-17.74
-11.35
-3.89
3.18
8.68
12.08
13.48
13.42
12.58
11.53
10.64
10.06
9.84
9.96
10.38
11.01
11.68
12.18
12.27
11.77
10.67
9.07
7.15
5.06
2.87
0.59
-1.70
-3.75
-5.29
-6.05
-6.00
-5.41
-4.89
-5.08
-6.51
-9.40
-13.50
-18.20
-22.60
-25.78
-27.00
-25.97
-22.90
-18.47
-13.59
-9.06
-5.36
-2.58
-0.50
1.24
2.91
4.61
6.32
7.93
9.33
10.44
11.29
11.95
12.47
12.91
13.23
13.33
13.08
12.41
11.31
9.88
8.24
6.49
4.70
2.87
1.03
-0.81
-2.63
-4.46
-6.34
-8.32
-10.48
-12.82
-15.39
-18.16
-21.08
-23.91
-26.27
-27.59
-27.34
-25.23
-21.31
-16.10
-10.41
-5.08
-0.76
2.29
4.18
5.33
6.20
7.27
8.79
10.76
12.91
14.66
15.35
14.36
11.38
6.63
0.88
-4.68
-8.74
-10.29
-9.03
-5.43
-0.67
3.87
7.00
8.19
7.53
5.65
3.30
1.06
-0.76
-2.18
-3.39
-4.71
-6.53
-9.13
-12.64
-16.74
-20.71
-23.48
-23.95
-21.45
-16.07
-8.75
-1.05
5.31
9.01
9.58
7.53
4.01
0.31
-2.58
-4.22
-4.44
-3.18
-0.45
3.45
7.70
11.22
13.32
14.46
16.21
20.42
27.77
36.87
44.56
47.27
42.97
32.21
17.82
3.41
-8.22
-16.05
-20.59
-22.99
-24.18
-24.47
-23.81
-22.08
-19.36
-15.94
-12.18
-8.39
-4.62
-0.69
3.95
9.82
17.10
25.20
32.75
37.97
39.32
36.28
29.55
20.90
12.41
5.83
1.97
0.69
1.16
2.45
3.87
5.21
6.70
8.64
11.21
14.16
16.87
18.60
18.74
17.22
14.42
11.14
8.21
6.14
4.95
4.11
2.82
0.26
-3.97
-9.66
-15.99
-21.68
-25.47
-26.38
-24.00
-18.48
-10.51
-1.22
7.97
15.60
20.50
22.08
20.57
16.87
12.16
7.50
3.51
0.42
-1.71
-2.75
-2.45
-0.61
2.62
6.55
10.10
12.18
12.07
9.65
5.45
0.37
-4.67
-8.94
-12.02
-13.77
-14.27
-13.75
-12.54
-11.10
-9.93
-9.48
-9.89
-10.93
-12.04
-12.48
-11.65
-9.37
-5.92
-1.92
1.85
4.76
6.48
7.08
6.84
6.17
5.46
4.92
4.68
4.65
4.73
4.68
4.30
3.44
2.06
0.27
-1.76
-3.79
-5.63
-7.10
-8.17
-8.93
-9.69
-10.87
-12.93
-16.09
-20.15
-24.49
-28.21
-30.48
-30.84
-29.30
-26.20
-21.94
-16.81
-10.91
-4.39
2.35
8.74
14.09
17.88
19.95
20.52
20.02
18.87
17.27
15.20
12.56
9.32
5.76
2.40
-0.08
-1.01
0.02
2.88
6.77
10.35
12.06
10.67
5.73
-2.12
-11.42
-20.33
-27.23
-31.22
-32.21
-30.81
-28.03
-24.96
-22.56
-21.54
-22.14
-24.08
-26.55
-28.40
-28.47
-26.09
-21.24
-14.56
-7.14
-0.18
5.37
9.02
10.70
10.75
9.67
7.98
6.12
4.37
2.90
1.72
0.82
0.16
-0.20
-0.17
0.35
1.39
2.86
4.54
6.09
7.18
7.55
7.05
5.65
3.39
0.33
-3.40
-7.71
-12.41
-17.20
-21.72
-25.49
-28.05
-28.98
-28.05
-25.34
-21.16
-16.11
-10.83
-5.93
-1.86
1.15
3.06
3.97
4.08
3.67
3.00
2.38
1.94
1.75
1.71
1.60
1.26
0.56
-0.52
-1.87
-3.33
-4.71
-5.81
-6.51
-6.76
-6.60
-6.21
-5.91
-6.04
-6.90
-8.62
-11.06
-13.78
-16.17
-17.63
-17.76
-16.46
-13.94
-10.62
-6.93
-3.21
0.40
3.79
6.93
9.64
11.67
12.80
12.92
12.22
11.08
10.00
9.35
9.29
9.66
10.16
10.46
10.33
9.75
8.73
7.34
5.61
3.55
1.26
-1.13
-3.35
-5.21
-6.63
-7.79
-9.00
-10.52
-12.37
-14.26
-15.71
-16.18
-15.46
-13.61
-10.94
-7.85
-4.60
-1.40
1.59
4.05
5.66
6.07
5.25
3.44
1.20
-0.88
-2.35
-3.00
-2.92
-2.34
-1.56
-0.91
-0.59
-0.75
-1.37
-2.25
-3.14
-3.81
-4.13
-4.24
-4.46
-5.14
-6.58
-8.84
-11.63
-14.36
-16.29
-16.76
-15.42
-12.41
-8.28
-3.94
-0.17
2.54
4.20
5.10
5.64
6.08
6.39
6.50
6.41
6.30
6.52
7.39
8.97
11.01
13.00
14.42
14.99
14.71
13.84
12.68
11.41
10.07
8.55
6.77
4.74
2.59
0.53
-1.33
-2.98
-4.60
-6.35
-8.28
-10.17
-11.61
-12.03
-11.04
-8.52
-4.73
-0.25
4.25
8.16
11.09
12.95
13.88
14.18
14.13
13.99
13.88
13.85
13.89
13.97
14.10
14.30
14.54
14.79
14.95
14.98
14.87
14.70
14.47
14.10
13.37
12.00
9.82
6.84
3.36
-0.15
-3.25
-5.67
-7.40
-8.67
-9.79
-10.96
-12.23
-13.34
-13.92
-13.56
-12.01
-9.26
-5.61
-1.51
2.60
6.44
9.93
13.02
15.67
17.70
18.94
19.38
19.30
19.14
19.31
19.94
20.84
21.58
21.76
21.22
20.05
18.49
16.75
14.92
13.00
10.93
8.74
6.57
4.62
3.10
2.16
1.85
2.04
2.41
2.56
2.08
0.71
-1.55
-4.43
-7.43
-9.95
-11.45
-11.60
-10.32
-7.89
-4.80
-1.70
0.88
2.56
3.33
3.36
2.98
2.47
2.00
1.65
1.40
1.23
1.13
1.13
1.22
1.39
1.59
1.75
1.91
2.13
2.53
3.15
3.96
4.73
5.23
5.26
4.74
3.84
2.80
1.87
1.14
0.48
-0.34
-1.63
-3.51
-5.88
-8.37
-10.48
-11.68
-11.64
-10.37
-8.10
-5.24
-2.23
0.61
3.11
5.24
7.01
8.45
9.49
10.15
10.51
10.74
11.02
11.44
11.91
12.22
12.16
11.56
10.45
8.97
7.42
6.06
5.11
4.70
4.82
5.35
6.00
6.50
6.60
6.22
5.43
4.30
2.93
1.32
-0.58
-2.75
-5.10
-7.50
-9.81
-11.92
-13.68
-14.88
-15.25
-14.56
-12.71
-9.85
-6.42
-2.91
0.25
2.82
4.75
6.10
6.92
7.26
7.19
6.85
6.45
6.22
6.28
6.58
6.99
7.34
7.52
7.52
7.37
7.16
6.93
6.76
6.73
6.90
7.23
7.54
7.59
7.14
6.09
4.56
2.85
1.26
-0.00
-0.90
-1.56
-2.24
-3.17
-4.52
-6.36
-8.63
-11.10
-13.41
-15.12
-15.83
-15.31
-13.61
-10.99
-7.91
-4.84
-2.21
-0.21
1.16
2.02
2.55
2.84
2.93
2.85
2.70
2.69
3.01
3.72
4.65
5.48
5.86
5.67
5.00
4.18
3.54
3.19
3.07
2.96
2.68
2.12
1.31
0.34
-0.72
-1.84
-3.00
-4.22
-5.52
-6.93
-8.44
-10.01
-11.51
-12.70
-13.33
-13.13
-11.92
-9.72
-6.70
-3.19
0.38
3.61
6.20
8.06
9.24
9.93
10.32
10.54
10.65
10.62
10.43
10.09
9.67
9.21
8.69
8.05
7.14
5.89
4.35
2.73
1.30
0.31
-0.24
-0.51
-0.79
-1.36
-2.30
-3.50
-4.73
-5.76
-6.53
-7.12
-7.72
-8.42
-9.26
-10.16
-11.09
-12.02
-13.02
-14.04
-14.93
-15.38
-15.05
-13.78
-11.67
-9.05
-6.37
-3.92
-1.83
-0.06
1.47
2.82
3.92
4.74
5.32
5.79
6.35
7.13
8.16
9.26
10.25
10.95
11.25
11.18
10.87
10.44
9.97
9.45
8.77
7.79
6.41
4.70
2.86
1.17
-0.08
-0.78
-1.01
-0.95
-0.84
-0.87
-1.14
-1.73
-2.75
-4.33
-6.51
-9.11
-11.68
-13.59
-14.23
-13.34
-11.09
-8.05
-4.94
-2.30
-0.30
1.25
2.63
4.01
5.28
6.19
6.53
6.31
5.77
5.22
4.88
4.67
4.42
3.98
3.36
2.87
2.81
3.34
4.28
5.23
5.74
5.55
4.66
3.26
1.58
-0.19
-1.96
-3.65
-5.16
-6.43
-7.47
-8.39
-9.42
-10.78
-12.50
-14.40
-16.04
-16.93
-16.71
-15.28
-12.88
-9.96
-7.00
-4.33
-2.09
-0.21
1.43
2.88
4.11
5.04
5.65
6.05
6.40
6.82
7.39
8.04
8.67
9.17
9.53
9.76
9.86
9.80
9.51
8.91
8.00
6.75
5.23
3.44
1.43
-0.77
-3.06
-5.28
-7.30
-9.04
-10.54
-12.00
-13.59
-15.42
-17.40
-19.20
-20.39
-20.51
-19.34
-16.93
-13.59
-9.82
-6.12
-2.89
-0.36
1.37
2.33
2.69
2.67
2.59
2.74
3.38
4.58
6.27
8.16
9.97
11.48
12.62
13.46
14.10
14.58
14.84
14.73
14.08
12.88
11.26
9.54
8.08
7.18
6.94
7.17
7.45
7.24
6.01
3.47
-0.43
-5.39
-10.88
-16.19
-20.58
-23.41
-24.15
-22.55
-18.59
-12.49
-4.54
5.01
16.07
28.54
42.15
56.26
69.81
81.47
89.94
94.42
94.86
91.97
86.98
81.06
75.00
69.02
63.12
57.34
52.08
47.83
44.92
43.25
42.42
42.01
41.86
42.05
42.72
43.90
45.38
46.91
48.52
50.48
53.07
56.00
58.10
57.55
52.65
42.64
28.29
11.64
-4.61
-18.04
-27.11
-31.50
-31.92
-29.79
-26.62
-23.68
-21.77
-21.25
-22.13
-24.17
-26.97
-30.01
-32.73
-34.67
-35.62
-35.66
-35.19
-34.80
-35.03
-36.21
-38.33
-41.13
-44.23
-47.20
-49.73
-51.59
-52.78
-53.50
-54.20
-55.45
-57.63
-60.75
-64.30
-67.43
-69.23
-69.11
-66.99
-63.22
-58.39
-52.94
-47.02
-40.46
-33.07
-24.80
-15.92
-6.93
1.65
9.50
16.58
22.96
28.70
33.55
37.11
39.02
39.21
38.17
36.67
35.43
34.75
34.45
34.02
33.04
31.47
29.62
27.95
26.70
25.68
24.37
22.18
18.83
14.49
9.71
5.11
1.25
-1.62
-3.56
-4.85
-5.94
-7.28
-9.29
-12.10
-15.62
-19.49
-23.15
-25.89
-26.99
-25.87
-22.24
-16.33
-8.92
-1.32
5.04
9.07
10.35
9.36
7.04
4.46
2.26
0.51
-1.09
-2.96
-5.34
-8.26
-11.59
-15.34
-19.52
-24.15
-28.98
-33.46
-36.93
-38.88
-39.34
-38.74
-37.77
-36.86
-36.03
-34.78
-32.48
-28.60
-23.02
-15.99
-7.93
0.73
9.80
19.22
28.81
38.14
46.36
52.59
56.13
56.96
55.71
53.43
51.21
49.67
48.83
48.13
46.82
44.20
39.92
33.95
26.43
17.62
7.87
-2.26
-11.95
-20.15
-25.87
-28.41
-27.63
-24.11
-18.91
-13.37
-8.62
-5.40
-3.91
-3.92
-4.94
-6.29
-7.33
-7.44
-6.28
-3.78
-0.23
3.85
7.94
11.62
14.73
17.24
19.18
20.43
20.76
19.97
17.96
14.98
11.50
8.19
5.61
4.08
3.48
3.31
2.91
1.65
-0.77
-4.31
-8.58
-13.09
-17.45
-21.50
-25.35
-29.20
-33.28
-37.55
-41.78
-45.56
-48.44
-50.08
-50.28
-49.17
-47.06
-44.56
-42.43
-41.44
-42.11
-44.51
-48.07
-51.68
-54.06
-54.08
-51.24
-45.79
-38.58
-30.79
-23.50
-17.43
-12.78
-9.30
-6.46
-3.61
-0.26
3.82
8.56
13.60
18.42
22.48
25.40
26.93
27.13
26.26
24.82
23.42
22.59
22.58
23.29
24.14
24.38
23.32
20.62
16.49
11.56
6.69
2.68
0.04
-1.09
-0.91
0.15
1.54
2.75
3.43
3.36
2.50
1.03
-0.69
-2.16
-2.88
-2.53
-1.15
0.80
2.48
2.99
1.75
-1.14
-4.83
-8.02
-9.43
-8.36
-4.89
0.10
5.41
9.99
13.32
15.47
16.89
18.00
18.88
19.18
18.31
15.88
11.87
6.78
1.34
-3.78
-8.25
-12.13
-15.65
-19.01
-22.15
-24.85
-26.81
-27.89
-28.18
-27.92
-27.46
-26.99
-26.53
-25.79
-24.35
-21.78
-17.88
-12.84
-7.18
-1.63
3.22
7.16
10.34
13.14
15.81
18.32
20.36
21.55
21.66
20.74
19.04
16.84
14.34
11.54
8.49
5.29
2.27
-0.17
-1.73
-2.29
-1.99
-1.09
0.13
1.46
2.70
3.72
4.33
4.42
3.96
3.02
1.73
0.15
-1.78
-4.21
-7.28
-10.92
-14.82
-18.49
-21.45
-23.46
-24.56
-25.02
-25.17
-25.26
-25.40
-25.64
-26.05
-26.73
-27.78
-29.19
-30.80
-32.35
-33.54
-34.24
-34.56
-34.79
-35.36
-36.64
-38.83
-41.90
-45.61
-49.66
-53.77
-57.80
-61.67
-65.36
-68.95
-72.51
-76.21
-80.21
-84.52
-88.88
-92.62
-94.80
-94.43
-90.79
-83.66
-73.50
-61.26
-48.21
-35.51
-24.09
-14.32
-6.11
0.99
7.56
14.09
20.91
28.14
35.77
43.70
51.78
59.89
67.92
75.93
84.30
93.75
105.14
119.02
134.87
150.65
162.86
167.55
161.73
144.74
118.90
88.85
60.03
36.90
21.60
13.85
11.58
12.12
13.18
13.27
11.81
8.92
5.22
1.52
-1.52
-3.56
-4.81
-5.85
-7.29
-9.39
-11.86
-13.98
-14.96
-14.27
-11.95
-8.45
-4.50
-0.77
2.33
4.66
6.29
7.40
8.13
8.59
8.87
9.11
9.60
10.65
12.55
15.38
18.91
22.70
26.20
28.97
30.90
32.25
33.52
35.23
37.61
40.38
42.90
44.36
44.24
42.50
39.59
36.20
32.98
30.24
28.01
26.19
24.73
23.72
23.26
23.34
23.79
24.34
24.83
25.37
26.29
28.01
30.93
35.37
41.47
49.06
57.74
66.73
75.16
82.26
87.79
92.01
95.48
98.57
101.06
102.25
101.27
97.70
91.90
84.83
77.64
71.24
66.10
62.49
60.68
60.99
63.49
67.36
70.74
70.90
65.01
51.00
28.20
-2.44
-38.74
-77.76
-116.38
-151.84
-181.87
-204.79
-219.43
-225.18
-222.07
-210.99
-193.84
-173.38
-152.83
-134.93
-121.28
-111.89
-105.57
-100.71
-96.09
-91.33
-86.63
-82.30
-78.24
-73.91
-68.65
-62.15
-54.74
-47.28
-40.79
-35.96
-32.87
-30.90
-29.13
-26.64
-22.99
-18.33
-13.33
-8.84
-5.42
-3.15
-1.66
-0.43
0.90
2.26
3.32
3.70
3.21
1.93
0.07
-2.20
-4.69
-7.20
-9.36
-10.70
-10.77
-9.41
-6.83
-3.56
-0.22
2.69
4.92
6.33
6.88
6.49
5.13
2.96
0.38
-2.10
-3.98
-5.02
-5.30
-5.19
-5.05
-5.13
-5.41
-5.69
-5.79
-5.69
-5.61
-5.95
-7.09
-9.18
-12.04
-15.18
-18.00
-20.04
-21.16
-21.59
-21.89
-22.63
-24.26
-26.87
-30.17
-33.66
-36.72
-38.83
-39.69
-39.28
-37.85
-35.82
-33.73
-32.03
-30.88
-30.15
-29.49
-28.46
-26.85
-24.73
-22.38
-20.06
-17.86
-15.56
-12.79
-9.15
-4.40
1.40
7.93
14.61
20.66
25.32
28.03
28.65
27.53
25.38
22.94
20.58
18.25
15.67
12.77
9.92
7.91
7.48
8.88
11.63
14.64
16.74
17.07
15.55
12.80
9.85
7.62
6.43
5.80
4.66
1.70
-3.94
-12.38
-22.85
-34.01
-44.42
-52.96
-59.17
-63.22
-65.83
-68.01
-70.48
-72.94
-73.40
-68.45
-54.40
-29.18
6.05
46.59
85.54
116.46
135.89
144.60
146.88
148.17
152.40
160.32
169.60
176.28
176.92
170.08
156.78
139.80
122.45
107.48
96.42
89.64
86.72
86.95
89.44
92.94
95.81
96.11
92.13
82.91
68.71
50.96
31.82
13.65
-1.71
-13.35
-21.46
-27.15
-32.10
-37.90
-45.59
-55.12
-65.40
-74.72
-81.49
-84.99
-85.60
-84.78
-84.38
-86.03
-90.40
-96.86
-103.70
-108.62
-109.61
-105.48
-96.11
-82.17
-64.93
-46.12
-27.76
-12.06
-0.72
5.56
7.54
6.96
5.40
3.30
-0.39
-7.29
-17.92
-30.53
-41.38
-46.36
-43.28
-33.01
-19.09
-5.98
2.97
6.43
4.72
-1.31
-11.31
-25.55
-44.19
-66.30
-89.37
-109.76
-123.88
-129.34
-125.85
-115.35
-101.41
-88.32
-79.83
-78.32
-83.94
-94.43
-105.65
-112.72
-111.55
-100.04
-78.76
-50.45
-19.00
11.98
39.94
63.67
82.88
97.61
107.98
114.12
116.58
116.43
115.09
113.90
113.61
114.13
114.64
114.11
111.73
107.24
100.94
93.44
85.43
77.51
70.14
63.63
58.15
53.62
49.70
45.93
41.85
37.13
31.69
25.72
19.55
13.72
8.79
5.23
3.34
3.03
3.94
5.39
6.59
6.87
5.83
3.45
0.03
-3.81
-7.33
-9.75
-10.44
-9.14
-6.10
-2.11
1.82
4.74
6.14
6.05
4.96
3.48
1.99
0.48
-1.44
-4.15
-7.88
-12.40
-17.26
-21.90
-25.83
-28.79
-30.63
-31.38
-31.14
-30.05
-28.42
-26.61
-25.00
-23.76
-22.83
-21.88
-20.49
-18.27
-15.00
-10.73
-5.66
-0.17
5.37
10.55
15.05
18.57
20.97
22.26
22.63
22.42
21.97
21.58
21.42
21.50
21.80
22.24
22.82
23.50
24.31
25.23
26.20
27.13
27.85
28.20
28.01
27.23
25.87
24.06
22.04
19.98
18.00
16.09
14.14
11.95
9.33
6.13
2.45
-1.41
-4.97
-7.64
-9.04
-9.03
-7.90
-6.13
-4.25
-2.63
-1.38
-0.43
0.37
1.06
1.57
1.74
1.49
0.87
0.15
-0.39
-0.50
-0.14
0.48
0.99
1.08
0.72
0.08
-0.47
-0.58
-0.16
0.64
1.48
2.07
2.31
2.31
2.29
2.35
2.42
2.20
1.35
-0.31
-2.65
-5.27
-7.58
-9.02
-9.26
-8.26
-6.25
-3.61
-0.78
1.85
4.00
5.51
6.36
6.63
6.48
6.04
5.50
4.99
4.66
4.60
4.76
5.00
5.02
4.55
3.43
1.69
-0.38
-2.46
-4.31
-5.87
-7.24
-8.62
-10.11
-11.64
-13.01
-13.96
-14.28
-13.90
-12.95
-11.73
-10.73
-10.44
-11.23
-13.17
-15.93
-18.78
-20.78
-21.17
-19.57
-16.18
-11.68
-6.85
-2.41
1.35
4.37
6.78
8.68
10.09
11.01
11.57
12.05
12.85
14.32
16.63
19.71
23.33
27.26
31.35
35.44
39.37
42.76
45.11
45.85
44.62
41.34
36.36
30.32
24.01
18.07
12.96
8.84
5.63
3.10
0.94
-1.18
-3.58
-6.54
-10.23
-14.60
-19.33
-23.80
-27.19
-28.72
-27.89
-24.67
-19.48
-13.02
-6.10
0.65
6.82
12.27
17.00
21.06
24.50
27.21
29.03
29.76
29.11
26.86
22.83
16.85
8.80
-1.27
-13.02
-25.65
-37.99
-48.71
-56.74
-61.64
-63.71
-63.81
-62.93
-61.83
-60.78
-59.63
-58.22
-56.50
-54.67
-52.96
-51.40
-49.81
-47.84
-45.29
-42.26
-39.26
-36.90
-35.66
-35.71
-36.84
-38.67
-40.74
-42.75
-44.45
-45.70
-46.40
-46.46
-45.82
-44.38
-42.07
-38.90
-34.97
-30.53
-25.92
-21.40
-17.16
-13.32
-9.95
-7.20
-5.22
-4.01
-3.31
-2.62
-1.41
0.61
3.34
6.36
9.16
11.40
13.02
14.07
14.55
14.13
12.34
8.70
3.09
-4.05
-11.62
-18.19
-22.40
-23.25
-20.45
-14.36
-5.88
3.87
13.81
23.02
30.90
37.07
41.43
44.00
44.91
44.30
42.41
39.58
36.28
33.05
30.24
28.01
26.19
24.53
22.85
21.09
19.30
17.39
15.13
12.15
8.30
3.81
-0.61
-4.04
-5.80
-5.76
-4.50
-3.04
-2.47
-3.53
-6.47
-11.11
-17.00
-23.62
-30.38
-36.63
-41.55
-44.29
-44.29
-41.60
-36.98
-31.80
-27.62
-25.68
-26.64
-30.40
-36.28
-43.19
-49.80
-54.85
-57.28
-56.59
-52.71
-45.92
-36.65
-25.33
-12.42
1.35
14.79
26.36
34.53
38.33
37.70
33.52
27.20
20.17
13.58
8.12
4.03
1.11
-1.30
-4.08
-8.03
-13.21
-18.59
-22.14
-21.56
-15.21
-3.00
13.61
32.02
49.63
64.56
76.01
84.07
89.20
91.77
91.77
88.83
82.62
73.12
61.01
47.73
35.20
25.23
18.91
16.27
16.29
17.48
18.54
18.80
18.20
17.01
15.36
13.02
9.52
4.51
-1.88
-9.05
-16.10
-22.36
-27.65
-32.43
-37.46
-43.35
-50.23
-57.71
-65.15
-72.01
-78.03
-83.14
-87.26
-90.07
-91.01
-89.62
-85.76
-79.82
-72.61
-65.17
-58.56
-53.72
-51.39
-51.97
-55.32
-60.57
-66.24
-70.70
-72.79
-72.19
-69.60
-66.22
-63.21
-61.02
-59.07
-55.75
-48.75
-35.71
-15.06
13.21
47.13
82.96
116.12
142.64
160.40
169.75
172.97
172.77
170.77
166.81
159.36
146.99
129.99
110.89
93.89
83.08
80.70
86.22
96.84
108.79
118.85
125.14
127.05
124.56
117.53
105.63
88.59
66.89
42.08
16.63
-6.63
-25.26
-37.91
-44.65
-46.69
-45.96
-44.30
-42.93
-42.18
-41.67
-40.79
-39.19
-37.02
-34.87
-33.50
-33.41
-34.59
-36.47
-38.19
-38.97
-38.47
-36.97
-35.12
-33.65
-32.99
-32.98
-33.05
-32.50
-30.91
-28.26
-24.93
-21.37
-17.88
-14.46
-11.00
-7.41
-3.86
-0.71
1.70
3.20
3.91
4.08
3.93
3.39
2.25
0.27
-2.54
-5.86
-9.05
-11.35
-12.12
-11.01
-8.05
-3.63
1.59
6.94
11.97
16.61
21.16
26.05
31.65
37.94
44.59
50.99
56.49
60.45
62.35
61.78
58.55
52.76
44.86
35.48
25.26
14.57
3.56
-7.74
-19.14
-30.21
-40.39
-49.23
-56.57
-62.58
-67.45
-71.20
-73.62
-74.38
-73.37
-70.84
-67.35
-63.48
-59.53
-55.42
-50.83
-45.55
-39.68
-33.69
-28.16
-23.55
-19.95
-17.13
-14.74
-12.50
-10.26
-8.00
-5.66
-3.01
0.27
4.41
9.41
14.97
20.54
25.58
29.80
33.21
36.14
39.06
42.41
46.40
50.95
55.62
59.71
62.41
63.12
61.61
58.15
53.31
47.76
41.93
35.93
29.69
23.14
16.48
10.05
4.25
-0.66
-4.63
-7.74
-10.18
-12.20
-14.12
-16.23
-18.70
-21.31
-23.51
-24.50
-23.61
-20.63
-15.96
-10.34
-4.45
1.53
8.09
16.18
26.71
40.09
55.96
73.29
90.64
106.54
119.64
128.82
133.10
131.74
124.47
111.68
94.49
74.61
53.88
33.87
15.65
-0.13
-13.08
-22.93
-29.69
-33.78
-36.11
-37.92
-40.32
-43.91
-48.62
-53.90
-58.97
-63.04
-65.46
-65.65
-63.13
-57.78
-49.98
-40.82
-31.85
-24.70
-20.56
-19.86
-22.22
-26.75
-32.32
-37.87
-42.58
-45.88
-47.42
-47.07
-44.84
-40.95
-35.84
-30.18
-24.75
-20.27
-17.11
-15.09
-13.63
-11.92
-9.48
-6.46
-3.69
-2.28
-3.13
-6.46
-11.64
-17.52
-22.79
-26.43
-27.98
-27.81
-27.23
-28.51
-34.35
-46.96
-66.97
-92.69
-120.28
-144.78
-161.68
-168.35
-164.65
-152.70
-135.84
-117.42
-99.86
-84.25
-70.51
-57.83
-45.26
-31.99
-17.52
-1.59
15.88
34.84
54.82
74.92
93.87
110.46
124.19
135.37
144.88
153.52
161.47
168.11
172.49
173.96
172.51
168.67
162.84
154.67
142.99
126.46
104.45
77.83
48.83
20.33
-5.06
-25.65
-40.71
-50.14
-54.32
-54.40
-52.76
-52.88
-58.60
-72.20
-92.85
-116.03
-134.85
-142.65
-135.59
-114.03
-82.03
-45.64
-10.74
18.39
39.48
52.01
56.53
54.34
47.11
36.78
25.19
13.77
3.30
-6.05
-14.51
-22.50
-30.29
-37.79
-44.35
-48.65
-48.77
-42.66
-28.95
-7.51
20.08
50.81
80.93
106.76
125.52
135.82
137.81
132.98
123.75
112.74
102.22
93.45
86.49
80.51
74.27
66.89
58.28
49.33
41.60
36.89
36.62
41.31
50.19
61.03
70.59
75.49
73.37
63.83
48.78
31.88
17.17
7.69
4.39
5.96
9.48
11.64
9.93
3.48
-6.65
-18.01
-27.48
-32.40
-31.27
-24.21
-12.81
0.49
12.98
22.34
26.90
25.83
19.25
8.17
-5.72
-20.56
-34.88
-48.05
-60.31
-72.32
-84.42
-96.02
-105.50
-110.63
-109.68
-102.21
-89.61
-74.73
-60.99
-51.22
-46.74
-47.14
-50.55
-54.62
-57.31
-57.48
-54.99
-50.28
-44.02
-36.84
-29.41
-22.49
-16.97
-13.61
-12.73
-13.93
-16.20
-18.41
-19.69
-19.89
-19.46
-19.01
-18.88
-18.82
-18.15
-15.95
-11.69
-5.25
2.97
12.39
22.47
32.82
43.23
53.41
63.03
71.64
78.91
84.77
89.52
93.68
97.74
101.91
105.96
109.34
111.41
111.73
110.21
107.09
102.87
98.05
93.17
88.58
84.57
81.26
78.63
76.58
74.91
73.40
71.74
69.56
66.40
61.84
55.69
48.03
39.30
30.10
20.93
11.95
2.91
-6.70
-17.29
-28.74
-40.29
-50.67
-58.68
-63.65
-65.73
-65.73
-64.75
-63.68
-63.02
-62.90
-63.32
-64.36
-66.25
-69.16
-73.11
-77.72
-82.35
-86.21
-88.68
-89.47
-88.78
-87.18
-85.33
-83.81
-82.72
-81.79
-80.44
-78.14
-74.62
-69.91
-64.32
-58.25
-52.12
-46.26
-41.00
-36.55
-33.03
-30.39
-28.41
-26.85
-25.50
-24.31
-23.31
-22.60
-22.22
-22.13
-22.29
-22.60
-23.09
-23.74
-24.50
-25.26
-25.84
-26.12
-26.00
-25.45
-24.43
-22.95
-21.04
-18.93
-17.03
-15.90
-16.06
-17.73
-20.62
-23.99
-26.91
-28.57
-28.61
-27.20
-24.96
-22.54
-20.42
-18.80
-17.70
-17.18
-17.42
-18.64
-20.82
-23.58
-26.16
-27.71
-27.58
-25.63
-22.17
-17.80
-13.12
-8.67
-4.95
-2.48
-1.84
-3.45
-7.43
-13.30
-20.21
-27.15
-33.38
-38.61
-43.06
-47.21
-51.51
-56.17
-61.00
-65.39
-68.28
-68.36
-64.28
-55.15
-41.00
-23.02
-3.43
15.07
30.12
40.37
45.81
47.50
46.99
45.70
44.60
44.04
43.95
44.01
43.89
43.27
41.90
39.80
37.15
34.33
31.81
29.98
28.97
28.61
28.49
28.16
27.27
25.67
23.43
20.67
17.58
14.39
11.31
8.67
6.83
6.18
6.91
8.97
11.93
15.04
17.41
18.24
17.31
14.95
12.04
9.45
7.73
6.83
6.29
5.75
5.24
5.35
6.87
10.24
15.21
20.78
25.63
28.76
29.90
29.42
28.06
26.28
24.00
20.61
15.37
7.93
-1.39
-11.60
-21.39
-29.53
-35.12
-37.63
-36.81
-32.69
-25.67
-16.62
-6.83
2.17
9.10
13.23
14.59
13.79
11.69
9.10
6.54
4.24
2.20
0.31
-1.56
-3.43
-5.18
-6.49
-6.96
-6.27
-4.37
-1.55
1.58
4.40
6.57
8.07
9.04
9.49
9.01
6.86
2.37
-4.60
-13.41
-22.83
-31.44
-38.19
-42.65
-44.88
-45.11
-43.40
-39.67
-33.88
-26.39
-18.13
-10.45
-4.72
-1.70
-1.21
-1.95
-1.92
0.89
7.57
17.82
30.00
41.74
50.92
56.41
58.30
57.44
54.79
50.92
45.99
40.09
33.61
27.39
22.40
19.31
18.09
18.04
18.11
17.41
15.56
12.78
9.69
7.00
5.27
4.75
5.46
7.35
10.41
14.79
20.79
28.63
38.06
48.23
57.75
65.13
69.31
70.04
67.96
64.16
59.72
55.22
50.85
46.66
42.91
40.20
39.19
40.20
42.80
45.74
47.35
46.09
41.28
33.31
23.61
14.22
7.07
3.49
3.78
7.22
12.27
17.02
19.75
19.34
15.54
8.92
0.74
-7.28
-13.25
-15.54
-13.20
-6.40
3.44
13.89
22.26
26.41
25.59
20.44
12.77
4.86
-1.26
-4.11
-2.91
2.43
11.26
22.33
33.89
44.06
51.11
53.65
50.79
42.34
28.96
12.37
-4.93
-20.27
-31.61
-38.35
-41.37
-42.50
-43.58
-45.63
-48.59
-51.78
-54.55
-56.72
-58.62
-60.75
-63.46
-66.76
-70.44
-74.24
-78.27
-83.02
-89.19
-97.14
-106.41
-115.46
-122.10
-124.48
-122.05
-115.99
-108.64
-102.17
-97.30
-92.71
-85.70
-73.75
-55.87
-33.25
-8.63
14.92
35.15
51.14
63.15
72.14
79.16
85.07
90.33
95.11
99.27
102.64
105.14
107.00
108.72
110.74
113.17
115.71
117.68
118.38
117.39
114.67
110.40
104.76
97.74
89.22
79.22
68.00
56.14
44.38
33.39
23.61
15.26
8.43
3.16
-0.61
-3.09
-4.70
-5.97
-7.34
-8.94
-10.52
-11.67
-12.13
-12.03
-11.91
-12.48
-14.33
-17.58
-21.89
-26.52
-30.71
-33.87
-35.71
-36.22
-35.58
-33.99
-31.67
-28.84
-25.74
-22.66
-19.82
-17.29
-14.99
-12.75
-10.46
-8.13
-6.02
-4.44
-3.69
-3.82
-4.68
-5.94
-7.19
-8.12
-8.54
-8.40
-7.68
-6.37
-4.46
-1.87
1.40
5.29
9.54
13.76
17.48
20.35
22.18
23.05
23.21
22.82
21.91
20.28
17.71
14.17
10.00
5.93
2.82
1.34
1.67
3.42
5.75
7.82
9.04
9.27
8.76
7.95
7.19
6.64
6.23
5.82
5.40
5.08
5.07
5.53
6.38
7.38
8.09
8.14
7.31
5.62
3.30
0.75
-1.60
-3.40
-4.49
-4.97
-5.07
-5.18
-5.63
-6.59
-8.09
-9.97
-11.98
-13.76
-14.99
-15.35
-14.61
-12.75
-9.91
-6.45
-2.80
0.59
3.42
5.49
6.80
7.48
7.79
7.99
8.32
8.85
9.53
10.22
10.73
10.85
10.26
8.54
5.30
0.33
-6.11
-13.34
-20.37
-26.33
-30.83
-34.03
-36.49
-38.74
-40.97
-42.95
-44.21
-44.46
-43.76
-42.62
-41.64
-41.28
-41.52
-41.83
-41.43
-39.62
-36.06
-30.93
-24.73
-17.93
-10.79
-3.21
4.89
13.46
22.07
30.11
37.03
42.52
46.53
49.10
50.15
49.44
46.66
41.67
34.64
26.12
16.94
8.07
0.45
-5.21
-8.66
-10.29
-11.13
-12.53
-15.74
-21.46
-29.78
-40.28
-52.20
-64.57
-76.24
-85.96
-92.65
-95.72
-95.31
-92.28
-87.85
-83.12
-78.65
-74.43
-70.15
-65.54
-60.66
-56.01
-52.30
-50.21
-50.03
-51.27
-52.61
-51.97
-47.22
-36.92
-20.96
-0.66
21.70
43.80
63.93
81.38
96.07
108.22
117.78
124.45
127.89
128.01
125.21
120.31
114.25
107.79
101.33
94.87
88.18
81.00
73.23
64.97
56.53
48.24
40.37
33.02
26.11
19.47
12.86
6.02
-1.28
-9.09
-17.17
-24.93
-31.49
-35.96
-37.84
-37.12
-34.38
-30.51
-26.38
-22.58
-19.32
-16.59
-14.31
-12.51
-11.20
-10.35
-9.74
-8.98
-7.64
-5.34
-2.00
2.14
6.52
10.50
13.52
15.30
15.86
15.48
14.47
13.01
11.19
9.00
6.52
3.94
1.59
-0.18
-1.12
-1.19
-0.62
0.20
0.71
0.36
-1.28
-4.40
-8.89
-14.36
-20.14
-25.41
-29.34
-31.32
-31.11
-28.97
-25.57
-21.75
-18.23
-15.36
-13.02
-10.84
-8.48
-5.88
-3.27
-1.13
0.16
0.40
-0.29
-1.66
-3.40
-5.30
-7.24
-9.12
-10.82
-12.13
-12.87
-12.90
-12.27
-11.18
-9.95
-8.88
-8.21
-7.97
-8.05
-8.26
-8.46
-8.65
-8.91
-9.40
-10.20
-11.34
-12.76
-14.39
-16.16
-18.09
-20.22
-22.55
-25.01
-27.43
-29.51
-30.93
-31.39
-30.72
-28.91
-26.14
-22.71
-18.95
-15.17
-11.62
-8.48
-5.92
-4.03
-2.83
-2.22
-1.99
-1.88
-1.72
-1.37
-0.79
0.03
1.07
2.32
3.70
5.17
6.63
8.13
9.75
11.64
13.86
16.34
18.82
20.91
22.16
22.26
21.08
18.76
15.67
12.38
9.45
7.29
5.98
5.32
4.83
4.04
2.59
0.45
-2.07
-4.49
-6.27
-6.98
-6.42
-4.60
-1.73
1.91
6.04
10.50
15.17
20.06
25.26
30.82
36.61
42.23
46.91
49.59
49.31
45.50
38.38
28.96
18.69
8.95
0.50
-6.73
-13.57
-21.01
-29.72
-39.64
-50.05
-59.81
-67.82
-73.38
-76.40
-77.31
-76.82
-75.65
-74.24
-72.64
-70.64
-67.77
