1515715926.00
64.000000
-0.00
-0.00
-0.00
-0.00
-0.00
-0.00
-0.00
-0.00
-0.00
-0.00
0.00
0.01
0.01
-0.00
-0.03
-0.05
-0.05
0.00
0.13
0.36
0.66
1.01
1.37
1.72
2.06
2.40
2.79
3.24
3.80
4.42
5.06
5.66
6.20
6.68
7.15
7.68
8.31
9.14
10.09
11.04
11.88
12.56
13.14
13.76
14.65
15.96
17.91
20.32
22.90
25.38
27.58
29.57
31.67
34.31
37.81
42.54
48.16
54.14
59.88
65.00
69.56
74.03
79.13
85.39
93.38
102.59
112.22
121.35
129.37
136.28
142.70
149.99
156.87
165.65
176.95
190.85
206.09
219.68
227.23
224.10
206.95
175.01
130.75
78.05
21.22
-36.67
-94.21
-151.29
-208.03
-264.01
-318.15
-368.73
-414.73
-455.54
-490.87
-520.22
-542.49
-555.91
-558.44
-548.47
-525.31
-489.93
-444.65
-392.68
-337.34
-281.39
-226.53
-173.52
-122.55
-73.76
-27.79
14.20
50.83
81.01
104.27
120.86
131.51
137.28
139.59
140.23
141.36
144.93
151.87
161.49
171.46
178.78
181.17
178.21
171.55
164.04
158.21
155.05
153.70
152.21
148.76
142.60
134.23
124.86
115.57
106.78
98.16
89.10
79.30
69.20
59.71
51.88
45.92
41.24
36.73
31.32
24.63
17.12
9.92
4.21
0.71
-0.59
-0.35
0.43
0.71
-0.33
-3.22
-8.09
-14.54
-21.60
-27.78
-31.42
-31.20
-26.75
-18.82
-9.07
0.55
8.52
14.19
17.73
19.83
21.17
22.17
22.98
23.58
23.87
23.69
22.69
20.48
16.75
11.56
5.40
-0.97
-6.73
-11.25
-14.18
-15.40
-14.86
-12.65
-9.17
-5.11
-1.48
0.86
1.43
0.41
-1.50
-3.43
-4.69
-5.08
-4.80
-4.31
-3.99
-4.02
-4.27
-4.49
-4.48
-4.20
-3.87
-3.70
-3.83
-4.09
-4.13
-3.64
-2.58
-1.24
-0.07
0.62
0.94
1.27
2.06
3.46
5.16
6.63
7.44
7.55
7.32
7.21
7.47
7.95
8.23
7.89
6.79
5.07
3.01
0.84
-1.42
-3.90
-6.70
-9.71
-12.61
-14.98
-16.51
-17.03
-16.56
-15.24
-13.29
-11.00
-8.67
-6.66
-5.18
-4.31
-3.86
-3.50
-2.94
-2.03
-0.90
0.16
0.83
1.03
0.92
0.82
1.02
1.59
2.37
3.08
3.43
3.31
2.82
2.19
1.64
1.27
1.03
0.84
0.67
0.61
0.80
1.25
1.81
2.20
2.15
1.64
0.97
0.66
1.18
2.74
5.20
8.08
10.80
12.93
14.40
15.51
16.76
18.46
20.48
22.18
22.65
21.06
17.11
11.06
3.42
-4.85
-12.92
-20.31
-26.88
-32.53
-37.09
-40.33
-42.22
-42.98
-42.98
-42.62
-41.97
-40.78
-38.61
-35.03
-29.97
-23.61
-16.29
-8.22
0.54
10.16
20.85
32.67
45.33
57.99
69.44
78.36
83.87
85.77
84.77
82.16
79.30
77.09
75.56
73.96
71.02
65.36
55.89
42.20
24.71
4.73
-15.85
-35.03
-51.19
-63.42
-71.50
-75.63
-76.15
-73.42
-67.92
-60.44
-52.12
-44.20
-37.63
-32.73
-29.16
-26.24
-23.45
-20.61
-17.88
-15.55
-13.79
-12.59
-11.84
-11.50
-11.56
-12.00
-12.68
-13.37
-13.92
-14.39
-15.06
-16.26
-18.07
-20.13
-21.73
-22.14
-20.99
-18.49
-15.44
-12.86
-11.68
-12.47
-15.31
-19.84
-25.40
-31.12
-36.11
-39.62
-41.15
-40.55
-38.02
-34.01
-29.10
-23.88
-18.84
-14.32
-10.48
-7.35
-4.88
-2.99
-1.65
-0.86
-0.62
-0.82
-1.25
-1.63
-1.74
-1.51
-1.09
-0.76
-0.81
-1.38
-2.33
-3.33
-3.98
-4.04
-3.50
-2.63
-1.74
-1.09
-0.68
-0.30
0.38
1.70
3.85
6.91
10.79
15.29
20.11
24.88
29.16
32.58
34.90
36.08
36.28
35.79
34.96
34.12
33.49
33.15
33.02
32.92
32.67
32.20
31.59
31.01
30.61
30.32
29.91
29.06
27.57
25.47
23.05
20.63
18.41
16.30
14.05
11.49
8.73
6.21
4.49
4.00
4.70
6.09
7.26
7.25
5.33
1.28
-4.54
-11.25
-17.72
-22.93
-26.22
-27.40
-26.71
-24.56
-21.38
-17.59
-13.65
-10.19
-7.77
-6.65
-6.47
-6.38
-5.48
-3.38
-0.54
1.92
2.83
1.68
-1.07
-4.21
-6.48
-7.14
-6.25
-4.50
-2.67
-1.25
-0.25
0.60
1.64
3.05
4.86
7.00
9.39
11.99
14.75
17.53
20.10
22.11
23.23
23.22
22.04
19.84
16.88
13.47
9.91
6.43
3.20
0.33
-2.15
-4.25
-5.95
-7.21
-7.94
-8.07
-7.61
-6.70
-5.55
-4.41
-3.42
-2.57
-1.73
-0.75
0.46
1.82
3.13
4.10
4.46
4.08
2.93
1.19
-0.90
-3.07
-5.09
-6.80
-8.17
-9.20
-9.94
-10.50
-11.05
-11.81
-13.05
-14.92
-17.41
-20.25
-23.01
-25.23
-26.66
-27.34
-27.57
-27.80
-28.38
-29.43
-30.71
-31.61
-31.13
-28.13
-21.65
-11.28
2.52
18.51
34.93
50.00
62.41
71.48
77.18
79.97
80.57
79.77
78.16
75.94
72.86
68.53
62.78
56.09
49.53
44.31
41.13
39.73
39.04
37.75
35.16
31.38
27.19
23.36
20.08
16.91
13.07
8.06
2.00
-4.41
-10.26
-14.79
-17.75
-19.33
-19.97
-20.20
-20.36
-20.65
-21.06
-21.50
-21.83
-21.97
-21.94
-21.86
-21.95
-22.34
-23.00
-23.68
-24.07
-23.94
-23.35
-22.64
-22.23
-22.48
-23.51
-25.16
-27.17
-29.33
-31.57
-33.90
-36.33
-38.74
-40.85
-42.28
-42.74
-42.10
-40.45
-38.00
-34.93
-31.23
-26.67
-20.83
-13.46
-4.59
5.23
15.19
24.41
32.28
38.52
43.16
46.29
47.91
47.99
46.50
43.62
39.71
35.18
30.24
24.83
18.76
12.07
5.47
0.29
-1.94
-0.25
5.15
12.75
20.28
25.63
27.65
26.37
22.65
17.54
11.67
5.13
-2.27
-10.61
-19.51
-28.20
-35.76
-41.39
-44.77
-46.01
-45.64
-44.45
-43.16
-42.28
-41.93
-41.76
-41.16
-39.46
-36.25
-31.63
-26.18
-20.85
-16.62
-14.15
-13.50
-14.08
-14.91
-14.84
-12.99
-8.85
-2.39
6.05
15.82
26.02
35.50
42.93
46.84
45.93
39.37
27.24
10.70
-7.99
-25.95
-40.36
-49.19
-51.72
-48.59
-41.52
-32.62
-23.87
-16.72
-11.94
-9.80
-10.12
-12.43
-16.01
-19.95
-23.33
-25.43
-25.93
-25.01
-23.18
-21.13
-19.45
-18.49
-18.35
-18.91
-19.99
-21.34
-22.75
-24.08
-25.22
-26.16
-26.88
-27.30
-27.20
-26.31
-24.43
-21.60
-18.16
-14.60
-11.40
-8.73
-6.38
-3.88
-0.74
3.26
7.95
12.77
17.15
20.72
23.54
26.01
28.63
31.66
34.84
37.47
38.71
38.03
35.57
32.25
29.41
28.21
29.08
31.50
34.11
35.39
34.15
29.81
22.46
12.73
1.90
-7.88
-13.69
-12.55
-2.66
15.41
38.28
60.68
77.27
84.71
82.61
73.08
59.26
43.67
27.54
11.22
-4.91
-19.70
-31.40
-38.47
-40.47
-38.41
-34.24
-30.00
-26.88
-24.88
-23.19
-20.85
-17.46
-13.36
-9.47
-6.75
-5.74
-6.31
-7.82
-9.44
-10.60
-11.11
-11.19
-11.24
-11.52
-12.04
-12.52
-12.56
-11.84
-10.27
-7.99
-5.27
-2.37
0.56
3.38
6.02
8.33
10.18
11.47
12.15
12.30
12.01
11.43
10.71
9.98
9.35
8.79
8.16
7.22
5.75
3.68
1.20
-1.29
-3.32
-4.55
-4.91
-4.63
-4.16
-4.05
-4.74
-6.49
-9.29
-12.86
-16.62
-19.80
-21.52
-21.03
-17.99
-12.71
-6.18
0.25
5.34
8.47
9.84
10.32
10.88
12.11
13.93
15.74
16.79
16.65
15.40
13.48
11.43
9.64
8.22
7.06
5.99
4.88
3.70
2.45
1.20
-0.05
-1.30
-2.65
-4.17
-5.85
-7.56
-8.98
-9.77
-9.67
-8.71
-7.25
-5.90
-5.23
-5.58
-6.81
-8.40
-9.65
-10.01
-9.34
-7.96
-6.47
-5.46
-5.26
-5.84
-6.94
-8.29
-9.73
-11.35
-13.28
-15.54
-17.88
-19.71
-20.31
-19.07
-15.66
-10.04
-2.44
6.86
17.51
29.00
40.50
50.83
58.60
62.63
62.34
58.03
50.79
42.24
34.06
27.64
23.88
23.18
25.40
30.00
35.98
42.11
47.12
49.97
50.17
47.84
43.61
38.39
33.04
28.14
23.98
20.55
17.78
15.58
13.90
12.60
11.37
9.79
7.41
3.97
-0.43
-5.41
-10.47
-15.20
-19.46
-23.31
-26.84
-29.99
-32.48
-33.92
-34.03
-32.80
-30.58
-27.86
-25.16
-22.74
-20.58
-18.44
-15.98
-12.97
-9.37
-5.31
-1.14
2.67
5.57
7.09
6.94
5.10
1.95
-1.86
-5.52
-8.37
-10.02
-10.51
-10.15
-9.43
-8.85
-8.73
-9.25
-10.35
-11.91
-13.69
-15.52
-17.27
-18.93
-20.54
-22.11
-23.48
-24.38
-24.43
-23.36
-21.09
-17.80
-13.84
-9.60
-5.36
-1.27
2.59
6.15
9.30
11.91
13.88
15.23
16.05
16.49
16.66
16.59
16.26
15.63
14.72
13.61
12.46
11.45
10.70
10.32
10.28
10.50
10.80
11.00
10.91
10.43
9.55
8.34
6.91
5.35
3.69
1.88
-0.15
-2.43
-4.87
-7.25
-9.26
-10.62
-11.21
-11.10
-10.50
-9.67
-8.80
-7.95
-7.04
-6.00
-4.81
-3.61
-2.64
-2.13
-2.18
-2.69
-3.46
-4.26
-4.94
-5.48
-5.95
-6.40
-6.81
-7.14
-7.32
-7.34
-7.25
-7.12
-6.97
-6.84
-6.76
-6.81
-7.06
-7.51
-8.08
-8.59
-8.97
-9.31
-9.91
-11.18
-13.41
-16.63
-20.45
-24.12
-26.69
-27.17
-24.73
-18.88
-9.68
2.29
15.90
29.78
42.57
53.29
61.45
67.00
70.14
70.99
69.59
65.91
60.22
53.18
45.89
39.54
34.97
32.30
30.88
29.60
27.35
23.53
18.25
12.23
6.50
1.97
-0.81
-1.83
-1.56
-0.82
-0.46
-1.13
-3.00
-5.74
-8.74
-11.35
-13.26
-14.54
-15.52
-16.59
-17.88
-19.37
-20.92
-22.48
-24.07
-25.55
-26.45
-25.93
-23.18
-17.79
-10.20
-1.50
6.93
14.00
19.25
22.78
24.95
26.09
26.29
25.52
23.77
21.18
17.99
14.41
10.49
6.15
1.22
-4.38
-10.54
-16.89
-22.80
-27.53
-30.44
-31.25
-30.15
-27.77
-24.86
-22.04
-19.57
-17.39
-15.26
-12.99
-10.55
-8.05
-5.70
-3.70
-2.26
-1.60
-1.88
-3.14
-5.25
-7.90
-10.62
-12.86
-14.17
-14.15
-12.70
-9.97
-6.44
-2.79
0.23
2.14
2.85
2.68
2.24
2.01
2.20
2.63
2.87
2.57
1.68
0.54
-0.27
-0.17
1.13
3.60
6.86
10.48
14.07
17.35
20.20
22.51
24.15
24.96
24.74
23.38
20.74
16.79
11.60
5.42
-1.24
-7.66
-13.13
-17.23
-20.10
-22.41
-25.09
-28.87
-33.92
-39.81
-45.72
-50.85
-54.77
-57.48
-59.23
-60.20
-60.38
-59.62
-57.78
-54.95
-51.46
-47.72
-44.06
-40.61
-37.26
-33.86
-30.32
-26.71
-23.25
-20.22
-17.85
-16.23
-15.24
-14.56
-13.79
-12.58
-10.71
-8.18
-5.18
-2.06
0.84
3.27
5.08
6.31
7.07
7.57
7.97
8.38
8.79
9.11
9.19
8.92
8.28
7.32
6.17
4.94
3.71
2.49
1.27
0.01
-1.29
-2.65
-4.10
-5.67
-7.40
-9.23
-11.02
-12.49
-13.30
-13.16
-11.88
-9.49
-6.22
-2.50
1.23
4.57
7.34
9.53
11.25
12.59
13.57
14.10
14.12
13.63
12.80
11.87
11.05
10.34
9.60
8.61
7.21
5.49
3.72
2.29
1.51
1.49
2.12
3.13
4.20
5.04
5.42
5.18
4.21
2.50
0.26
-2.12
-4.08
-5.06
-4.69
-2.89
0.10
3.85
7.87
11.76
15.26
18.27
20.84
23.13
25.32
27.61
30.05
32.51
34.61
35.92
35.98
34.59
31.76
27.78
23.06
18.04
13.10
8.56
4.64
1.53
-0.67
-1.99
-2.63
-2.97
-3.47
-4.52
-6.30
-8.72
-11.42
-13.90
-15.67
-16.42
-16.03
-14.64
-12.54
-10.06
-7.50
-5.05
-2.77
-0.62
1.47
3.56
5.61
7.52
9.14
10.38
11.20
11.67
11.85
11.82
11.65
11.39
11.11
10.85
10.61
10.30
9.68
8.50
6.57
3.93
0.86
-2.17
-4.71
-6.49
-7.55
-8.19
-8.82
-9.79
-11.19
-12.86
-14.39
-15.34
-15.38
-14.43
-12.63
-10.24
-7.54
-4.70
-1.74
1.30
4.37
7.26
9.71
11.52
12.63
13.14
13.31
13.39
13.57
13.96
14.50
15.09
15.51
15.56
15.07
14.00
12.46
10.71
9.00
7.49
6.21
5.04
3.88
2.68
1.46
0.26
-0.93
-2.16
-3.57
-5.23
-7.11
-9.06
-10.87
-12.29
-13.13
-13.27
-12.66
-11.36
-9.51
-7.33
-5.06
-2.92
-1.06
0.51
1.83
3.03
4.18
5.28
6.25
6.97
7.34
7.31
6.91
6.20
5.33
4.43
3.66
3.13
2.93
3.01
3.25
3.45
3.41
3.01
2.27
1.34
0.44
-0.28
-0.74
-0.99
-1.19
-1.54
-2.22
-3.31
-4.82
-6.65
-8.60
-10.40
-11.78
-12.54
-12.58
-11.95
-10.81
-9.38
-7.88
-6.46
-5.14
-3.86
-2.51
-0.99
0.74
2.61
4.45
6.11
7.37
8.14
8.38
8.13
7.54
6.77
6.01
5.41
5.05
4.92
4.91
4.92
4.81
4.53
4.04
3.41
2.69
1.97
1.26
0.56
-0.22
-1.13
-2.23
-3.51
-4.90
-6.31
-7.60
-8.70
-9.53
-10.01
-10.08
-9.68
-8.78
-7.43
-5.76
-3.96
-2.23
-0.70
0.57
1.59
2.43
3.08
3.47
3.52
3.19
2.53
1.70
0.96
0.48
0.38
0.56
0.87
1.10
1.09
0.82
0.37
-0.13
-0.56
-0.87
-1.07
-1.22
-1.41
-1.75
-2.36
-3.34
-4.72
-6.36
-7.88
-8.70
-8.13
-5.67
-1.25
4.62
10.95
16.61
20.67
22.69
22.77
21.31
18.78
15.58
12.06
8.64
5.79
3.92
3.15
3.18
3.31
2.73
0.81
-2.65
-7.36
-12.68
-17.81
-22.06
-24.93
-26.31
-26.48
-25.99
-25.47
-25.33
-25.62
-26.02
-26.13
-25.64
-24.52
-22.88
-20.90
-18.62
-15.98
-12.85
-9.16
-4.94
-0.34
4.40
8.95
12.99
16.27
18.69
20.30
21.24
21.65
21.62
21.23
20.62
20.10
20.07
20.82
22.35
24.36
26.35
27.93
29.00
29.84
30.91
32.56
34.80
37.21
38.99
39.25
37.32
32.99
26.62
19.04
11.28
4.25
-1.38
-5.35
-7.66
-8.44
-7.84
-6.09
-3.54
-0.71
1.73
3.14
3.01
1.17
-2.33
-7.29
-13.42
-20.40
-27.75
-34.81
-40.80
-45.05
-47.27
-47.59
-46.39
-44.00
-40.51
-35.77
-29.73
-22.76
-15.81
-10.07
-6.49
-5.23
-5.54
-6.09
-5.64
-3.63
-0.40
3.02
5.57
6.58
6.04
4.45
2.42
0.37
-1.63
-3.73
-6.10
-8.75
-11.47
-14.00
-16.08
-17.54
-18.25
-18.14
-17.16
-15.37
-12.94
-10.12
-7.24
-4.55
-2.26
-0.48
0.75
1.38
1.41
0.86
-0.11
-1.30
-2.44
-3.32
-3.84
-4.07
-4.18
-4.39
-4.84
-5.53
-6.27
-6.82
-6.96
-6.59
-5.75
-4.59
-3.18
-1.52
0.55
3.21
6.53
10.39
14.42
18.15
21.18
23.33
24.67
25.41
25.72
25.60
24.95
23.61
21.66
19.40
17.26
15.51
14.09
12.57
10.47
7.57
4.15
0.86
-1.66
-3.15
-3.91
-4.64
-6.03
-8.39
-11.57
-15.05
-18.21
-20.52
-21.55
-20.97
-18.54
-14.19
-8.20
-1.20
5.87
12.10
16.82
19.74
20.94
20.77
19.68
18.16
16.62
15.34
14.36
13.42
12.00
9.50
5.49
0.00
-6.39
-12.70
-17.85
-21.06
-22.19
-21.73
-20.65
-19.95
-20.31
-21.86
-24.16
-26.53
-28.21
-28.70
-27.82
-25.69
-22.70
-19.28
-15.89
-12.82
-10.20
-7.94
-5.84
-3.66
-1.24
1.41
4.14
6.70
8.80
10.23
10.87
10.73
9.93
8.69
7.27
5.98
5.10
4.85
5.32
6.44
7.93
9.43
10.53
10.94
10.59
9.63
8.39
7.27
6.51
6.21
6.26
6.51
6.83
7.17
7.62
8.30
9.31
10.64
12.16
13.62
14.73
15.24
15.07
14.38
13.45
12.66
12.24
12.20
12.29
12.19
11.63
10.60
9.27
7.94
6.84
6.05
5.49
4.98
4.35
3.52
2.53
1.51
0.65
0.10
-0.08
0.07
0.44
0.93
1.48
2.09
2.78
3.54
4.34
5.05
5.61
6.01
6.30
6.59
6.89
7.13
7.18
6.91
6.29
5.43
4.51
3.72
3.18
2.87
2.68
2.45
2.04
1.41
0.57
-0.38
-1.38
-2.38
-3.31
-4.12
-4.70
-4.94
-4.77
-4.21
-3.35
-2.37
-1.38
-0.43
0.49
1.42
2.32
3.07
3.53
3.60
3.32
2.80
2.23
1.73
1.35
1.03
0.69
0.21
-0.48
-1.39
-2.48
-3.66
-4.79
-5.75
-6.48
-7.02
-7.52
-8.15
-9.04
-10.15
-11.30
-12.20
-12.58
-12.30
-11.37
-9.96
-8.30
-6.60
-4.95
-3.44
-2.09
-1.00
-0.23
0.18
0.28
0.19
0.09
0.09
0.20
0.39
0.55
0.60
0.47
0.16
-0.33
-0.94
-1.57
-2.09
-2.37
-2.33
-2.01
-1.57
-1.24
-1.24
-1.68
-2.48
-3.42
-4.16
-4.36
-3.83
-2.58
-0.87
0.91
2.36
3.23
3.52
3.40
3.16
3.03
3.17
3.60
4.23
4.93
5.58
6.08
6.34
6.34
6.10
5.68
5.23
4.88
4.76
4.87
5.09
5.22
5.06
4.51
3.62
2.57
1.55
0.70
0.04
-0.49
-0.94
-1.34
-1.68
-1.94
-2.14
-2.36
-2.64
-2.97
-3.28
-3.46
-3.43
-3.17
-2.77
-2.34
-2.01
-1.85
-1.88
-2.05
-2.29
-2.48
-2.56
-2.46
-2.18
-1.76
-1.30
-0.93
-0.85
-1.22
-2.14
-3.55
-5.21
-6.81
-8.04
-8.75
-8.92
-8.73
-8.44
-8.34
-8.69
-9.60
-11.00
-12.56
-13.72
-13.83
-12.34
-9.00
-3.97
2.20
8.70
14.67
19.38
22.37
23.49
22.87
20.84
17.88
14.48
11.11
8.14
5.80
4.16
3.11
2.43
1.84
1.13
0.26
-0.66
-1.37
-1.67
-1.55
-1.17
-0.84
-0.84
-1.25
-1.97
-2.71
-3.16
-3.12
-2.51
-1.45
-0.14
1.19
2.35
3.20
3.72
3.94
3.92
3.73
3.45
3.12
2.77
2.39
1.94
1.37
0.65
-0.15
-0.93
-1.48
-1.65
-1.40
-0.78
0.02
0.76
1.25
1.37
1.22
1.02
1.08
1.71
3.04
5.00
7.32
9.63
11.62
13.20
14.47
15.67
17.06
18.77
20.79
22.93
24.93
26.52
27.49
27.71
27.14
25.81
23.82
21.29
18.32
15.01
11.50
7.90
4.37
1.05
-1.98
-4.73
-7.24
-9.56
-11.71
-13.60
-15.11
-16.10
-16.53
-16.45
-16.08
-15.65
-15.45
-15.70
-16.44
-17.48
-18.44
-18.86
-18.33
-16.81
-14.65
-12.62
-11.66
-12.49
-15.43
-20.20
-26.03
-31.95
-37.01
-40.61
-42.49
-42.71
-41.45
-38.94
-35.36
-30.87
-25.64
-19.85
-13.56
-6.65
1.09
9.80
19.26
28.80
37.35
43.90
47.89
49.54
49.74
49.53
49.67
50.23
50.76
50.63
49.46
47.23
44.17
40.49
36.26
31.60
26.81
22.57
19.65
18.49
18.96
20.32
21.73
22.74
23.52
24.68
26.62
29.11
31.19
31.64
29.68
25.46
19.98
14.59
10.27
7.25
5.08
3.12
1.00
-1.19
-3.05
-4.25
-4.89
-5.38
-6.30
-7.93
-10.18
-12.54
-14.45
-15.53
-15.73
-15.28
-14.54
-13.84
-13.32
-12.97
-12.71
-12.39
-11.88
-11.16
-10.27
-9.30
-8.40
-7.70
-7.27
-7.17
-7.38
-7.87
-8.58
-9.46
-10.37
-11.19
-11.77
-12.01
-11.90
-11.48
-10.87
-10.17
-9.48
-8.85
-8.31
-7.89
-7.54
-7.24
-6.94
-6.63
-6.31
-6.01
-5.76
-5.57
-5.44
-5.36
-5.34
-5.36
-5.42
-5.47
-5.46
-5.36
-5.24
-5.27
-5.61
-6.37
-7.50
-8.82
-10.08
-11.06
-11.68
-11.98
-12.10
-12.20
-12.43
-12.84
-13.47
-14.25
-14.98
-15.33
-14.91
-13.47
-11.06
-8.15
-5.37
-3.33
-2.30
-2.14
-2.52
-3.14
-4.02
-5.46
-7.90
-11.53
-16.12
-20.96
-25.07
-27.52
-27.79
-25.95
-22.62
-18.81
-15.49
-13.30
-12.46
-12.83
-14.18
-16.30
-18.95
-21.80
-24.35
-26.27
-27.86
-30.37
-35.46
-44.08
-55.16
-65.21
-69.44
-63.97
-48.09
-25.00
-0.69
18.73
29.48
31.29
26.53
18.44
9.42
0.59
-7.69
-14.88
-19.94
-21.81
-20.23
-16.19
-11.55
-8.07
-6.68
-7.26
-9.09
-11.58
-14.53
-17.96
-21.57
-24.44
-25.13
-22.44
-16.09
-7.12
2.62
11.33
18.23
23.95
30.03
37.96
48.15
59.55
70.11
77.69
80.98
79.94
75.46
68.66
60.25
50.36
38.95
26.28
13.21
1.09
-8.79
-15.61
-19.39
-20.80
-20.90
-20.70
-20.88
-21.74
-23.19
-24.89
-26.32
-26.96
-26.30
-24.09
-20.43
-15.77
-10.98
-7.13
-5.25
-5.87
-8.81
-13.12
-17.38
-20.28
-21.15
-20.23
-18.40
-16.72
-15.86
-15.84
-16.14
-16.02
-14.85
-12.28
-8.13
-2.27
5.37
14.72
25.39
36.57
47.12
55.82
61.70
64.11
62.92
58.41
51.20
42.21
32.41
22.65
13.41
4.71
-3.84
-12.66
-21.88
-30.97
-38.88
-44.46
-46.96
-46.53
-44.23
-41.56
-39.91
-40.02
-41.90
-45.10
-49.04
-53.34
-57.82
-62.40
-66.96
-71.29
-75.06
-77.87
-79.21
-78.57
-75.58
-70.23
-62.96
-54.59
-46.02
-37.93
-30.72
-24.54
-19.53
-15.81
-13.19
-10.86
-7.47
-2.04
4.98
11.11
12.50
5.70
-10.44
-33.82
-59.77
-82.70
-98.04
-103.28
-98.02
-83.34
-61.34
-35.04
-8.33
14.39
29.34
34.84
32.30
26.12
22.35
26.55
41.81
67.70
100.36
133.89
162.31
181.59
190.69
191.47
187.50
182.41
178.53
176.33
174.80
172.28
167.31
159.18
148.13
135.31
122.51
111.75
104.51
100.92
99.32
96.30
87.62
69.58
40.45
1.33
-43.85
-89.22
-128.42
-156.10
-169.15
-167.23
-152.67
-129.62
-102.81
-76.35
-52.79
-32.99
-16.48
-2.42
9.73
19.96
27.89
33.29
36.26
37.32
36.99
35.67
33.49
30.57
27.19
23.78
20.65
17.58
13.72
7.83
-1.09
-13.18
-27.45
-42.04
-54.84
-64.25
-69.66
-71.41
-70.48
-67.95
-64.70
-61.15
-57.46
-53.61
-49.63
-45.63
-41.69
-37.82
-33.82
-29.34
-24.08
-17.96
-11.24
-4.50
1.56
6.44
9.99
12.37
13.97
15.14
16.09
16.92
17.69
18.56
19.80
21.71
24.41
27.83
31.63
35.34
38.47
40.67
41.70
41.47
39.92
37.05
32.93
27.78
22.00
16.04
10.33
5.07
0.25
-4.18
-8.18
-11.44
-13.43
-13.61
-11.67
-7.68
-2.02
4.73
12.03
19.32
25.95
31.04
33.54
32.60
27.94
20.33
11.43
3.44
-1.64
-2.67
0.34
6.32
13.57
20.30
25.09
27.12
26.25
22.93
18.00
12.46
7.20
2.87
-0.28
-2.26
-3.30
-3.65
-3.58
-3.42
-3.52
-4.24
-5.84
-8.31
-11.32
-14.31
-16.67
-17.96
-18.11
-17.40
-16.39
-15.57
-15.22
-15.23
-15.23
-14.82
-13.82
-12.43
-11.15
-10.51
-10.72
-11.57
-12.51
-12.98
-12.71
-11.84
-10.81
-9.97
-9.46
-9.11
-8.77
-8.54
-8.88
-10.52
-13.95
-19.12
-25.13
-30.57
-34.01
-34.61
-32.49
-28.66
-24.55
-21.34
-19.58
-19.12
-19.42
-19.99
-20.64
-21.51
-22.77
-24.35
-25.84
-26.60
-26.01
-23.71
-19.69
-14.24
-7.79
-0.80
6.28
13.01
18.90
23.49
26.37
27.35
26.55
24.35
21.39
18.25
15.37
12.90
10.79
9.01
7.61
6.84
6.97
8.21
10.48
13.52
16.97
20.48
23.90
27.10
29.95
32.13
33.21
32.75
30.54
26.75
21.92
16.83
12.23
8.71
6.60
5.98
6.78
8.83
11.82
15.32
18.92
22.22
25.03
27.32
29.15
30.54
31.37
31.46
30.65
28.91
26.26
22.71
18.14
12.40
5.48
-2.36
-10.47
-18.09
-24.54
-29.57
-33.33
-36.22
-38.56
-40.32
-41.17
-40.63
-38.40
-34.51
-29.39
-23.71
-18.20
-13.54
-10.17
-8.27
-7.67
-7.92
-8.38
-8.39
-7.43
-5.18
-1.59
3.24
8.97
15.06
20.77
25.37
28.36
29.66
29.62
28.74
27.36
25.51
22.94
19.43
15.05
10.19
5.38
1.03
-2.77
-6.14
-9.22
-12.00
-14.34
-16.16
-17.56
-18.83
-20.19
-21.62
-22.73
-22.97
-21.84
-19.14
-15.11
-10.27
-5.26
-0.61
3.16
5.57
6.04
4.07
-0.53
-7.28
-14.96
-21.87
-26.46
-27.90
-26.50
-23.47
-20.43
-18.54
-18.13
-18.54
-18.62
-17.33
-14.28
-9.83
-4.82
-0.17
3.50
6.01
7.45
7.92
7.40
5.85
3.40
0.58
-1.68
-2.33
-0.64
3.49
9.37
15.75
21.23
24.60
25.09
22.42
16.81
8.92
-0.20
-9.23
-16.77
-21.55
-22.74
-20.25
-14.78
-7.77
-1.00
3.85
5.66
4.06
-0.60
-7.49
-15.55
-23.76
-31.22
-37.14
-40.93
-42.25
-41.18
-38.23
-34.26
-30.18
-26.58
-23.52
-20.51
-16.92
-12.25
-6.55
-0.39
5.34
9.77
12.45
13.42
13.18
12.37
11.58
11.08
10.95
11.07
11.33
11.74
12.39
13.46
14.97
16.86
18.82
20.53
21.75
22.41
22.68
22.80
23.04
23.53
24.24
25.01
25.60
25.84
25.69
25.40
25.30
25.81
27.10
29.05
31.24
33.09
34.22
34.45
34.03
33.27
32.55
32.10
31.95
32.05
32.18
32.20
31.81
30.83
29.05
26.49
23.32
19.86
16.57
13.75
11.62
10.14
9.18
8.51
7.96
7.52
7.29
7.47
8.10
9.13
10.31
11.41
12.36
13.28
14.43
15.96
17.80
19.57
20.83
21.33
21.21
21.04
21.53
23.38
26.97
32.27
38.81
45.67
51.59
55.05
54.72
49.65
39.76
25.75
8.90
-9.34
-27.77
-45.57
-62.31
-77.71
-91.55
-103.54
-113.41
-120.88
-125.70
-127.61
-126.32
-121.69
-113.86
-103.44
-91.44
-79.11
-67.62
-57.67
-49.42
-42.53
-36.48
-30.79
-25.22
-19.76
-14.58
-9.91
-5.94
-2.89
-0.89
-0.03
-0.25
-1.34
-2.95
-4.72
-6.38
-7.85
-9.21
-10.61
-12.18
-13.93
-15.76
-17.51
-19.01
-20.16
-20.95
-21.50
-21.95
-22.41
-22.83
-23.02
-22.67
-21.51
-19.37
-16.31
-12.59
-8.51
-4.39
-0.42
3.29
6.69
9.70
12.18
14.02
15.15
15.67
15.82
15.86
16.01
16.31
16.66
16.87
16.79
16.36
15.59
14.59
13.40
12.07
10.64
9.16
7.71
6.34
5.04
3.71
2.20
0.34
-1.91
-4.52
-7.31
-10.07
-12.55
-14.53
-15.80
-16.15
-15.42
-13.56
-10.67
-6.93
-2.68
1.73
6.00
9.83
12.98
15.31
16.78
17.46
17.53
17.11
16.22
14.72
12.46
9.45
6.01
2.73
0.34
-0.53
0.47
3.27
7.40
12.08
16.33
19.23
20.23
19.39
17.46
15.64
15.06
16.16
18.45
20.69
21.53
20.35
17.61
14.73
13.38
14.63
18.46
23.90
29.53
34.28
37.73
39.98
41.14
40.97
38.85
34.17
26.87
17.65
7.85
-1.02
-7.84
-12.24
-14.52
-15.38
-15.54
-15.44
-15.18
-14.65
-13.74
-12.57
-11.55
-11.27
-12.34
-15.12
-19.56
-25.25
-31.58
-37.89
-43.68
-48.60
-52.45
-55.17
-56.73
-57.05
-56.01
-53.38
-49.00
-42.87
-35.29
-26.89
-18.43
-10.60
-3.71
2.27
7.65
12.73
17.62
22.17
26.09
29.08
31.06
32.16
32.61
32.69
32.53
32.18
31.64
30.89
29.98
28.97
27.91
26.77
25.52
24.12
22.57
20.94
19.29
17.66
16.02
14.32
12.50
10.55
8.48
6.28
3.94
1.43
-1.23
-3.91
-6.31
-8.03
-8.72
-8.18
-6.48
-3.87
-0.74
2.55
5.70
8.48
10.73
12.32
13.17
13.35
13.00
12.35
11.60
10.89
10.22
9.53
8.75
7.90
7.04
6.30
5.71
5.24
4.76
4.13
3.31
2.39
1.56
0.99
0.72
0.63
0.48
0.09
-0.63
-1.64
-2.85
-4.19
-5.64
-7.15
-8.54
-9.49
-9.60
-8.62
-6.57
-3.79
-0.80
1.92
4.08
5.68
6.91
8.01
9.08
10.05
10.72
10.87
10.42
9.47
8.28
7.16
6.36
5.92
5.76
5.66
5.43
4.98
4.32
3.52
2.64
1.70
0.70
-0.38
-1.45
-2.45
-3.31
-4.13
-5.03
-6.20
-7.69
-9.39
-11.01
-12.12
-12.40
-11.65
-9.96
-7.61
-4.97
-2.41
-0.17
1.68
3.16
4.33
5.24
5.90
6.29
6.44
6.41
6.30
6.16
5.98
5.73
5.35
4.83
4.21
3.54
2.83
2.05
1.14
0.11
-0.98
-1.98
-2.78
-3.31
-3.68
-4.05
-4.68
-5.83
-7.64
-10.14
-13.14
-16.28
-19.09
-21.15
-22.21
-22.30
-21.64
-20.59
-19.47
-18.55
-18.11
-18.46
-19.91
-22.55
-25.92
-29.03
-30.44
-28.80
-23.38
-14.34
-2.71
10.04
22.44
33.33
41.86
47.39
49.47
47.98
43.35
36.73
29.78
24.21
21.19
20.96
22.82
25.51
27.80
28.96
28.90
28.11
27.29
27.07
27.83
29.63
32.29
35.47
38.71
41.46
43.01
42.58
39.54
33.73
25.77
17.12
9.69
5.16
4.28
6.51
10.31
13.91
16.11
16.65
16.02
14.86
13.32
10.94
7.00
1.14
-6.31
-14.27
-21.46
-26.96
-30.60
-32.90
-34.68
-36.66
-39.03
-41.55
-43.67
-44.91
-45.12
-44.55
-43.68
-43.07
-43.07
-43.77
-44.96
-46.30
-47.46
-48.19
-48.39
-48.09
-47.38
-46.31
-44.90
-43.13
-40.95
-38.43
-35.74
-33.21
-31.14
-29.73
-28.87
-28.18
-27.04
-24.92
-21.57
-17.25
-12.66
-8.69
-6.03
-4.96
-5.30
-6.59
-8.39
-10.45
-12.71
-15.03
-17.14
-18.57
-18.85
-17.68
-15.05
-11.14
-6.18
-0.30
6.50
14.20
22.59
31.23
39.54
47.04
53.49
58.94
63.56
67.48
70.64
72.82
73.82
73.56
72.24
70.25
68.04
65.89
63.77
61.42
58.47
54.72
50.32
45.75
41.63
38.41
36.08
34.10
31.55
27.45
21.18
12.74
2.71
-7.92
-18.05
-26.68
-33.08
-36.83
-37.94
-36.95
-34.81
-32.58
-31.05
-30.28
-29.66
-28.25
-25.42
-21.36
-17.19
-14.51
-14.60
-17.87
-23.63
-30.46
-36.88
-41.81
-44.90
-46.26
-46.23
-44.98
-42.52
-38.83
-34.07
-28.77
-23.67
-19.52
-16.72
-15.16
-14.31
-13.51
-12.23
-10.34
-8.07
-5.86
-4.14
-3.15
-2.83
-2.94
-3.12
-3.11
-2.78
-2.26
-1.76
-1.50
-1.51
-1.62
-1.54
-1.05
-0.04
1.37
2.97
4.54
5.88
6.81
7.13
6.65
5.25
3.02
0.22
-2.78
-5.67
-8.36
-10.89
-13.33
-15.59
-17.38
-18.33
-18.20
-17.06
-15.31
-13.51
-12.11
-11.28
-10.88
-10.61
-10.26
-9.83
-9.47
-9.42
-9.77
-10.45
-11.23
-11.83
-12.01
-11.57
-10.40
-8.43
-5.77
-2.80
-0.07
1.73
2.10
0.85
-1.80
-5.29
-8.93
-12.13
-14.55
-16.12
-17.01
-17.50
-17.94
-18.66
-20.01
-22.25
-25.48
-29.54
-33.92
-37.81
-40.22
-40.27
-37.38
-31.40
-22.70
-12.00
-0.13
12.26
24.80
37.35
49.61
60.79
69.59
74.57
74.78
70.33
62.50
53.22
44.34
37.00
31.43
27.26
24.14
22.01
21.06
21.34
22.47
23.61
23.85
22.68
20.27
17.35
14.94
13.83
14.28
15.94
17.93
19.24
19.03
17.03
13.56
9.43
5.58
2.69
0.96
0.14
-0.17
-0.16
0.39
1.97
4.99
9.45
14.78
20.06
24.37
27.20
28.59
29.01
29.01
29.07
29.39
30.06
31.09
32.44
33.89
34.97
34.94
33.04
28.74
22.03
13.52
4.26
-4.58
-12.12
-18.01
-22.40
-25.74
-28.43
-30.60
-32.08
-32.61
-32.16
-31.09
-30.05
-29.66
-30.08
-30.88
-31.22
-30.29
-27.75
-23.93
-19.69
-15.98
-13.44
-12.15
-11.72
-11.43
-10.55
-8.59
-5.40
-1.24
3.23
7.15
9.61
9.94
7.94
4.00
-0.87
-5.26
-7.76
-7.38
-3.96
1.78
8.41
14.33
18.27
19.68
18.82
16.52
13.80
11.51
10.10
9.62
9.80
10.21
10.42
10.14
9.30
8.01
6.48
4.86
3.20
1.38
-0.68
-2.97
-5.16
-6.72
-7.05
-5.74
-2.82
1.24
5.66
9.61
12.42
13.68
13.16
10.70
6.16
-0.39
-8.52
-17.31
-25.44
-31.50
-34.44
-33.92
-30.35
-24.74
-18.32
-12.20
-7.13
-3.39
-0.86
0.82
2.14
3.44
4.91
6.43
7.73
8.52
8.57
7.85
6.50
4.83
3.25
2.19
2.01
2.86
4.55
6.55
8.04
8.18
6.42
2.80
-1.98
-6.59
-9.55
-9.68
-6.64
-1.07
5.50
11.18
14.30
13.99
10.38
4.41
-2.54
-9.16
-14.57
-18.31
-20.38
-20.96
-20.37
-18.92
-16.90
-14.52
-11.81
-8.69
-4.95
-0.40
4.94
10.77
16.48
21.30
24.50
25.63
24.61
21.77
17.71
13.14
8.69
4.77
1.56
-1.02
-3.13
-4.96
-6.54
-7.81
-8.61
-8.76
-8.17
-6.94
-5.30
-3.63
-2.36
-1.82
-2.16
-3.25
-4.73
-6.12
-7.02
-7.22
-6.84
-6.16
-5.51
-5.08
-4.85
-4.64
-4.22
-3.47
-2.35
-0.94
0.63
2.23
3.72
4.95
5.80
6.30
6.62
7.09
8.05
9.73
12.03
14.62
16.96
18.50
18.85
17.82
15.46
12.03
7.94
3.80
0.28
-2.01
-2.65
-1.66
0.54
3.22
5.58
7.08
7.56
7.31
6.85
6.69
7.08
7.79
8.31
7.97
6.33
3.37
-0.50
-4.61
-8.29
-11.12
-13.00
-14.11
-14.69
-14.92
-14.85
-14.48
-13.84
-13.05
-12.32
-11.77
-11.33
-10.77
-9.76
-8.09
-5.79
-3.18
-0.76
0.96
1.68
1.32
0.03
-1.95
-4.32
-6.81
-9.11
-10.95
-12.12
-12.58
-12.47
-12.06
-11.63
-11.32
-11.15
-10.98
-10.65
-10.06
-9.19
-8.10
-6.89
-5.64
-4.41
-3.26
-2.30
-1.69
-1.61
-2.14
-3.25
-4.66
-5.95
-6.67
-6.45
-5.16
-2.89
0.09
3.48
7.00
10.41
13.45
15.84
17.40
18.14
18.39
18.74
19.80
21.84
24.62
27.33
28.91
28.50
25.80
21.21
15.63
10.08
5.29
1.59
-1.07
-2.93
-4.22
-5.13
-5.87
-6.69
-7.88
-9.62
-11.84
-14.21
-16.19
-17.29
-17.28
-16.26
-14.59
-12.74
-11.06
-9.72
-8.77
-8.14
-7.80
-7.72
-7.84
-8.04
-8.13
-7.91
-7.19
-5.89
-4.05
-1.81
0.60
2.92
4.88
6.29
7.07
7.33
7.29
7.26
7.48
8.01
8.69
9.20
9.17
8.42
7.00
5.23
3.52
2.22
1.47
1.23
1.35
1.68
2.16
2.78
3.52
4.34
5.21
6.19
7.43
9.07
11.13
13.35
15.25
16.24
15.90
14.14
11.21
7.54
3.64
-0.11
-3.44
-6.19
-8.27
-9.76
-10.88
-12.05
-13.74
-16.30
-19.72
-23.52
-26.87
-28.79
-28.59
-26.13
-21.89
-16.79
-11.93
-8.13
-5.81
-4.90
-5.01
-5.67
-6.45
-7.06
-7.32
-7.06
-6.14
-4.43
-1.88
1.34
4.88
8.16
10.53
11.51
10.95
9.17
6.95
5.29
5.11
6.90
10.47
14.96
19.09
21.60
21.65
19.18
14.83
9.69
4.87
1.14
-1.22
-2.33
-2.54
-2.19
-1.58
-0.95
-0.44
-0.09
0.20
0.67
1.55
2.89
4.46
5.81
6.44
6.03
4.61
2.53
0.28
-1.72
-3.25
-4.30
-5.04
-5.69
-6.53
-7.83
-9.83
-12.58
-15.83
-19.00
-21.25
-21.76
-20.12
-16.50
-11.64
-6.61
-2.36
0.54
2.01
2.35
2.00
1.29
0.40
-0.57
-1.54
-2.33
-2.70
-2.45
-1.43
0.32
2.58
4.99
7.08
8.43
8.78
8.17
6.97
5.83
5.42
6.20
8.19
10.89
13.46
15.02
15.01
13.37
10.56
7.30
4.35
2.19
0.97
0.55
0.60
0.77
0.78
0.40
-0.45
-1.69
-2.99
-3.89
-3.88
-2.67
-0.32
2.73
5.80
8.24
9.65
9.96
9.36
8.15
6.61
4.91
3.16
1.49
-0.02
-1.28
-2.29
-3.13
-3.82
-4.28
-4.27
-3.53
-1.89
0.58
3.60
6.71
9.51
11.66
12.99
13.43
12.95
11.64
9.62
7.15
4.45
1.71
-1.04
-3.82
-6.61
-9.24
-11.34
-12.40
-11.99
-9.93
-6.40
-1.98
2.47
6.06
8.08
8.24
6.68
3.95
0.89
-1.55
-2.52
-1.52
1.38
5.49
9.60
12.34
12.64
10.09
5.13
-1.22
-7.73
-13.42
-17.77
-20.71
-22.37
-22.94
-22.51
-21.19
-19.19
-16.88
-14.69
-13.04
-12.14
-11.89
-11.94
-11.80
-11.10
-9.71
-7.88
-6.09
-4.88
-4.54
-5.02
-5.94
-6.82
-7.33
-7.41
-7.23
-7.06
-7.00
-6.96
-6.76
-6.29
-5.61
-4.96
-4.57
-4.51
-4.68
-4.83
-4.72
-4.26
-3.55
-2.79
-2.19
-1.83
-1.59
-1.26
-0.59
0.61
2.47
5.04
8.35
12.30
16.59
20.57
23.34
24.05
22.41
19.04
15.42
13.45
14.57
19.18
26.48
34.83
42.53
48.25
51.32
51.47
48.66
43.05
35.14
26.00
17.27
10.69
7.57
8.32
12.30
18.05
23.84
28.09
29.87
28.97
25.85
21.29
16.10
10.74
5.34
-0.19
-5.84
-11.21
-15.46
-17.51
-16.42
-11.83
-4.18
5.29
14.88
22.84
27.86
29.43
27.86
24.09
19.27
14.36
9.92
6.04
2.60
-0.53
-3.39
-5.89
-8.00
-9.84
-11.69
-13.89
-16.63
-19.91
-23.54
-27.24
-30.80
-34.05
-36.88
-39.10
-40.46
-40.78
-40.03
-38.38
-36.06
-33.20
-29.75
-25.54
-20.50
-14.80
-8.90
-3.35
1.33
4.86
7.07
7.85
7.11
4.82
1.20
-3.33
-8.23
-13.02
-17.46
-21.53
-25.31
-28.85
-32.03
-34.59
-36.29
-36.93
-36.44
-34.85
-32.30
-29.03
-25.32
-21.53
-17.96
-14.90
-12.56
-11.13
-10.65
-11.05
-11.97
-12.90
-13.27
-12.74
-11.38
-9.64
-8.16
-7.43
-7.49
-7.88
-7.88
-6.85
-4.59
-1.49
1.67
3.98
4.84
4.20
2.49
0.43
-1.33
-2.47
-3.03
-3.29
-3.52
-3.82
-4.12
-4.24
-4.10
-3.75
-3.38
-3.22
-3.43
-4.08
-5.15
-6.55
-8.17
-9.87
-11.48
-12.78
-13.60
-13.80
-13.34
-12.31
-10.91
-9.47
-8.32
-7.77
-7.98
-8.94
-10.49
-12.35
-14.21
-15.82
-17.01
-17.79
-18.27
-18.65
-19.09
-19.67
-20.27
-20.56
-20.07
-18.28
-14.75
-9.28
-1.94
6.92
16.65
26.46
35.44
42.68
47.40
49.11
47.72
43.59
37.53
30.57
23.75
17.85
13.28
10.15
8.39
7.91
8.64
10.45
13.03
15.85
18.23
19.59
19.71
18.79
17.42
16.28
15.84
16.16
16.93
17.66
18.03
18.09
18.31
19.31
21.55
25.09
29.47
33.98
37.92
40.94
43.05
44.51
45.53
46.03
45.67
43.98
40.66
35.78
29.71
22.87
15.52
7.62
-1.00
-10.40
-20.27
-29.95
-38.65
-45.76
-51.09
-54.85
-57.43
-59.22
-60.43
-61.10
-61.17
-60.49
-58.85
-55.86
-50.97
-43.58
-33.31
-20.21
-5.01
10.92
25.85
38.03
46.20
49.85
49.27
45.39
39.46
32.70
26.07
20.24
15.57
12.17
9.98
8.79
8.23
7.86
7.22
5.89
3.63
0.37
-3.66
-8.00
-12.04
-15.06
-16.42
-15.68
-12.62
-7.29
-0.03
8.65
18.01
27.21
35.38
41.71
45.51
46.35
44.10
38.93
31.37
22.13
12.06
1.91
-7.74
-16.52
-24.23
-30.67
-35.66
-38.94
-40.27
-39.55
-36.85
-32.51
-27.06
-21.25
-16.03
-12.42
-11.39
-13.60
-19.13
-27.29
-36.79
-46.05
-53.75
-59.19
-62.44
-64.00
-64.37
-63.58
-61.14
-56.28
-48.37
-37.36
-23.83
-8.92
6.00
19.63
30.96
39.37
44.64
47.02
47.05
45.53
43.27
40.99
39.20
38.21
38.09
38.69
39.61
40.23
39.88
38.01
34.41
29.38
23.57
17.83
12.91
9.23
6.83
5.46
4.73
4.29
3.96
3.66
3.41
3.15
2.86
2.46
2.00
1.58
1.34
1.35
1.53
1.67
1.43
0.53
-1.19
-3.59
-6.21
-8.29
-9.00
-7.66
-3.98
1.78
8.91
16.48
23.61
29.68
34.37
37.60
39.41
39.92
39.31
37.84
35.92
33.95
32.30
31.12
30.35
29.77
29.14
28.32
27.26
25.94
24.20
21.74
18.19
13.37
7.49
1.09
-5.12
-10.58
-15.09
-18.80
-21.91
-24.45
-26.24
-27.10
-27.20
-27.14
-27.77
-29.71
-32.92
-36.65
-39.78
-41.40
-41.26
-39.81
-37.93
-36.43
-35.62
-35.35
-35.15
-34.65
-33.69
-32.40
-30.99
-29.60
-28.26
-26.98
-25.82
-24.94
-24.51
-24.59
-25.05
-25.57
-25.79
-25.42
-24.38
-22.75
-20.72
-18.52
-16.30
-14.23
-12.42
-10.98
-10.02
-9.63
-9.88
-10.82
-12.36
-14.25
-16.10
-17.45
-17.90
-17.28
-15.64
-13.23
-10.35
-7.26
-4.18
-1.32
1.12
2.97
4.12
4.56
4.41
3.90
3.24
2.59
2.02
1.51
0.99
0.38
-0.34
-1.16
-2.04
-2.95
-3.92
-4.98
-6.21
-7.60
-9.07
-10.43
-11.40
-11.72
-11.24
-9.90
-7.83
-5.25
-2.48
0.20
2.57
4.52
6.05
7.24
8.17
8.92
9.50
9.87
10.00
9.91
9.68
9.47
9.42
9.61
9.99
10.43
10.73
10.71
10.24
9.32
8.04
6.58
5.21
4.18
3.68
3.83
4.62
5.97
7.75
9.76
11.78
13.59
14.98
15.78
15.99
15.69
15.07
14.31
13.54
12.80
12.10
11.39
10.65
9.86
9.03
8.18
7.35
6.57
5.91
5.39
4.99
4.67
4.29
3.71
2.81
1.53
-0.06
-1.73
-3.11
-3.81
-3.54
-2.24
-0.08
2.60
5.43
8.15
10.61
12.77
14.59
16.00
16.91
17.27
17.12
16.58
15.82
14.98
14.17
13.44
12.78
12.17
11.52
10.77
9.86
8.81
7.68
6.56
5.52
4.58
3.71
2.82
1.82
0.64
-0.72
-2.21
-3.71
-5.09
-6.17
-6.81
-6.89
-6.40
-5.38
-3.96
-2.27
-0.41
1.51
3.37
5.05
6.37
7.19
7.41
7.09
6.37
5.47
4.60
3.96
3.65
3.69
4.04
4.52
4.87
4.81
4.15
2.88
1.27
-0.25
-1.30
-1.73
-1.71
-1.67
-2.08
-3.21
-5.01
-7.16
-9.16
-10.60
-11.18
-10.78
-9.46
-7.42
-5.04
-2.80
-1.22
-0.61
-0.92
-1.72
-2.33
-2.16
-0.93
1.12
3.43
5.31
6.30
6.25
5.29
3.65
1.44
-1.32
-4.63
-8.32
-12.06
-15.40
-17.96
-19.46
-19.79
-18.81
-16.34
-12.17
-6.18
1.46
10.30
19.56
28.35
35.81
41.28
44.41
45.20
44.03
41.56
38.60
35.90
33.89
32.65
31.93
31.35
30.57
29.37
27.72
25.71
23.46
21.13
18.85
16.76
14.91
13.27
11.71
10.09
8.34
6.57
4.98
3.77
2.99
2.52
2.14
1.69
1.21
0.93
1.16
2.12
3.87
6.28
9.12
12.14
15.10
17.74
19.83
21.22
21.80
21.64
20.84
19.53
17.82
15.78
13.49
11.11
8.89
7.14
6.20
6.32
7.51
9.56
11.97
14.10
15.33
15.25
13.75
10.99
7.28
3.02
-1.43
-5.71
-9.50
-12.48
-14.45
-15.36
-15.37
-14.79
-14.03
-13.51
-13.60
-14.58
-16.53
-19.29
-22.47
-25.53
-27.96
-29.48
-30.08
-29.98
-29.48
-28.83
-28.12
-27.40
-26.73
-26.24
-26.15
-26.56
-27.42
-28.44
-29.18
-29.26
-28.46
-26.86
-24.74
-22.46
-20.33
-18.54
-17.11
-16.03
-15.27
-14.77
-14.51
-14.43
-14.44
-14.44
-14.31
-13.96
-13.32
-12.41
-11.32
-10.21
-9.27
-8.65
-8.40
-8.49
-8.75
-9.03
-9.16
-9.02
-8.58
-7.81
-6.77
-5.52
-4.18
-2.87
-1.71
-0.79
-0.19
0.05
-0.05
-0.46
-1.12
-1.95
-2.87
-3.76
-4.50
-4.94
-4.95
-4.46
-3.48
-2.15
-0.72
0.57
1.49
1.93
1.88
1.50
0.95
0.41
-0.05
-0.40
-0.65
-0.82
-0.87
-0.77
-0.49
-0.11
0.19
0.23
-0.12
-0.84
-1.75
-2.60
-3.16
-3.34
-3.14
-2.73
-2.25
-1.83
-1.53
-1.35
-1.28
-1.29
-1.39
-1.61
-1.96
-2.46
-3.08
-3.78
-4.47
-4.98
-5.17
-4.96
-4.42
-3.77
-3.40
-3.69
-4.93
-7.13
-10.01
-12.96
-15.14
-15.67
-13.86
-9.41
-2.62
5.65
14.10
21.31
26.12
27.91
26.80
23.51
19.06
14.42
10.22
6.63
3.48
0.55
-2.28
-4.86
-6.89
-8.14
-8.62
-8.57
-8.40
-8.43
-8.76
-9.25
-9.67
-9.82
-9.60
-8.97
-7.89
-6.23
-3.81
-0.62
3.11
6.84
9.86
11.54
11.55
9.99
7.38
4.51
2.18
1.06
1.50
3.49
6.68
10.54
14.43
17.72
19.91
20.63
19.78
17.49
14.11
10.11
5.96
2.06
-1.35
-4.14
-6.25
-7.67
-8.42
-8.60
-8.34
-7.85
-7.30
-6.79
-6.33
-5.83
-5.16
-4.23
-3.08
-1.88
-0.95
-0.63
-1.10
-2.24
-3.62
-4.60
-4.60
-3.39
-1.13
1.61
4.09
5.68
6.09
5.34
3.76
1.87
0.18
-0.84
-0.95
-0.09
1.52
3.50
5.44
7.03
8.17
8.99
9.78
10.88
12.50
14.69
17.19
19.52
21.00
21.02
19.18
15.52
10.50
4.80
-0.93
-6.29
-11.16
-15.58
-19.52
-22.82
-25.21
-26.53
-26.87
-26.57
-26.03
-25.46
-24.82
-23.80
-22.07
-19.41
-15.80
-11.48
-6.79
-2.15
1.99
5.20
7.18
7.79
7.23
5.97
4.66
3.88
3.94
4.81
6.18
7.58
8.65
9.21
9.30
9.14
9.00
9.12
9.57
10.29
11.10
11.79
12.22
12.32
12.07
11.43
10.33
8.66
6.42
3.76
1.06
-1.22
-2.65
-3.04
-2.42
-1.00
0.97
3.28
5.67
7.77
9.01
8.79
6.65
2.61
-2.73
-8.37
-13.27
-16.78
-18.84
-19.89
-20.57
-21.37
-22.41
-23.52
-24.45
-25.07
-25.34
-25.22
-24.37
-22.12
-17.65
-10.31
-0.01
12.67
26.63
40.67
53.77
65.35
75.07
82.66
87.68
89.52
87.62
81.82
72.54
60.78
47.88
35.17
23.74
14.32
7.29
2.78
0.63
0.45
1.64
3.45
5.19
6.30
6.52
5.84
4.44
2.60
0.67
-1.07
-2.49
-3.72
-5.13
-7.25
-10.47
-14.85
-20.02
-25.30
-29.99
-33.60
-36.01
-37.33
-37.81
-37.60
-36.78
-35.35
-33.36
-30.97
-28.38
-25.74
-23.11
-20.44
-17.69
-14.92
-12.31
-10.14
-8.67
-8.05
-8.29
-9.25
-10.69
-12.31
-13.83
-15.01
-15.70
-15.81
-15.34
-14.35
-12.92
-11.19
-9.28
-7.35
-5.51
-3.84
-2.35
-1.01
0.22
1.36
2.33
3.02
3.32
3.18
2.68
1.95
1.17
0.45
-0.12
-0.56
-0.91
-1.22
-1.53
-1.84
-2.14
-2.38
-2.52
-2.51
-2.27
-1.71
-0.80
0.43
1.81
3.08
3.98
4.30
4.02
3.25
2.14
0.84
-0.57
-2.08
-3.66
-5.22
-6.65
-7.92
-9.04
-10.09
-11.07
-11.85
-12.16
-11.77
-10.55
-8.65
-6.35
-4.02
-1.89
-0.07
1.46
2.77
3.92
4.93
5.76
6.45
6.97
7.33
7.53
7.54
7.43
7.30
7.31
7.56
8.05
8.66
9.23
9.67
10.02
10.44
11.10
12.05
13.08
13.83
13.96
13.25
11.74
9.62
7.11
4.33
1.34
-1.83
-5.06
-8.07
-10.51
-12.11
-12.73
-12.48
-11.57
-10.25
-8.70
-6.98
-5.10
-3.07
-0.98
1.04
2.81
4.20
5.14
5.66
5.85
5.84
5.69
5.42
5.02
4.42
3.60
2.55
1.29
-0.10
-1.50
-2.76
-3.73
-4.27
-4.31
-3.88
-3.09
-2.09
-1.03
-0.02
0.89
1.73
2.57
3.53
4.69
6.05
7.48
8.76
9.56
9.66
8.96
7.57
5.75
3.78
1.82
-0.06
-1.91
-3.73
-5.42
-6.79
-7.64
-7.83
-7.41
-6.56
-5.53
-4.53
-3.67
-2.96
-2.34
-1.78
-1.31
-1.02
-1.00
-1.27
-1.81
-2.51
-3.24
-3.95
-4.62
-5.25
-5.83
-6.28
-6.47
-6.26
-5.59
-4.52
-3.27
-2.07
-1.10
-0.42
0.01
0.35
0.69
1.10
1.54
1.94
2.21
2.32
2.32
2.27
2.26
2.34
2.53
2.78
3.01
3.12
3.03
2.68
2.05
1.21
0.24
-0.73
-1.57
-2.18
-2.46
-2.43
-2.19
-1.90
-1.78
-1.99
-2.58
-3.43
-4.33
-5.02
-5.35
-5.22
-4.64
-3.71
-2.51
-1.17
0.15
1.31
2.18
2.72
2.96
2.99
2.89
2.68
2.36
1.93
1.41
0.93
0.57
0.41
0.43
0.54
0.64
0.65
0.57
0.46
0.36
0.33
0.33
0.32
0.24
0.06
-0.25
-0.69
-1.26
-1.94
-2.65
-3.25
-3.61
-3.59
-3.13
-2.32
-1.28
-0.20
0.72
1.38
1.69
1.62
1.23
0.59
-0.15
-0.84
-1.36
-1.63
-1.66
-1.50
-1.24
-0.94
-0.66
-0.42
-0.27
-0.23
-0.32
-0.50
-0.66
-0.69
-0.54
-0.23
0.09
0.24
0.08
-0.42
-1.18
-2.04
-2.85
-3.47
-3.79
-3.77
-3.39
-2.74
-1.92
-1.10
-0.45
-0.04
0.14
0.17
0.17
0.24
0.40
0.62
0.82
0.92
0.88
0.69
0.39
0.05
-0.27
-0.53
-0.77
-1.08
-1.57
-2.31
-3.29
-4.39
-5.43
-6.29
-6.96
-7.55
-8.28
-9.29
-10.55
-11.88
-12.94
-13.44
-13.18
-12.21
-10.68
-8.82
-6.79
-4.67
-2.40
0.03
2.63
5.26
7.71
9.74
11.19
12.04
12.41
12.48
12.44
12.35
12.23
12.00
11.60
11.00
10.22
9.31
8.33
7.32
6.33
5.39
4.50
3.67
2.90
2.22
1.66
1.23
0.85
0.44
-0.15
-0.99
-2.09
-3.34
-4.54
-5.46
-5.89
-5.77
-5.18
-4.40
-3.73
-3.43
-3.56
-3.90
-4.07
-3.71
-2.65
-0.92
1.29
3.77
6.41
9.14
11.72
13.78
14.80
14.43
12.72
10.18
7.65
5.88
5.26
5.69
6.79
8.22
9.93
12.13
15.02
18.43
21.67
23.72
23.66
21.22
16.98
12.19
8.31
6.31
6.36
7.89
9.95
11.80
13.17
14.25
15.34
16.54
17.50
17.68
16.63
14.39
11.57
9.19
8.26
9.29
12.13
15.96
19.72
22.50
23.95
24.33
24.25
24.37
25.01
26.07
27.14
27.74
27.62
26.81
25.61
24.26
22.87
21.38
19.60
17.41
14.84
12.12
9.53
7.29
5.45
3.89
2.42
0.89
-0.73
-2.39
-3.94
-5.26
-6.27
-6.97
-7.44
-7.80
-8.16
-8.57
-9.05
-9.52
-9.92
-10.18
-10.28
-10.23
-10.04
-9.73
-9.30
-8.81
-8.29
-7.84
-7.51
-7.33
-7.28
-7.31
-7.40
-7.51
-7.67
-7.91
-8.31
-8.92
-9.74
-10.69
-11.60
-12.36
-12.96
-13.54
-14.20
-14.95
-15.49
-15.43
-14.49
-12.73
-10.70
-9.09
-8.46
-8.84
-9.82
-10.78
-11.30
-11.41
-11.49
-12.00
-13.23
-15.16
-17.57
-20.23
-22.98
-25.65
-28.03
-29.72
-30.38
-29.91
-28.64
-27.32
-26.79
-27.58
-29.49
-31.68
-32.90
-32.11
-28.92
-23.82
-18.02
-12.91
-9.57
-8.36
-8.92
-10.32
-11.54
-11.78
-10.70
-8.39
-5.25
-1.82
1.50
4.45
6.99
9.12
10.83
12.03
12.52
12.20
11.11
9.52
7.83
6.36
5.24
4.33
3.34
1.94
0.00
-2.36
-4.86
-7.21
-9.25
-11.03
-12.73
-14.54
-16.48
-18.37
-19.85
-20.57
-20.34
-19.23
-17.50
-15.54
-13.65
-11.98
-10.57
-9.39
-8.40
-7.60
-7.01
-6.59
-6.29
-6.03
-5.79
-5.59
-5.48
-5.53
-5.72
-6.01
-6.29
-6.49
-6.53
-6.44
-6.35
-6.45
-6.94
-7.94
-9.35
-10.92
-12.28
-13.17
-13.61
-13.89
-14.45
-15.60
-17.32
-19.15
-20.35
-20.19
-18.23
-14.53
-9.63
-4.32
0.64
4.75
7.81
9.92
11.28
12.17
13.01
14.39
17.09
21.85
29.14
38.80
49.95
61.20
70.95
77.97
81.54
81.54
78.24
72.13
63.89
54.52
45.41
38.19
34.25
34.07
36.65
39.64
39.95
34.97
23.73
7.51
-10.45
-26.18
-36.43
-39.79
-37.02
-30.42
-22.66
-15.68
-10.29
-6.32
-3.29
-1.06
0.12
-0.22
-2.20
-5.31
-8.57
-10.93
-11.82
-11.33
-10.16
-9.14
-8.87
-9.49
-10.67
-11.91
-12.78
-13.11
-13.07
-13.05
-13.45
-14.49
-16.15
-18.16
-20.16
-21.93
-23.44
-24.94
-26.72
-28.99
-31.71
-34.56
-37.12
-38.97
-39.92
-39.99
-39.39
-38.35
-37.12
-35.88
-34.74
-33.75
-32.85
-31.94
-30.86
-29.48
-27.76
-25.82
-23.85
-21.97
-20.15
-18.10
-15.44
-11.78
-6.95
-1.06
5.55
12.40
19.01
24.99
30.06
34.06
36.91
38.59
39.17
38.83
37.81
36.36
34.71
32.97
31.10
28.95
26.31
23.05
19.24
15.20
11.50
8.66
7.01
6.44
6.49
6.54
6.04
4.79
2.92
0.82
-1.07
-2.42
-2.98
-2.61
-1.23
1.16
4.40
8.22
12.27
16.24
19.98
23.41
26.50
29.18
31.40
33.15
34.56
35.81
37.01
38.06
38.59
38.04
35.98
32.23
27.00
20.76
14.09
7.50
1.36
-4.07
-8.61
-12.09
-14.44
-15.71
-16.10
-15.93
-15.52
-15.09
-14.70
-14.37
-14.09
-13.94
-14.02
-14.38
-14.98
-15.70
-16.42
-17.08
-17.73
-18.44
-19.23
-19.98
-20.51
-20.61
-20.19
-19.35
-18.35
-17.51
-17.09
-17.18
-17.65
-18.19
-18.46
-18.21
-17.36
-16.05
-14.59
-13.30
-12.37
-11.90
-11.83
-12.09
-12.69
-13.62
-14.84
-16.09
-16.95
-16.88
-15.49
-12.72
-8.98
-4.95
-1.33
1.50
3.58
5.29
7.08
9.19
11.54
13.92
16.12
18.14
20.18
22.52
25.31
28.53
32.01
35.50
38.82
41.85
44.48
46.59
48.04
48.81
48.99
48.79
48.49
48.26
48.09
47.71
46.68
44.44
40.46
34.39
26.20
16.38
5.89
-3.93
-11.72
-16.52
-18.07
-16.93
-14.19
-11.10
-8.66
-7.34
-7.12
-7.63
-8.38
-8.99
-9.25
-9.15
-8.73
-7.99
-6.84
-5.15
-2.87
-0.21
2.35
4.24
4.98
4.41
2.65
-0.09
-3.71
-8.34
-14.12
-20.89
-28.00
-34.44
-39.26
-41.97
-42.84
-42.68
-42.42
-42.62
-43.27
-43.92
-44.03
-43.35
-41.96
-40.12
-38.02
-35.52
-32.29
-27.97
-22.50
-16.28
-10.06
-4.72
-0.97
0.84
0.77
-0.82
-3.44
-6.58
-9.80
-12.75
-15.16
-16.83
-17.68
-17.76
-17.24
-16.38
-15.44
-14.61
-13.94
-13.33
-12.55
-11.33
-9.46
-6.89
-3.71
-0.21
3.32
6.62
9.56
12.16
14.54
16.83
19.07
21.23
23.16
24.67
25.57
25.78
25.30
24.28
22.90
21.38
19.85
18.37
16.91
15.38
13.69
11.75
9.53
7.06
4.47
1.95
-0.29
-2.10
-3.38
-4.16
-4.56
-4.72
-4.81
-4.93
-5.17
-5.54
-6.02
-6.56
-7.07
-7.43
-7.48
-7.09
-6.17
-4.77
-3.01
-1.12
0.66
2.16
3.36
4.32
5.15
5.91
6.55
6.97
7.07
6.82
6.26
5.53
4.75
3.99
3.25
2.51
1.72
0.93
0.20
-0.35
-0.65
-0.65
-0.37
0.16
0.85
1.55
2.00
1.92
1.07
-0.59
-2.83
-5.17
-7.02
-7.94
-7.73
-6.54
-4.71
-2.61
-0.49
1.54
3.44
5.17
6.58
7.50
7.81
7.57
6.96
6.29
5.83
5.72
5.95
6.37
6.77
7.04
7.11
7.05
6.97
6.97
7.10
7.35
7.61
7.73
7.49
6.66
5.07
2.67
-0.34
-3.57
-6.48
-8.58
-9.56
-9.38
-8.27
-6.54
-4.49
-2.37
-0.29
1.62
3.24
4.43
5.15
5.40
5.35
5.16
5.01
4.98
5.08
5.24
5.42
5.59
5.83
6.22
6.82
7.69
8.83
10.22
11.77
13.41
14.97
16.27
17.09
17.24
16.59
15.13
12.96
10.21
7.06
3.74
0.51
-2.28
-4.25
-5.12
-4.82
-3.54
-1.64
0.47
2.46
4.16
5.51
6.43
6.82
6.59
5.77
4.64
3.65
3.29
3.84
5.20
6.89
8.23
8.61
7.77
5.77
2.97
-0.13
-3.10
-5.56
-7.29
-8.15
-8.09
-7.20
-5.67
-3.79
-1.92
-0.32
0.88
1.76
2.55
3.48
4.67
6.08
7.47
8.57
9.13
9.06
8.37
7.18
5.66
4.05
2.62
1.66
1.38
1.80
2.77
3.97
5.12
6.00
6.59
6.91
7.00
6.86
6.48
5.90
5.23
4.66
4.35
4.34
4.57
4.87
4.99
4.79
4.19
3.23
2.00
0.64
-0.79
-2.22
-3.61
-4.93
-6.13
-7.13
-7.88
-8.35
-8.55
-8.49
-8.18
-7.62
-6.76
-5.56
-4.03
-2.23
-0.32
1.44
2.82
3.67
3.94
3.71
3.15
2.43
1.70
1.05
0.56
0.31
0.34
0.65
1.14
1.67
2.03
2.07
1.70
0.94
-0.08
-1.17
-2.13
-2.78
-3.08
-3.10
-3.04
-3.06
-3.27
-3.57
-3.76
-3.57
-2.80
-1.42
0.47
2.67
4.97
7.22
9.30
11.15
12.74
14.05
15.14
16.06
16.84
17.49
17.94
18.12
17.97
17.45
16.53
15.21
13.44
11.21
8.59
5.76
3.06
0.85
-0.64
-1.41
-1.80
-2.33
-3.50
-5.59
-8.55
-12.03
-15.60
-18.99
-22.18
-25.35
-28.66
-32.11
-35.41
-38.16
-40.05
-40.92
-40.80
-39.66
-37.35
-33.63
-28.36
-21.73
-14.32
-6.87
0.04
6.30
12.28
18.53
25.35
32.49
39.15
44.32
47.25
47.80
46.43
43.93
40.97
37.91
34.69
31.16
27.33
23.52
20.25
17.97
16.79
16.41
16.27
15.84
14.80
13.12
11.03
8.83
6.79
5.12
3.89
2.98
2.12
0.99
-0.69
-3.00
-5.82
-8.91
-12.10
-15.31
-18.57
-21.88
-25.07
-27.79
-29.67
-30.46
-30.17
-29.10
-27.67
-26.23
-25.02
-24.05
-23.22
-22.42
-21.59
-20.79
-20.07
-19.49
-19.01
-18.48
-17.72
-16.56
-14.81
-12.38
-9.18
-5.27
-0.88
3.50
7.13
9.20
9.05
6.43
1.59
-4.80
-11.89
-18.94
-25.50
-31.47
-36.97
-42.19
-47.15
-51.64
-55.20
-57.20
-56.94
-53.86
-47.62
-38.19
-25.91
-11.49
3.99
19.24
32.93
43.94
51.53
55.50
56.08
53.85
49.60
44.19
38.42
33.00
28.47
25.19
23.31
22.79
23.36
24.53
25.59
25.75
24.34
21.16
16.59
11.54
7.04
3.79
1.92
0.97
0.38
-0.25
-0.85
-1.10
-0.70
0.37
1.77
2.99
3.70
3.87
3.73
3.59
3.55
3.46
2.99
1.89
0.13
-2.03
-4.20
-6.03
-7.39
-8.35
-9.04
-9.54
-9.75
-9.46
-8.51
-6.95
-5.04
-3.15
-1.59
-0.48
0.22
0.63
0.76
0.54
-0.10
-1.05
-2.08
-2.91
-3.45
-3.94
-4.81
-6.45
-8.84
-11.52
-13.75
-14.91
-14.81
-13.80
-12.47
-11.31
-10.42
-9.50
-8.14
-6.08
-3.47
-0.78
1.44
2.85
3.51
3.82
4.34
5.55
7.61
10.36
13.34
16.00
17.84
18.57
18.20
17.06
15.70
14.85
15.24
17.38
21.37
26.72
32.44
37.32
40.28
40.77
38.93
35.46
31.25
27.03
23.14
19.53
15.94
12.07
7.74
2.92
-2.29
-7.69
-12.92
-17.54
-21.06
-23.15
-23.72
-23.03
-21.58
-19.92
-18.53
-17.62
-17.17
-16.99
-16.87
-16.68
-16.37
-15.98
-15.56
-15.15
-14.80
-14.62
-14.71
-15.15
-15.88
-16.73
-17.47
-17.89
-17.87
-17.31
-16.08
-13.95
-10.78
-6.64
-1.97
2.46
5.79
7.34
6.87
4.58
1.05
-2.96
-6.71
-9.51
-10.88
-10.63
-8.92
-6.29
-3.47
-1.17
0.19
0.53
0.03
-1.02
-2.36
-3.79
-5.15
-6.33
-7.33
-8.28
-9.53
-11.52
-14.59
-18.67
-23.28
-27.56
-30.61
-31.76
-30.77
-27.89
-23.73
-19.06
-14.57
-10.70
-7.59
-5.09
-2.90
-0.82
1.23
3.14
4.72
5.84
6.46
6.65
6.51
6.08
5.32
4.19
2.74
1.07
-0.71
-2.59
-4.70
-7.21
-10.16
-13.26
-15.92
-17.39
-17.14
-15.09
-11.68
-7.72
-3.98
-0.90
1.50
3.47
5.30
7.07
8.68
9.95
10.79
11.34
11.82
12.42
13.17
13.88
14.20
13.69
12.04
9.13
5.16
0.62
-3.81
-7.42
-9.72
-10.55
-10.06
-8.55
-6.35
-3.70
-0.78
2.25
5.17
7.73
9.73
11.14
12.05
12.65
13.02
13.13
12.72
11.45
8.96
5.06
-0.10
-5.94
-11.51
-15.73
-17.79
-17.40
-14.97
-11.35
-7.51
-4.12
-1.41
0.78
2.70
4.51
6.17
7.51
8.43
8.98
9.31
9.59
9.89
10.13
10.08
9.52
8.28
6.40
4.07
1.63
-0.57
-2.29
-3.50
-4.31
-4.95
-5.64
-6.45
-7.27
-7.86
-7.95
-7.39
-6.13
-4.31
-2.17
0.02
2.03
3.69
4.89
5.56
5.66
5.17
4.16
2.79
1.27
-0.18
-1.41
-2.36
-3.07
-3.55
-3.79
-3.72
-3.28
-2.49
-1.47
-0.45
0.35
0.74
0.70
0.28
-0.34
-0.96
-1.38
-1.44
-0.99
0.01
1.51
3.34
5.28
7.12
8.74
10.13
11.45
12.90
14.68
16.86
19.33
21.82
23.97
25.47
26.11
25.85
24.77
23.01
20.71
17.93
14.71
11.11
7.24
3.32
-0.38
-3.60
-6.17
-8.05
-9.28
-9.99
-10.27
-10.17
-9.68
-8.81
-7.64
-6.32
-5.01
-3.86
-2.94
-2.27
-1.80
-1.48
-1.27
-1.13
-1.01
-0.91
-0.84
-0.82
-0.87
-0.97
-1.07
-1.10
-1.02
-0.87
-0.68
-0.51
-0.34
-0.10
0.27
0.78
1.37
1.95
2.43
2.79
3.02
3.16
3.21
3.10
2.84
2.43
1.93
1.39
0.85
0.28
-0.34
-0.97
-1.49
-1.76
-1.71
-1.50
-1.39
-1.72
-2.62
-3.96
-5.39
-6.49
-7.01
-6.96
-6.58
-6.15
-5.86
-5.75
-5.78
-5.86
-5.96
-5.98
-5.74
-4.93
-3.16
-0.18
3.93
8.72
13.44
17.28
19.67
20.40
19.62
17.72
15.01
11.63
7.54
2.68
-2.85
-8.64
-13.99
-18.13
-20.47
-20.83
-19.45
-16.93
-13.92
-10.94
-8.25
-5.84
-3.62
-1.50
0.49
2.31
3.96
5.65
7.67
10.25
13.29
16.32
18.57
19.34
18.30
15.71
12.29
8.91
6.22
4.42
3.32
2.52
1.67
0.62
-0.57
-1.74
-2.74
-3.55
-4.21
-4.76
-5.25
-5.68
-6.04
-6.37
-6.71
-7.05
-7.29
-7.22
-6.63
-5.41
-3.64
-1.60
0.28
1.55
1.91
1.24
-0.30
-2.43
-4.73
-6.81
-8.35
-9.17
-9.24
-8.68
-7.66
-6.39
-5.05
-3.76
-2.60
-1.59
-0.74
-0.01
0.66
1.30
2.01
2.84
3.85
4.99
6.15
7.14
7.75
7.86
7.46
6.74
5.99
5.48
5.43
5.86
6.67
7.64
8.60
9.47
10.29
11.20
12.33
13.79
15.60
17.68
19.89
22.04
23.95
25.48
26.59
27.29
27.65
27.71
27.47
26.89
25.91
24.60
23.08
21.64
20.57
20.13
20.41
21.35
22.73
24.24
25.55
26.35
26.41
25.60
24.02
21.95
19.90
18.41
17.87
18.39
19.70
21.31
22.64
23.23
22.84
21.43
19.09
15.96
12.28
8.39
4.73
1.82
0.00
-0.59
-0.16
0.90
2.20
3.51
4.81
6.20
7.77
9.43
10.92
11.87
11.95
11.01
9.13
6.62
3.90
1.34
-0.95
-3.13
-5.62
-8.86
-13.13
-18.37
-24.25
-30.31
-36.12
-41.45
-46.23
-50.46
-54.10
-57.02
-59.02
-59.95
-59.74
-58.49
-56.41
-53.76
-50.83
-47.86
-45.08
-42.68
-40.80
-39.54
-38.87
-38.64
-38.56
-38.30
-37.56
-36.20
-34.25
-31.90
-29.36
-26.82
-24.39
-22.12
-20.07
-18.32
-16.94
-15.98
-15.40
-15.06
-14.77
-14.37
-13.80
-13.12
-12.46
-11.93
-11.54
-11.23
-10.91
-10.51
-10.06
-9.65
-9.42
-9.49
-9.91
-10.65
-11.53
-12.36
-12.86
-12.84
-12.20
-10.98
-9.32
-7.45
-5.58
-3.82
-2.21
-0.71
0.75
2.16
3.49
4.64
5.57
6.32
6.97
7.60
8.23
8.80
9.15
9.20
8.92
8.46
8.00
7.69
7.58
7.57
7.52
7.31
6.92
6.46
6.02
5.66
5.34
4.91
4.27
3.37
2.30
1.17
0.08
-0.99
-2.15
-3.46
-4.84
-6.04
-6.70
-6.54
-5.51
-3.79
-1.72
0.41
2.43
4.32
6.09
7.73
9.13
10.13
10.68
10.81
10.68
10.47
10.30
10.16
10.03
9.86
9.65
9.44
9.25
9.05
8.75
8.24
7.49
6.54
5.53
4.64
3.97
3.55
3.31
3.10
2.79
2.27
1.53
0.65
-0.29
-1.17
-1.94
-2.59
-3.11
-3.47
-3.58
-3.28
-2.44
-0.97
1.06
3.51
6.15
8.83
11.43
13.91
16.21
18.23
19.81
20.83
21.29
21.32
21.21
21.22
21.47
21.88
22.19
22.16
21.67
20.76
19.62
18.40
17.16
15.87
14.53
13.25
12.31
11.97
12.38
13.45
14.91
16.42
17.73
18.73
19.35
19.49
19.01
17.74
15.73
13.23
10.67
8.50
6.96
5.97
5.25
4.43
3.31
1.92
0.51
-0.63
-1.35
-1.74
-2.03
-2.41
-2.85
-3.09
-2.79
-1.77
-0.21
1.38
2.41
2.52
1.76
0.56
-0.55
-1.14
-1.05
-0.41
0.56
1.59
2.47
3.07
3.37
3.42
3.43
3.72
4.57
6.15
8.36
10.80
12.90
14.08
13.99
12.63
10.33
7.66
5.16
3.25
2.09
1.62
1.65
1.88
1.93
1.39
-0.12
-2.80
-6.53
-10.88
-15.25
-19.06
-21.99
-24.04
-25.42
-26.44
-27.37
-28.37
-29.52
-30.86
-32.29
-33.65
-34.72
-35.28
-35.24
-34.65
-33.69
-32.54
-31.32
-30.06
-28.68
-26.98
-24.71
-21.57
-17.40
-12.31
-6.79
-1.55
2.74
5.82
8.01
10.09
12.86
16.79
21.76
27.14
32.14
36.13
38.80
40.17
40.36
39.55
37.89
35.57
32.81
29.91
27.16
24.80
22.93
21.47
20.03
17.98
14.58
9.26
1.92
-6.90
-16.11
-24.43
-30.88
-35.11
-37.37
-38.34
-38.67
-38.75
-38.59
-38.01
-36.83
-34.99
-32.54
-29.61
-26.28
-22.67
-18.96
-15.43
-12.41
-10.17
-8.80
-8.17
-7.98
-7.89
-7.66
-7.16
-6.43
-5.60
-4.79
-4.09
-3.51
-3.03
-2.61
-2.20
-1.84
-1.54
-1.36
-1.30
-1.31
-1.37
-1.45
-1.54
-1.67
-1.83
-1.97
-2.04
-2.05
-2.10
-2.35
-2.94
-3.80
-4.65
-5.01
-4.43
-2.71
-0.02
3.12
6.03
8.10
9.03
8.86
7.92
6.62
5.38
4.50
4.11
4.25
4.87
5.81
6.88
7.85
8.52
8.72
8.39
7.49
6.11
4.38
2.57
0.94
-0.26
-0.89
-1.02
-0.82
-0.57
-0.51
-0.80
-1.52
-2.62
-3.95
-5.29
-6.37
-6.95
-6.96
-6.48
-5.77
-5.13
-4.79
-4.84
-5.16
-5.60
-6.09
-6.66
-7.43
-8.54
-10.03
-11.81
-13.71
-15.57
-17.26
-18.75
-20.08
-21.30
-22.49
-23.72
-25.02
-26.39
-27.73
-28.88
-29.62
-29.83
-29.50
-28.85
-28.19
-27.77
-27.59
-27.33
-26.43
-24.36
-20.84
-16.00
-10.30
-4.40
1.19
6.16
10.49
14.31
17.72
20.63
22.82
23.96
23.80
22.26
19.54
16.00
12.15
8.44
5.20
2.60
0.59
-0.95
-2.13
-3.00
-3.53
-3.61
-3.12
-2.01
-0.33
1.82
4.31
7.08
10.12
13.44
17.04
20.88
24.79
28.55
31.89
34.50
36.04
36.22
34.87
32.12
28.50
24.85
22.05
20.60
20.36
20.56
20.18
18.42
15.12
10.75
6.16
2.10
-1.07
-3.40
-5.16
-6.63
-7.94
-9.14
-10.30
-11.58
-13.13
-15.04
-17.26
-19.65
-22.01
-24.15
-25.88
-27.02
-27.52
-27.40
-26.88
-26.21
-25.52
-24.73
-23.60
-21.98
-19.94
-17.79
-15.80
-13.91
-11.59
-8.08
-2.90
3.76
10.96
17.35
21.75
23.57
22.86
20.06
15.72
10.43
4.85
-0.11
-3.44
-4.38
-2.72
0.93
5.40
9.41
11.98
12.70
11.70
9.44
6.51
3.57
1.28
0.26
0.90
3.12
6.27
9.31
11.11
10.86
8.41
4.15
-1.15
-6.71
-11.82
-15.88
-18.14
-17.70
-13.72
-5.86
5.32
18.30
30.96
41.34
48.22
51.49
51.97
50.84
49.13
47.38
45.60
43.53
40.89
37.52
33.45
28.79
23.73
18.41
12.98
7.56
2.32
-2.49
-6.51
-9.27
-10.31
-9.34
-6.39
-1.93
3.29
8.40
12.70
15.82
17.74
18.67
18.91
18.72
18.23
17.50
16.60
15.64
14.81
14.31
14.25
14.62
15.37
16.46
17.98
20.04
22.76
26.05
29.69
33.29
36.52
39.17
41.17
42.50
43.10
42.87
41.81
40.16
38.51
37.57
37.88
39.38
41.19
41.74
39.28
32.53
21.26
6.53
-9.61
-24.81
-37.18
-45.82
-50.86
-53.06
-53.36
-52.48
-50.89
-48.94
-47.03
-45.58
-44.89
-44.97
-45.48
-45.84
-45.54
-44.30
-42.14
-39.36
-36.28
-33.12
-29.97
-26.89
-24.00
-21.63
-20.17
-19.90
-20.74
-22.11
-23.09
-22.87
-21.12
-18.25
-15.21
-12.93
-11.78
-11.28
-10.38
-8.04
-3.83
1.77
7.63
12.61
16.18
18.69
21.07
24.35
29.01
34.80
40.94
46.41
50.31
51.77
49.89
43.66
32.28
15.61
-5.45
-28.95
-52.44
-73.66
-91.09
-103.97
-112.00
-114.90
-112.24
-103.66
-89.33
-70.26
-48.30
-25.74
-4.83
12.76
26.14
35.24
40.61
43.17
43.89
43.54
42.59
41.31
39.96
38.90
38.61
39.52
41.84
45.48
50.07
55.17
60.31
65.11
69.16
72.02
73.33
72.99
71.26
68.79
66.34
64.47
63.35
62.72
62.00
60.61
58.07
54.16
48.89
42.59
35.82
29.31
23.69
19.20
15.47
11.54
6.20
-1.53
-11.97
-24.66
-38.55
-52.40
-65.13
-76.01
-84.67
-91.00
-95.13
-97.43
-98.41
-98.59
-98.25
-97.20
-94.89
-90.65
-84.22
-76.05
-67.27
-59.37
-53.59
-50.51
-49.87
-50.85
-52.40
-53.68
-54.27
-54.06
-53.13
-51.55
-49.23
-45.98
-41.53
-35.57
-27.85
-18.19
-6.55
6.89
21.53
36.30
49.73
60.26
66.62
68.35
65.92
60.61
53.95
47.07
40.38
33.60
26.28
18.25
9.89
1.91
-5.03
-10.61
-14.97
-18.49
-21.53
-24.21
-26.33
-27.45
-27.08
-24.90
-21.04
-16.26
-11.85
-9.31
-9.75
-13.44
-19.59
-26.68
-33.13
-37.83
-40.42
-41.07
-40.08
-37.70
-34.10
-29.56
-24.56
-19.63
-15.03
-10.53
-5.54
0.49
7.68
15.52
23.10
29.52
34.33
37.57
39.63
40.96
41.92
42.75
43.57
44.36
44.82
44.41
42.54
38.94
33.99
28.65
24.09
21.13
19.88
19.75
19.84
19.55
18.77
17.81
17.02
16.42
15.61
14.06
11.50
8.15
4.66
1.82
0.06
-0.70
-1.03
-1.62
-2.83
-4.57
-6.32
-7.46
-7.61
-6.81
-5.48
-4.18
-3.34
-3.10
-3.27
-3.52
-3.54
-3.21
-2.66
-2.08
-1.70
-1.59
-1.68
-1.79
-1.73
-1.42
-0.83
-0.04
0.85
1.77
2.67
3.56
4.44
5.35
6.30
7.30
8.29
9.21
9.96
10.46
10.68
10.66
10.45
10.14
9.76
9.32
8.81
8.23
7.55
6.74
5.74
4.49
2.97
1.26
-0.49
-2.10
-3.43
-4.46
-5.29
-6.10
-7.04
-8.16
-9.43
-10.76
-12.04
-13.21
-14.20
-14.95
-15.36
-15.34
-14.79
-13.69
-12.11
-10.17
-8.06
-5.97
-4.04
-2.33
-0.84
0.45
1.59
2.57
3.39
4.06
4.63
5.13
5.57
5.91
6.02
5.81
5.28
4.59
3.99
3.72
3.88
4.41
5.10
5.69
5.93
5.68
4.88
3.55
1.82
-0.13
-2.02
-3.57
-4.51
-4.69
-4.09
-2.87
-1.34
0.20
1.47
2.30
2.71
2.81
2.79
2.82
2.99
3.31
3.68
3.99
4.14
4.10
3.89
3.57
3.18
2.74
2.26
1.75
1.26
0.85
0.56
0.37
0.22
-0.02
-0.41
-0.95
-1.59
-2.27
-2.96
-3.67
-4.41
-5.17
-5.89
-6.43
-6.68
-6.52
-5.95
-5.02
-3.87
-2.64
-1.42
-0.27
0.83
1.87
2.83
3.64
4.27
4.72
5.05
5.31
5.53
5.68
5.68
5.48
5.05
4.45
3.77
3.11
2.55
2.12
1.84
1.66
1.49
1.24
0.81
0.19
-0.59
-1.46
-2.34
-3.19
-3.95
-4.52
-4.81
-4.72
-4.25
-3.47
-2.47
-1.36
-0.14
1.19
2.63
4.11
5.51
6.68
7.54
8.12
8.50
8.74
8.89
8.91
8.80
8.57
8.32
8.10
7.91
7.66
7.27
6.69
5.98
5.29
4.74
4.38
4.11
3.79
3.29
2.56
1.67
0.70
-0.26
-1.20
-2.10
-2.99
-3.82
-4.53
-5.01
-5.22
-5.13
-4.76
-4.13
-3.30
-2.37
-1.47
-0.74
-0.27
-0.07
-0.02
0.06
0.27
0.62
0.96
1.11
0.94
0.53
0.11
-0.07
0.08
0.46
0.83
0.95
0.77
0.40
0.02
-0.21
-0.32
-0.42
-0.63
-0.98
-1.37
-1.71
-1.92
-2.08
-2.25
-2.48
-2.70
-2.79
-2.66
-2.31
-1.84
-1.39
-1.00
-0.61
-0.14
0.49
1.22
1.89
2.31
2.39
2.19
1.87
1.65
1.60
1.69
1.77
1.69
1.39
0.92
0.42
0.03
-0.16
-0.20
-0.19
-0.29
-0.59
-1.12
-1.86
-2.70
-3.53
-4.26
-4.80
-5.16
-5.37
-5.56
-5.79
-6.11
-6.42
-6.61
-6.50
-5.98
-5.04
-3.77
-2.37
-1.02
0.08
0.86
1.29
1.45
1.45
1.39
1.33
1.24
1.06
0.70
0.08
-0.80
-1.89
-3.06
-4.15
-5.01
-5.57
-5.84
-5.89
-5.79
-5.59
-5.32
-5.03
-4.87
-5.07
-5.82
-7.18
-8.95
-10.72
-12.05
-12.64
-12.41
-11.55
-10.36
-9.09
-7.92
-6.93
-6.13
-5.56
-5.19
-4.97
-4.79
-4.49
-4.01
-3.36
-2.62
-1.98
-1.54
-1.38
-1.39
-1.41
-1.22
-0.70
0.14
1.13
2.05
2.75
3.20
3.52
3.86
4.24
4.54
4.57
4.19
3.43
2.58
1.99
1.93
2.46
3.40
4.51
5.55
6.49
7.42
8.45
9.62
10.82
11.83
12.47
12.66
12.46
12.02
11.53
11.09
10.76
10.54
10.41
10.39
10.46
10.61
10.74
10.76
10.56
10.08
9.30
8.30
7.17
6.05
5.01
4.10
3.29
2.55
1.83
1.15
0.57
0.23
0.20
0.48
0.94
1.39
1.67
1.75
1.72
1.75
1.96
2.30
2.63
2.73
2.47
1.84
0.98
0.05
-0.80
-1.50
-2.02
-2.38
-2.63
-2.80
-2.93
-3.06
-3.23
-3.40
-3.55
-3.65
-3.70
-3.72
-3.76
-3.86
-3.98
-4.09
-4.09
-3.91
-3.52
-2.92
-2.16
-1.35
-0.58
0.07
0.61
1.10
1.65
2.32
3.06
3.76
4.30
4.65
4.86
5.05
5.30
5.59
5.80
5.77
5.44
4.86
4.21
3.66
3.23
2.82
2.19
1.17
-0.23
-1.79
-3.21
-4.17
-4.58
-4.53
-4.27
-4.05
-4.01
-4.15
-4.35
-4.51
-4.55
-4.46
-4.28
-4.08
-3.92
-3.90
-4.11
-4.62
-5.50
-6.71
-8.18
-9.78
-11.34
-12.75
-13.92
-14.88
-15.69
-16.48
-17.35
-18.34
-19.41
-20.48
-21.49
-22.39
-23.14
-23.72
-24.13
-24.34
-24.33
-23.97
-23.10
-21.51
-19.01
-15.56
-11.21
-6.14
-0.60
5.17
10.88
16.19
20.72
24.11
26.21
27.15
27.28
27.05
26.77
26.50
26.05
25.19
23.81
22.04
20.17
18.50
17.26
16.50
16.21
16.31
16.79
17.62
18.75
20.02
21.24
22.27
23.08
23.79
24.57
25.56
26.73
27.95
28.93
29.37
28.93
27.28
24.18
19.58
13.70
7.08
0.42
-5.57
-10.35
-13.71
-15.71
-16.65
-16.91
-16.88
-16.83
-16.97
-17.41
-18.17
-19.22
-20.44
-21.71
-22.85
-23.70
-24.12
-24.07
-23.58
-22.75
-21.70
-20.52
-19.29
-18.04
-16.83
-15.72
-14.70
-13.70
-12.60
-11.35
-10.01
-8.72
-7.66
-6.91
-6.41
-5.98
-5.47
-4.79
-3.98
-3.13
-2.27
-1.38
-0.41
0.67
1.86
3.09
4.30
5.41
6.34
6.98
7.22
7.07
6.61
6.09
5.70
5.58
5.64
5.71
5.63
5.37
5.06
4.86
4.89
5.12
5.46
5.78
6.00
6.17
6.34
6.51
6.66
6.70
6.62
6.47
6.38
6.45
6.72
7.12
7.50
7.74
7.79
7.66
7.51
7.50
7.79
8.44
9.38
10.44
11.37
11.97
12.12
11.79
11.01
9.80
8.13
5.93
3.10
-0.37
-4.38
-8.69
-12.97
-16.89
-20.19
-22.72
-24.46
-25.54
-26.07
-26.22
-26.07
-25.71
-25.17
-24.51
-23.73
-22.82
-21.71
-20.31
-18.57
-16.52
-14.31
-12.11
-10.06
-8.17
-6.34
-4.39
-2.18
0.32
3.03
5.81
8.58
11.31
13.99
16.53
18.73
20.25
20.81
20.34
19.08
17.56
16.33
15.83
16.16
17.20
18.72
20.57
22.72
25.19
27.90
30.59
32.91
34.48
35.03
34.37
32.43
29.17
24.61
19.03
12.96
7.26
2.84
0.40
0.13
1.50
3.39
4.41
3.37
-0.27
-6.17
-13.18
-19.83
-24.78
-27.33
-27.54
-26.04
-23.64
-20.97
-18.29
-15.55
-12.65
-9.60
-6.60
-3.99
-2.05
-0.93
-0.60
-0.94
-1.93
-3.71
-6.52
-10.56
-15.75
-21.69
-27.72
-33.09
-37.11
-39.22
-39.01
-36.25
-31.00
-23.78
-15.48
-7.26
-0.12
5.42
9.41
12.24
14.29
15.60
15.90
14.83
12.28
8.49
4.02
-0.54
-4.73
-8.40
-11.64
-14.75
-18.17
-22.34
-27.59
-34.01
-41.35
-49.06
-56.48
-63.04
-68.41
-72.46
-75.10
-76.09
-75.06
-71.55
-65.32
-56.44
-45.35
-32.70
-19.20
-5.38
8.38
21.73
34.26
45.34
54.28
60.57
64.04
64.99
64.12
62.23
59.98
57.73
55.52
53.22
50.76
48.15
45.55
43.20
41.29
39.99
39.37
39.44
40.09
41.18
42.42
43.52
44.13
43.95
42.72
40.27
36.61
31.91
26.51
20.88
15.39
10.31
5.63
1.24
-3.02
-7.13
-10.92
-14.04
-16.21
-17.32
-17.51
-17.13
-16.53
-16.01
-15.67
-15.55
-15.58
-15.68
-15.70
-15.48
-14.89
-13.89
-12.57
-11.15
-9.86
-8.83
-8.03
-7.37
-6.85
-6.62
-6.98
-8.20
-10.39
-13.44
-17.07
-20.99
-25.01
-28.92
-32.44
-35.14
-36.52
-36.18
-34.08
-30.57
-26.29
-21.95
-18.12
-15.04
-12.72
-11.04
-9.90
-9.25
-9.14
-9.59
-10.54
-11.84
-13.20
-14.36
-15.12
-15.50
-15.68
-15.97
-16.54
-17.38
-18.17
-18.44
-17.76
-15.90
-12.96
-9.36
-5.65
-2.36
0.21
2.03
3.39
4.72
6.39
8.54
10.94
13.09
14.39
14.46
13.27
11.20
8.86
6.82
5.42
4.68
4.38
4.17
3.74
2.87
1.51
-0.34
-2.60
-5.25
-8.32
-11.79
-15.59
-19.46
-22.98
-25.66
-27.11
-27.16
-25.91
-23.65
-20.70
-17.33
-13.71
-9.94
-6.14
-2.48
0.79
3.48
5.49
6.91
7.97
8.97
10.15
11.65
13.39
15.17
16.78
18.05
18.97
19.57
19.83
19.66
18.91
17.52
15.61
13.47
11.48
9.86
8.64
7.60
6.47
5.12
3.66
2.37
1.66
1.80
2.91
4.88
7.42
10.18
12.78
14.92
16.46
17.42
18.06
18.85
20.44
23.40
27.98
33.81
39.85
44.64
46.85
45.79
41.82
36.18
30.41
25.76
22.66
20.70
19.03
16.80
13.56
9.33
4.48
-0.54
-5.28
-9.39
-12.54
-14.51
-15.17
-14.61
-13.08
-10.97
-8.69
-6.55
-4.77
-3.41
-2.48
-1.91
-1.64
-1.62
-1.78
-2.10
-2.64
-3.50
-4.78
-6.49
-8.50
-10.47
-12.04
-12.89
-12.90
-12.24
-11.29
-10.53
-10.35
-10.92
-12.12
-13.60
-14.88
-15.57
-15.42
-14.46
-12.88
-10.96
-8.92
-6.81
-4.59
-2.18
0.42
3.12
5.71
7.93
9.57
10.46
10.55
9.94
8.81
7.46
6.16
5.08
4.26
3.59
2.87
2.00
1.04
0.21
-0.24
-0.16
0.33
0.81
0.76
-0.17
-1.98
-4.22
-6.21
-7.29
-7.16
-5.92
-3.99
-1.84
0.20
2.04
3.70
5.23
6.55
7.47
7.84
7.62
6.94
6.06
5.26
4.69
4.30
3.89
3.17
1.96
0.27
-1.66
-3.43
-4.76
-5.60
-6.19
-6.93
-8.13
-9.85
-11.82
-13.61
-14.84
-15.40
-15.39
-15.01
-14.41
-13.59
-12.47
-10.98
-9.17
-7.14
-5.01
-2.88
-0.79
1.15
2.81
4.03
4.73
5.01
5.09
5.21
5.46
5.80
6.07
6.22
6.29
6.38
6.49
6.49
6.19
5.50
4.59
3.84
3.64
4.13
5.08
6.00
6.46
6.28
5.64
4.91
4.40
4.17
4.10
4.07
4.05
4.17
4.52
5.05
5.43
5.24
4.10
1.93
-1.02
-4.30
-7.42
-10.04
-12.04
-13.51
-14.70
-15.84
-17.12
-18.60
-20.20
-21.71
-22.84
-23.29
-22.89
-21.57
-19.45
-16.76
-13.81
-10.87
-8.19
-5.89
-4.00
-2.47
-1.15
0.06
1.23
2.40
3.52
4.56
5.45
6.15
6.59
6.70
6.43
5.79
4.90
3.95
3.14
2.57
2.19
1.79
1.15
0.17
-1.07
-2.36
-3.41
-4.00
-4.05
-3.55
-2.56
-1.22
0.28
1.64
2.54
2.72
2.12
0.96
-0.30
-1.07
-0.89
0.42
2.72
5.59
8.53
11.18
13.36
15.10
16.54
17.75
18.70
19.29
19.36
18.88
17.97
16.87
15.89
15.33
15.32
15.82
16.59
17.23
17.29
16.48
14.74
12.30
9.61
7.14
5.22
3.90
3.00
2.13
0.84
-1.19
-3.99
-7.20
-10.09
-11.84
-11.84
-9.98
-6.77
-3.13
-0.02
1.93
2.52
1.93
0.44
-1.73
-4.46
-7.55
-10.60
-12.98
-14.02
-13.28
-10.77
-6.96
-2.65
1.37
4.54
6.71
8.09
9.10
10.06
11.11
12.06
12.56
12.27
11.06
9.02
6.46
3.70
1.00
-1.53
-3.89
-6.11
-8.22
-10.13
-11.72
-12.88
-13.53
-13.70
-13.53
-13.21
-12.85
-12.46
-11.87
-10.88
-9.34
-7.26
-4.80
-2.14
0.55
3.22
5.88
8.49
10.91
12.91
14.26
14.84
14.72
14.07
13.16
12.16
11.19
10.25
9.32
8.39
7.49
6.60
5.66
4.57
3.18
1.42
-0.64
-2.84
-4.96
-6.81
-8.25
-9.23
-9.75
-9.75
-9.18
-8.06
-6.51
-4.83
-3.36
-2.40
-2.00
-1.99
-2.08
-2.00
-1.71
-1.37
-1.19
-1.32
-1.67
-2.02
-2.13
-1.89
-1.40
-0.87
-0.45
-0.14
0.20
0.72
1.49
2.31
2.88
2.91
2.28
1.10
-0.29
-1.50
-2.21
-2.30
-1.78
-0.77
0.60
2.22
4.02
5.85
7.55
8.92
9.80
10.15
10.05
9.67
9.20
8.75
8.36
8.01
7.64
7.22
6.75
6.24
5.71
5.13
4.51
3.82
3.07
2.30
1.57
0.89
0.23
-0.51
-1.43
-2.57
-3.83
-4.98
-5.72
-5.81
-5.22
-4.12
-2.78
-1.47
-0.27
0.84
1.96
3.11
4.20
5.06
5.56
5.66
5.45
5.10
4.76
4.47
4.22
3.92
3.53
3.05
2.57
2.15
1.86
1.68
1.53
1.32
0.99
0.52
-0.02
-0.55
-1.03
-1.48
-2.00
-2.66
-3.51
-4.49
-5.51
-6.43
-7.17
-7.67
-7.90
-7.85
-7.49
-6.79
-5.72
-4.29
-2.59
-0.78
0.91
2.28
3.21
3.69
3.87
3.92
4.04
4.34
4.80
5.32
5.78
6.04
6.09
5.96
5.77
5.62
5.56
5.56
5.59
5.58
5.54
5.52
5.55
5.63
5.64
5.39
4.75
3.66
2.23
0.63
-0.95
-2.43
-3.83
-5.19
-6.50
-7.68
-8.55
-8.97
-8.94
-8.58
-8.09
-7.59
-7.12
-6.57
-5.83
-4.91
-3.94
-3.15
-2.69
-2.63
-2.82
-3.07
-3.14
-2.95
-2.49
-1.83
-1.08
-0.33
0.33
0.82
1.08
1.08
0.85
0.45
-0.03
-0.53
-0.99
-1.38
-1.72
-1.99
-2.21
-2.42
-2.64
-2.92
-3.25
-3.57
-3.79
-3.81
-3.57
-3.10
-2.47
-1.85
-1.38
-1.13
-1.15
-1.40
-1.80
-2.31
-2.90
-3.54
-4.22
-4.92
-5.59
-6.15
-6.51
-6.57
-6.28
-5.67
-4.86
-4.07
-3.50
-3.27
-3.37
-3.64
-3.91
-4.06
-4.08
-4.09
-4.21
-4.55
-5.12
-5.83
-6.56
-7.16
-7.51
-7.50
-7.07
-6.18
-4.90
-3.42
-1.98
-0.81
-0.01
0.44
0.64
0.71
0.69
0.48
0.01
-0.68
-1.39
-1.79
-1.61
-0.81
0.42
1.73
2.84
3.66
4.38
5.27
6.49
7.99
9.52
10.76
11.51
11.73
11.54
11.10
10.53
9.91
9.30
8.73
8.24
7.90
7.76
7.90
8.36
9.21
10.44
11.97
13.66
15.31
16.74
17.84
18.57
18.99
19.16
19.17
19.02
18.65
17.88
16.46
14.23
11.15
7.47
3.62
0.08
-2.81
-4.96
-6.55
-7.85
-9.07
-10.20
-11.05
-11.35
-11.03
-10.22
-9.33
-8.80
-9.00
-9.98
-11.54
-13.29
-14.81
-15.80
-16.10
-15.70
-14.69
-13.19
-11.39
-9.50
-7.77
-6.35
-5.24
-4.27
-3.13
-1.60
0.31
2.35
4.08
5.11
5.33
4.90
4.19
3.53
3.08
2.77
2.47
2.06
1.55
1.04
0.61
0.26
-0.09
-0.52
-1.04
-1.57
-1.94
-2.05
-1.90
-1.61
-1.34
-1.23
-1.31
-1.54
-1.79
-1.91
-1.81
-1.44
-0.85
-0.16
0.44
0.71
0.52
-0.16
-1.24
-2.54
-3.86
-5.06
-6.10
-6.99
-7.77
-8.41
-8.89
-9.17
-9.29
-9.31
-9.32
-9.37
-9.42
-9.39
-9.16
-8.65
-7.82
-6.69
-5.28
-3.64
-1.82
0.04
1.76
3.13
3.96
4.19
3.92
3.39
2.92
2.80
3.15
3.91
4.80
5.47
5.61
5.10
4.11
2.97
2.05
1.60
1.65
2.04
2.49
2.73
2.55
1.87
0.66
-1.00
-2.93
-4.83
-6.38
-7.31
-7.52
-7.16
-6.54
-6.04
-5.83
-5.86
-5.85
-5.44
-4.40
-2.73
-0.59
1.73
3.94
5.83
7.24
8.14
8.64
9.04
9.73
11.03
13.01
15.37
17.58
19.07
19.55
19.07
17.95
16.53
15.03
13.51
11.99
10.56
9.45
8.95
9.18
10.10
11.43
12.78
13.75
14.09
13.73
12.78
11.46
10.04
8.70
7.49
6.27
4.87
3.17
1.24
-0.67
-2.24
-3.25
-3.72
-3.90
-4.17
-4.83
-6.00
-7.51
-9.05
-10.27
-11.04
-11.41
-11.58
-11.74
-11.94
-12.07
-11.93
-11.38
-10.46
-9.37
-8.31
-7.50
-6.98
-6.77
-6.85
-7.30
-8.19
-9.59
-11.40
-13.36
-15.03
-15.92
-15.62
-13.97
-11.11
-7.50
-3.76
-0.47
1.98
3.52
4.35
4.79
5.14
5.49
5.81
5.93
5.72
5.13
4.25
3.29
2.46
1.95
1.86
2.11
2.56
3.00
3.27
3.28
3.04
2.59
2.04
1.41
0.71
-0.07
-0.92
-1.75
-2.46
-2.95
-3.25
-3.47
-3.84
-4.51
-5.47
-6.56
-7.45
-7.91
-7.86
-7.46
-7.05
-6.97
-7.39
-8.24
-9.27
-10.12
-10.51
-10.25
-9.25
-7.49
-4.98
-1.80
1.85
5.63
9.12
11.93
13.78
14.63
14.59
13.90
12.79
11.43
9.93
8.36
6.75
5.13
3.54
1.96
0.40
-1.18
-2.75
-4.29
-5.70
-6.89
-7.79
-8.35
-8.62
-8.71
-8.77
-8.96
-9.38
-10.06
-10.87
-11.60
-11.99
-11.79
-10.89
-9.33
-7.34
-5.24
-3.28
-1.61
-0.23
0.92
1.86
2.48
2.66
2.31
1.52
0.56
-0.25
-0.68
-0.74
-0.63
-0.64
-0.97
-1.62
-2.40
-3.10
-3.51
-3.59
-3.41
-3.11
-2.89
-2.92
-3.35
-4.21
-5.43
-6.78
-7.89
-8.44
-8.18
-7.15
-5.60
-3.92
-2.48
-1.50
-0.97
-0.73
-0.58
-0.39
-0.18
-0.03
-0.10
-0.49
-1.22
-2.27
-3.53
-4.79
-5.78
-6.19
-5.72
-4.22
-1.77
1.33
4.59
7.51
9.74
11.14
11.83
12.04
11.97
11.76
11.49
11.16
10.73
10.13
9.17
7.64
5.42
2.61
-0.41
-3.03
-4.70
-5.09
-4.27
-2.65
-0.79
0.82
1.85
2.11
1.54
0.22
-1.56
-3.25
-4.15
-3.68
-1.69
1.34
4.51
6.82
7.67
7.10
5.69
4.21
3.18
2.69
2.44
2.06
1.40
0.58
-0.03
-0.17
0.21
0.91
1.64
2.17
2.48
2.73
3.14
3.72
4.28
4.39
3.63
1.84
-0.65
-3.14
-4.71
-4.72
-2.99
0.04
3.55
6.69
8.86
9.90
10.03
9.59
8.91
8.16
7.38
6.53
5.62
4.79
4.22
4.12
4.56
5.36
6.12
6.36
5.73
4.23
2.22
0.30
-0.97
-1.32
-0.82
0.09
0.89
1.09
0.43
-1.12
-3.42
-6.28
-9.54
-13.13
-16.96
-20.86
-24.53
-27.56
-29.60
-30.53
-30.52
-29.96
-29.24
-28.51
-27.60
-26.14
-23.82
-20.61
-16.79
-12.80
-9.02
-5.56
-2.25
1.21
4.99
9.03
13.01
16.47
19.06
20.64
21.28
21.16
20.46
19.28
17.65
15.66
13.42
11.11
8.93
7.04
5.51
4.34
3.44
2.64
1.72
0.50
-1.06
-2.79
-4.34
-5.33
-5.52
-4.94
-3.91
-2.81
-1.85
-0.99
0.06
1.63
3.80
6.38
8.89
10.87
12.09
12.66
12.95
13.37
14.09
15.01
15.78
16.07
15.74
14.96
14.07
13.40
13.08
12.95
12.70
11.98
10.62
8.67
6.33
3.87
1.53
-0.50
-2.06
-3.02
-3.28
-2.89
-2.03
-1.05
-0.33
-0.17
-0.63
-1.59
-2.74
-3.81
-4.59
-5.01
-5.10
-4.98
-4.76
-4.59
-4.63
-4.97
-5.59
-6.36
-7.08
-7.57
-7.78
-7.75
-7.63
-7.59
-7.76
-8.19
-8.83
-9.59
-10.33
-10.94
-11.32
-11.43
-11.24
-10.75
-9.94
-8.78
-7.30
-5.56
-3.71
-1.88
-0.19
1.30
2.60
3.70
4.54
5.02
5.07
4.68
3.96
3.12
2.34
1.79
1.48
1.37
1.32
1.16
0.81
0.23
-0.55
-1.53
-2.73
-4.17
-5.85
-7.62
-9.21
-10.29
-10.57
-9.99
-8.68
-6.95
-5.14
-3.50
-2.15
-1.10
-0.28
0.39
0.98
1.51
1.97
2.29
2.36
2.12
1.60
0.94
0.36
0.12
0.38
1.17
2.36
3.69
4.88
5.69
6.02
5.91
5.52
5.03
4.55
4.13
3.77
3.50
3.42
3.67
4.40
5.63
7.22
8.98
10.69
12.25
13.65
14.96
16.22
17.38
18.39
19.18
19.75
20.15
20.44
20.64
20.70
20.55
20.13
19.37
18.28
16.90
15.31
13.63
12.02
10.60
9.42
8.41
7.39
6.16
4.65
2.97
1.39
0.24
-0.23
0.06
1.01
2.34
3.74
4.92
5.67
5.91
5.71
5.20
4.52
3.76
2.88
1.82
0.54
-0.93
-2.48
-3.99
-5.33
-6.47
-7.39
-8.05
-8.46
-8.60
-8.54
-8.46
-8.55
-9.01
-9.89
-11.11
-12.45
-13.74
-14.83
-15.69
-16.36
-16.89
-17.27
-17.48
-17.51
-17.35
-17.05
-16.67
-16.22
-15.61
-14.73
-13.45
-11.71
-9.62
-7.39
-5.29
-3.58
-2.39
-1.72
-1.47
-1.47
-1.53
-1.55
-1.48
-1.35
-1.21
-1.13
-1.12
-1.15
-1.11
-0.87
-0.33
0.56
1.73
2.98
4.12
4.91
5.27
5.21
4.88
4.44
4.00
3.57
3.05
2.30
1.23
-0.14
-1.71
-3.32
-4.78
-5.96
-6.76
-7.12
-7.03
-6.54
-5.77
-4.92
-4.17
-3.63
-3.28
-2.93
-2.33
-1.21
0.57
2.96
5.75
8.54
10.88
12.31
12.54
11.58
9.79
7.81
6.35
5.93
6.69
8.34
10.27
11.85
12.62
12.46
11.49
9.95
7.98
5.57
2.67
-0.63
-3.96
-6.71
-8.25
-8.32
-7.09
-5.17
-3.31
-2.05
-1.53
-1.54
-1.71
-1.75
-1.63
-1.50
-1.58
-2.01
-2.78
-3.74
-4.70
-5.53
-6.18
-6.75
-7.43
-8.34
-9.51
-10.80
-11.99
-12.90
-13.48
-13.83
-14.11
-14.40
-14.70
-14.86
-14.72
-14.14
-13.10
-11.67
-9.97
-8.17
-6.41
-4.77
-3.31
-2.01
-0.86
0.17
1.08
1.87
2.50
3.00
3.37
3.65
3.91
4.21
4.60
5.11
5.70
6.25
6.66
6.85
6.85
6.79
6.84
7.08
7.48
7.87
8.12
8.23
8.41
9.03
10.45
12.78
15.75
18.80
21.23
22.51
22.50
21.49
20.03
18.66
17.64
16.91
16.13
14.95
13.19
11.02
8.81
6.99
5.83
5.32
5.18
5.09
4.83
4.42
4.03
3.89
4.11
4.60
5.04
5.02
4.23
2.63
0.59
-1.31
-2.45
-2.47
-1.46
0.10
1.62
2.65
3.08
3.09
2.99
2.96
2.97
2.95
2.86
2.83
3.06
3.62
4.35
4.92
4.93
4.19
2.80
0.99
-0.98
-3.07
-5.39
-8.12
-11.25
-14.58
-17.70
-20.22
-21.93
-22.84
-23.17
-23.13
-22.89
-22.48
-21.84
-20.95
-19.83
-18.57
-17.29
-16.03
-14.79
-13.53
-12.21
-10.82
-9.41
-7.96
-6.46
-4.80
-2.97
-1.03
0.83
2.32
3.22
3.42
3.00
2.10
0.90
-0.51
-2.11
-3.90
-5.85
-7.93
-10.09
-12.36
-14.83
-17.56
-20.55
-23.61
-26.35
-28.27
-28.88
-27.98
-25.70
-22.56
-19.28
-16.48
-14.51
-13.30
-12.45
-11.49
-10.08
-8.18
-6.02
-3.94
-2.22
-0.96
-0.06
0.73
1.65
2.80
4.13
5.44
6.53
7.30
7.75
7.98
8.02
7.81
7.16
5.94
4.11
1.89
-0.33
-2.12
-3.15
-3.31
-2.69
-1.51
-0.04
1.53
3.06
4.49
5.79
6.94
7.89
8.58
8.92
8.89
8.51
7.89
7.17
6.45
5.73
4.92
3.83
2.27
0.18
-2.36
-5.14
-7.82
-10.11
-11.78
-12.77
-13.18
-13.23
-13.16
-13.10
-13.04
-12.86
-12.37
-11.45
-10.07
-8.31
-6.30
-4.18
-2.02
0.13
2.23
4.21
5.99
7.45
8.50
9.07
9.17
8.86
8.26
7.55
6.90
6.43
6.18
6.17
6.35
6.70
7.16
7.61
7.92
7.96
7.70
7.21
6.70
6.31
6.09
5.90
5.56
4.91
4.01
3.06
2.34
2.03
2.12
2.45
2.80
3.07
3.24
3.41
3.67
4.02
4.34
4.46
4.28
3.81
3.28
2.97
3.14
3.89
5.10
6.49
7.75
8.64
9.06
9.06
8.73
8.15
7.38
6.46
5.43
4.34
3.22
2.07
0.90
-0.30
-1.50
-2.67
-3.71
-4.55
-5.05
-5.06
-4.49
-3.39
-1.96
-0.55
0.53
1.15
1.44
1.73
2.32
3.30
4.51
5.65
6.51
7.12
7.76
8.77
10.32
12.34
14.44
16.21
17.32
17.67
17.40
16.75
15.92
15.05
14.14
13.15
12.03
10.78
9.45
8.14
6.93
5.81
4.69
3.46
2.06
0.58
-0.78
-1.79
-2.28
-2.27
-1.92
-1.45
-1.01
-0.63
-0.31
-0.05
0.02
-0.29
-1.10
-2.32
-3.65
-4.70
-5.14
-4.89
-4.12
-3.18
-2.38
-1.92
-1.85
-2.13
-2.71
-3.55
-4.65
-5.95
-7.30
-8.52
-9.40
-9.80
-9.67
-9.04
-7.95
-6.46
-4.60
-2.45
-0.13
2.22
4.47
6.55
8.46
10.27
12.06
13.86
15.61
17.11
18.14
18.50
18.12
17.11
15.70
14.19
12.78
11.52
10.30
8.97
7.41
5.64
3.80
1.99
0.20
-1.74
-4.09
-7.04
-10.53
-14.26
-17.72
-20.40
-22.04
-22.68
-22.65
-22.37
-22.19
-22.20
-22.31
-22.30
-22.02
-21.47
-20.76
-20.06
-19.46
-18.91
-18.26
-17.31
-16.00
-14.36
-12.54
-10.67
-8.80
-6.87
-4.72
-2.26
0.46
3.23
5.72
7.65
8.87
9.46
9.60
9.52
9.37
9.22
9.07
8.92
8.75
8.54
8.20
7.54
6.36
4.50
1.93
-1.21
-4.68
-8.10
-11.13
-13.48
-14.99
-15.59
-15.31
-14.24
-12.45
-10.04
-7.14
-4.02
-1.04
1.44
3.23
4.44
5.52
7.10
9.60
13.07
17.10
21.01
24.21
26.48
27.99
29.11
30.16
31.11
31.76
31.84
31.33
30.49
29.69
29.24
29.10
28.97
28.41
27.07
24.89
22.08
18.98
15.90
13.09
10.67
8.76
7.44
6.79
6.76
7.17
7.74
8.10
7.95
7.10
5.51
3.27
0.59
-2.25
-4.91
-7.07
-8.54
-9.26
-9.40
-9.24
-9.09
-9.09
-9.19
-9.21
-8.91
-8.20
-7.21
-6.22
-5.55
-5.40
-5.73
-6.24
-6.51
-6.22
-5.27
-3.86
-2.39
-1.22
-0.55
-0.33
-0.37
-0.51
-0.73
-1.20
-2.16
-3.76
-5.93
-8.44
-10.97
-13.28
-15.30
-17.12
-18.89
-20.66
-22.38
-23.88
-24.93
-25.33
-24.99
-23.96
-22.38
-20.45
-18.35
-16.21
-14.13
-12.21
-10.52
-9.11
-7.91
-6.72
-5.27
-3.42
-1.27
0.69
1.68
0.94
-1.89
-6.50
-11.95
-16.94
-20.37
-21.68
-21.04
-19.19
-16.99
-15.14
-13.96
-13.45
-13.41
-13.64
-13.94
-14.11
-14.02
-13.56
-12.77
-11.78
-10.73
-9.64
-8.34
-6.55
-4.03
-0.78
2.85
6.31
8.94
10.23
9.90
7.96
4.68
0.62
-3.49
-6.76
-8.45
-8.11
-5.79
-2.02
2.40
6.59
9.91
11.99
12.83
12.64
11.83
10.86
10.14
9.92
10.20
10.75
11.20
11.24
10.75
9.84
8.75
7.71
6.88
6.29
5.95
5.89
6.17
6.81
7.71
8.63
9.26
9.25
8.42
6.79
4.60
2.22
0.07
-1.59
-2.70
-3.45
-4.12
-4.98
-6.20
-7.70
-9.25
-10.53
-11.28
-11.41
-10.99
-10.22
-9.31
-8.42
-7.58
-6.84
-6.21
-5.75
-5.49
-5.45
-5.57
-5.81
-6.16
-6.75
-7.76
-9.35
-11.49
-13.87
-15.98
-17.23
-17.18
-15.63
-12.69
-8.71
-4.20
0.28
4.19
7.06
8.64
8.96
8.33
7.25
6.26
5.76
5.88
6.46
7.15
7.53
7.33
6.48
5.18
3.86
2.98
2.97
4.00
5.93
8.34
10.63
12.20
12.59
11.58
9.20
5.77
1.80
-2.05
-5.16
-7.04
-7.49
-6.73
-5.29
-3.90
-3.19
-3.52
-4.83
-6.69
-8.56
-9.91
-10.48
-10.21
-9.28
-7.96
-6.63
-5.68
-5.41
-5.95
-7.09
-8.31
-8.89
-8.29
-6.38
-3.62
-0.89
0.91
1.17
-0.09
-2.34
-4.67
-6.22
-6.38
-4.98
-2.31
0.98
4.08
6.20
6.80
5.67
2.96
-0.82
-4.95
-8.62
-11.14
-12.12
-11.60
-10.08
-8.28
-6.87
-6.14
-5.86
-5.32
-3.77
-0.78
3.52
8.46
13.15
16.85
19.16
20.06
19.81
18.85
17.73
17.00
17.12
18.14
19.55
20.29
19.14
15.35
9.16
1.94
-4.26
-7.59
-7.26
-3.91
0.71
4.54
6.04
4.73
1.09
-3.82
-8.88
-13.30
-16.70
-19.02
-20.40
-21.03
-21.16
-20.96
-20.48
-19.39
-17.04
-12.69
-5.94
2.76
11.88
19.19
22.44
20.30
12.96
2.18
-9.28
-18.66
-24.11
-25.18
-22.76
-18.52
-14.19
-10.94
-9.22
-8.85
-9.44
-10.68
-12.47
-14.84
-17.66
-20.50
-22.74
-23.82
-23.42
-21.43
-17.73
-12.17
-4.68
4.34
13.76
21.79
26.47
26.48
21.61
12.90
2.20
-8.53
-17.76
-24.68
-29.12
-31.40
-32.17
-32.34
-32.97
-35.03
-39.05
-44.95
-52.03
-59.16
-65.15
-69.04
-70.26
-68.63
-64.40
-58.32
-51.55
-45.37
-40.58
-36.88
-32.70
-25.79
-14.32
2.01
21.44
40.79
56.65
66.72
70.52
69.15
64.55
58.56
52.46
46.82
41.73
37.13
33.17
30.37
29.74
32.43
39.14
49.57
62.17
74.48
84.04
89.26
89.96
87.16
82.34
76.73
70.89
64.89
58.74
52.83
47.87
44.67
43.62
44.46
46.37
48.27
49.30
49.24
48.46
47.58
47.03
46.61
45.57
42.93
38.11
31.26
23.25
15.20
7.85
1.21
-5.33
-12.57
-20.84
-29.68
-37.99
-44.56
-48.63
-50.34
-50.62
-50.84
-52.19
-55.29
-59.96
-65.37
-70.37
-73.75
-74.28
-70.70
-61.85
-47.15
-27.29
-4.51
17.99
37.25
52.05
63.49
74.27
86.95
102.23
118.26
131.53
138.73
138.41
131.57
120.74
108.48
96.17
83.80
70.76
56.81
42.65
29.63
19.06
11.42
6.10
1.81
-2.80
-8.49
-15.23
-22.37
-29.17
-35.16
-40.30
-44.85
-49.17
-53.47
-57.75
-61.85
-65.42
-68.06
-69.38
-69.17
-67.60
-65.22
-62.85
-61.22
-60.71
-61.15
-62.02
-62.71
-62.78
-61.95
-59.85
-56.00
-50.01
-41.96
-32.78
-24.06
-17.38
-13.44
-11.56
-10.03
-7.12
-2.09
4.31
10.32
14.26
15.43
14.37
12.23
9.90
7.45
4.27
-0.20
-5.76
-11.22
-14.91
-15.54
-12.94
-8.15
-2.98
0.85
2.35
1.46
-1.13
-4.48
-7.83
-10.75
-13.11
-14.85
-15.90
-16.24
-15.95
-15.31
-14.69
-14.30
-14.00
-13.22
-11.26
-7.57
-2.17
4.26
10.53
15.44
18.12
18.36
16.59
13.63
10.40
7.66
5.92
5.33
5.78
6.88
8.08
8.72
8.23
6.26
2.78
-1.89
-7.17
-12.34
-16.72
-19.78
-21.23
-21.03
-19.35
-16.54
-13.12
-9.64
-6.62
-4.28
-2.53
-0.88
1.29
4.37
8.28
12.39
15.77
17.65
17.67
16.04
13.26
9.85
6.11
2.18
-1.76
-5.30
-7.80
-8.66
-7.55
-4.71
-0.83
3.15
6.38
8.34
8.89
8.21
6.57
4.29
1.66
-1.05
-3.62
-5.88
-7.76
-9.22
-10.21
-10.49
-9.75
-7.78
-4.62
-0.70
3.32
6.80
9.50
11.58
13.45
15.50
17.79
20.10
22.04
23.31
23.80
23.47
22.27
20.03
16.63
12.22
7.40
3.12
0.32
-0.48
0.53
2.54
4.42
5.28
4.71
2.88
0.25
-2.71
-5.74
-8.83
-12.07
-15.46
-18.85
-21.96
-24.49
-26.10
-26.51
-25.50
-22.93
-18.87
-13.71
-8.07
-2.67
1.97
5.69
8.69
11.35
13.95
16.47
18.58
19.84
19.91
18.70
16.46
13.71
11.19
9.62
9.56
11.11
13.93
17.24
20.21
22.22
23.09
23.02
22.29
21.05
19.11
16.16
12.04
6.94
1.45
-3.65
-7.73
-10.54
-12.23
-13.16
-13.72
-14.17
-14.58
-14.94
-15.29
-15.67
-16.12
-16.49
-16.47
-15.61
-13.59
-10.35
-6.16
-1.53
2.94
6.75
9.57
11.29
11.98
11.91
11.43
10.89
10.49
10.21
9.81
8.99
7.50
5.25
2.31
-1.14
-4.85
-8.52
-11.79
-14.27
-15.69
-15.94
-15.18
-13.69
-11.72
-9.37
-6.53
-2.98
1.48
6.88
13.08
19.76
26.54
33.01
38.80
43.56
47.05
49.13
49.82
49.36
48.13
46.57
45.01
43.49
41.77
39.39
35.97
31.37
25.78
19.62
13.37
7.41
1.88
-3.17
-7.78
-11.96
-15.73
-19.10
-22.12
-24.83
-27.18
-29.02
-30.12
-30.27
-29.40
-27.63
-25.23
-22.55
-19.94
-17.63
-15.70
-14.10
-12.70
-11.35
-9.97
-8.61
-7.39
-6.49
-6.03
-6.03
-6.36
-6.85
-7.26
-7.46
-7.37
-7.06
-6.63
-6.22
-5.94
-5.84
-5.88
-5.99
-6.07
-6.01
-5.79
-5.40
-4.89
-4.30
-3.71
-3.13
-2.60
-2.15
-1.83
-1.70
-1.84
-2.26
-2.91
-3.69
-4.45
-5.08
-5.52
-5.80
-5.95
-6.05
-6.11
-6.17
-6.33
-6.66
-7.29
-8.16
-9.14
-9.97
-10.41
-10.31
-9.68
-8.64
-7.36
-6.02
-4.72
-3.56
-2.57
-1.84
-1.40
-1.29
-1.50
-1.96
-2.56
-3.18
-3.69
-4.00
-4.14
-4.17
-4.22
-4.39
-4.69
-5.07
-5.46
-5.82
-6.14
-6.46
-6.74
-6.86
-6.69
-6.11
-5.12
-3.88
-2.61
-1.53
-0.77
-0.30
-0.04
0.11
0.20
0.22
0.13
-0.11
-0.50
-1.03
-1.63
-2.24
-2.85
-3.40
-3.90
-4.30
-4.58
-4.71
-4.68
-4.53
-4.33
-4.12
-3.87
-3.47
-2.80
-1.75
-0.36
1.18
2.60
3.64
4.17
4.25
4.02
3.64
3.19
2.65
1.93
0.99
-0.16
-1.42
-2.70
-3.92
-5.05
-6.13
-7.14
-8.07
-8.86
-9.45
-9.78
-9.88
-9.83
-9.69
-9.45
-9.05
-8.35
-7.29
-5.89
-4.35
-2.88
-1.68
-0.80
-0.19
0.26
0.63
0.91
1.06
1.04
0.88
0.63
0.35
-0.00
-0.48
-1.12
-1.87
-2.63
-3.26
-3.74
-4.11
-4.47
-4.87
-5.22
-5.36
-5.13
-4.44
-3.35
-2.02
-0.65
0.58
1.57
2.32
2.87
3.29
3.62
3.84
3.82
3.45
2.65
1.47
0.13
-1.10
-1.97
-2.38
-2.42
-2.29
-2.24
-2.46
-3.02
-3.87
-4.85
-5.74
-6.34
-6.53
-6.26
-5.56
-4.47
-3.04
-1.34
0.49
2.25
3.65
4.49
4.74
4.59
4.33
4.27
4.51
4.96
5.40
5.62
5.57
5.35
5.15
5.12
5.28
5.56
5.87
6.18
6.56
7.15
8.02
9.13
10.32
11.48
12.58
13.74
15.07
16.61
18.14
19.32
19.80
19.36
18.01
15.87
13.09
9.72
5.80
1.44
-3.10
-7.45
-11.28
-14.47
-17.19
-19.79
-22.68
-26.06
-29.95
-34.16
-38.41
-42.41
-45.90
-48.61
-50.33
-50.88
-50.18
-48.29
-45.43
-41.91
-38.12
-34.37
-30.84
-27.59
-24.55
-21.60
-18.67
-15.76
-12.96
-10.39
-8.15
-6.30
-4.86
-3.81
-3.12
-2.72
-2.55
-2.48
-2.44
-2.35
-2.18
-1.88
-1.35
-0.42
1.06
3.14
5.74
8.58
11.30
13.59
15.23
16.23
16.77
17.13
17.61
18.42
19.58
20.88
22.00
22.57
22.35
21.31
19.61
17.57
15.49
13.58
11.88
10.28
8.60
6.67
4.40
1.88
-0.66
-2.86
-4.33
-4.76
-4.07
-2.36
0.03
2.69
5.21
7.27
8.66
9.32
9.24
8.53
7.29
5.67
3.88
2.10
0.49
-0.96
-2.35
-3.86
-5.57
-7.41
-9.22
-10.88
-12.51
-14.41
-16.86
-19.72
-22.26
-23.19
-21.21
-15.62
-6.75
4.04
14.83
23.84
30.01
33.26
34.29
34.13
33.70
33.47
33.42
33.18
32.31
30.52
27.80
24.38
20.69
17.22
14.64
13.86
15.92
21.63
30.99
42.70
54.26
62.67
65.48
61.78
52.38
39.45
25.47
12.43
1.37
-7.51
-14.51
-20.09
-24.75
-29.05
-33.49
-38.45
-43.91
-49.44
-54.25
-57.51
-58.56
-57.00
-52.74
-46.03
-37.43
-27.88
-18.60
-10.82
-5.52
-3.02
-2.90
-4.14
-5.56
-6.27
-6.00
-5.14
-4.42
-4.50
-5.69
-7.74
-10.03
-11.78
-12.35
-11.41
-8.98
-5.38
-0.97
3.98
9.36
15.14
21.19
27.18
32.50
36.60
39.16
40.41
41.02
41.75
43.11
44.99
46.76
47.55
46.68
43.99
39.98
35.60
31.91
29.61
28.84
29.08
29.45
29.06
27.35
24.30
20.44
16.59
13.56
11.75
10.93
10.24
8.39
4.19
-2.98
-12.77
-23.93
-34.59
-42.91
-47.62
-48.35
-45.56
-40.23
-33.41
-25.87
-18.08
-10.30
-2.80
4.03
9.73
13.98
16.83
18.73
20.34
22.18
24.33
26.39
27.70
27.67
26.05
22.95
18.61
13.26
7.01
-0.03
-7.56
-14.97
-21.51
-26.52
-29.75
-31.38
-31.91
-31.81
-31.31
-30.35
-28.70
-26.25
-23.11
-19.66
-16.32
-13.42
-11.03
-9.06
-7.36
-5.88
-4.75
-4.26
-4.75
-6.52
-9.70
-14.19
-19.61
-25.35
-30.55
-34.25
-35.56
-33.97
-29.57
-23.09
-15.68
-8.57
-2.63
1.86
5.14
7.72
10.05
12.40
14.77
17.10
19.27
21.20
22.73
23.69
24.06
24.14
24.54
26.00
28.99
33.43
38.65
43.62
47.34
49.10
48.53
45.49
40.01
32.33
23.09
13.33
4.35
-2.81
-7.78
-11.03
-13.59
-16.46
-20.03
-23.91
-27.13
-28.75
-28.36
-26.23
-23.10
-19.79
-16.80
-14.25
-12.00
-9.85
-7.74
-5.75
-4.01
-2.57
-1.37
-0.27
0.83
1.91
2.85
3.57
4.11
4.80
6.19
8.74
12.59
17.25
21.74
24.94
26.12
25.16
22.61
19.20
15.37
11.11
6.01
-0.20
-7.25
-14.24
-19.95
-23.48
-24.61
-23.94
-22.48
-21.21
-20.63
-20.74
-21.19
-21.55
-21.54
-21.03
-19.93
-18.18
-15.65
-12.32
-8.34
-4.08
-0.08
3.13
5.11
5.72
5.09
3.55
1.55
-0.52
-2.40
-4.03
-5.47
-6.89
-8.40
-10.04
-11.68
-13.05
-13.84
-13.77
-12.75
-10.98
-8.91
-7.11
-6.03
-5.79
-6.18
-6.69
-6.79
-6.11
-4.60
-2.48
-0.12
2.16
4.09
5.47
6.15
6.01
5.06
3.49
1.73
0.33
-0.27
0.12
1.32
2.96
4.66
6.17
7.49
8.70
9.92
11.14
12.25
13.07
13.44
13.30
12.70
11.82
10.89
10.17
9.83
9.90
10.25
10.66
10.88
10.81
10.45
9.91
9.33
8.80
8.38
8.07
7.92
7.96
8.23
8.72
9.36
10.02
10.55
10.80
10.59
9.74
8.14
5.77
2.85
-0.25
-3.13
-5.46
-7.17
-8.39
-9.36
-10.24
-11.08
-11.81
-12.34
-12.68
-12.88
-13.05
-13.17
-13.15
-12.84
-12.16
-11.22
-10.19
-9.27
-8.50
-7.76
-6.81
-5.45
-3.68
-1.72
0.08
1.40
2.07
2.10
1.69
1.05
0.36
-0.28
-0.85
-1.35
-1.80
-2.18
-2.47
-2.63
-2.65
-2.54
-2.29
-1.95
-1.55
-1.16
-0.83
-0.58
-0.37
-0.18
0.04
0.26
0.44
0.50
0.44
0.28
0.17
0.25
0.57
1.07
1.58
1.89
1.89
1.63
1.26
0.96
0.79
0.66
0.41
-0.13
-0.95
-1.89
-2.66
-2.99
-2.73
-1.96
-0.90
0.16
1.04
1.75
2.45
3.34
4.48
5.71
6.70
7.04
6.41
4.70
1.95
-1.64
-5.79
-10.13
-14.19
-17.39
-19.22
-19.32
-17.68
-14.62
-10.70
-6.56
-2.79
0.24
2.33
3.46
3.76
3.42
2.69
1.80
0.96
0.32
0.00
0.06
0.40
0.84
1.02
0.63
-0.49
-2.22
-4.19
-5.88
-6.91
-7.15
-6.73
-5.90
-4.78
-3.24
-0.95
2.43
7.01
12.43
17.94
22.58
25.53
26.43
25.39
22.98
19.90
16.82
14.19
12.22
10.90
9.98
9.01
7.42
4.74
0.85
-3.93
-8.88
-13.15
-16.08
-17.50
-17.72
-17.37
-17.10
-17.24
-17.67
-17.83
-16.95
-14.48
-10.34
-5.07
0.37
4.98
8.09
9.58
9.76
9.10
7.94
6.37
4.37
2.03
-0.31
-2.12
-2.85
-2.26
-0.58
1.55
3.26
3.84
3.01
1.03
-1.37
-3.30
-4.02
-3.11
-0.59
3.21
7.70
12.16
15.78
17.78
17.62
15.16
10.83
5.49
0.14
-4.45
-8.01
-10.76
-13.12
-15.45
-17.74
-19.64
-20.75
-20.75
-19.67
-17.71
-15.11
-12.03
-8.48
-4.53
-0.41
3.37
6.19
7.55
7.32
5.80
3.62
1.51
-0.02
-0.86
-1.26
-1.69
-2.56
-3.98
-5.75
-7.45
-8.61
-8.95
-8.47
-7.41
-6.16
-5.03
-4.15
-3.40
-2.49
-1.11
0.96
3.70
6.94
10.40
13.76
16.76
19.16
20.78
21.49
21.27
20.25
18.63
16.58
14.15
11.20
7.58
3.22
-1.63
-6.46
-10.60
-13.52
-14.95
-14.99
-13.92
-12.04
-9.55
-6.54
-3.10
0.61
4.30
7.59
10.20
11.95
12.83
13.01
12.72
12.25
11.86
11.73
11.92
12.30
12.63
12.60
11.95
10.59
8.60
6.15
3.49
0.84
-1.57
-3.55
-4.91
-5.48
-5.15
-3.93
-1.98
0.38
2.75
4.75
6.08
6.56
6.19
5.16
3.83
2.68
2.16
2.46
3.35
4.08
3.71
1.47
-2.83
-8.62
-14.78
-20.08
-23.64
-25.21
-25.15
-24.09
-22.65
-21.20
-19.81
-18.42
-16.97
-15.49
-14.14
-13.09
-12.44
-12.13
-11.95
-11.70
-11.24
-10.64
-10.06
-9.66
-9.41
-9.04
-8.21
-6.75
-4.75
-2.56
-0.59
0.99
2.31
3.79
5.82
8.55
11.79
15.12
18.08
20.38
21.96
22.92
23.39
23.42
23.00
22.14
20.88
19.37
17.79
16.31
15.00
13.86
12.72
11.41
9.79
7.84
5.68
3.48
1.49
-0.12
-1.21
-1.66
-1.32
-0.07
2.14
5.16
8.66
12.16
15.19
17.40
18.63
18.90
18.33
17.06
15.22
12.95
10.41
7.78
5.25
2.93
0.86
-0.94
-2.47
-3.68
-4.48
-4.83
-4.78
-4.48
-4.11
-3.80
-3.47
-2.92
-1.92
-0.40
1.44
3.16
4.24
4.24
2.94
0.32
-3.45
-8.12
-13.28
-18.39
-22.71
-25.47
-26.05
-24.24
-20.37
-15.31
-10.23
-6.25
-4.11
-3.94
-5.36
-7.57
-9.74
-11.23
-11.78
-11.43
-10.45
-9.14
-7.73
-6.32
-4.90
-3.36
-1.52
0.83
3.78
7.17
10.55
13.25
14.61
14.19
11.97
8.32
3.81
-0.97
-5.57
-9.74
-13.37
-16.40
-18.79
-20.54
-21.64
-22.10
-21.96
-21.28
-20.12
-18.54
-16.62
-14.41
-12.00
-9.49
-7.08
-4.97
-3.38
-2.41
-2.03
-2.11
-2.46
-2.88
-3.21
-3.31
-3.07
-2.40
-1.30
0.20
1.95
3.82
5.61
7.18
8.47
9.48
10.31
11.10
11.96
12.90
13.79
14.33
14.24
13.33
11.61
9.32
6.80
4.42
2.36
0.64
-0.88
-2.37
-3.88
-5.30
-6.35
-6.72
-6.17
-4.67
-2.38
0.29
2.88
4.98
6.30
6.78
6.49
5.62
4.35
2.84
1.22
-0.46
-2.12
-3.72
-5.21
-6.52
-7.57
-8.23
-8.36
-7.89
-6.81
-5.27
-3.46
-1.54
0.36
2.19
3.86
5.28
6.30
6.82
6.86
6.58
6.23
6.05
6.13
6.43
6.77
7.02
7.14
7.18
7.20
7.24
7.27
7.27
7.31
7.51
7.98
8.69
9.45
9.94
9.89
9.22
8.07
6.69
5.33
4.06
2.86
1.60
0.25
-1.18
-2.62
-3.98
-5.22
-6.28
-7.08
-7.50
-7.47
-7.01
-6.28
-5.55
-5.07
-4.93
-5.01
-5.03
-4.63
-3.57
-1.90
0.02
1.65
2.52
2.41
1.46
0.11
-1.17
-2.03
-2.36
-2.26
-1.82
-1.10
-0.06
1.34
3.01
4.70
6.02
6.64
6.39
5.34
3.78
2.10
0.67
-0.32
-0.82
-0.93
-0.74
-0.28
0.47
1.55
2.85
4.16
5.16
5.62
5.49
4.95
4.33
3.95
3.98
4.38
4.95
5.42
5.61
5.44
4.92
4.14
3.16
2.05
0.82
-0.52
-1.93
-3.37
-4.75
-5.93
-6.73
-7.03
-6.74
-5.90
-4.72
-3.48
-2.48
-1.93
-1.85
-2.09
-2.43
-2.64
-2.62
-2.41
-2.15
-2.03
-2.20
-2.68
-3.36
-3.99
-4.28
-3.92
-2.74
-0.73
1.95
5.00
8.08
10.86
13.09
14.61
15.39
15.49
15.06
14.30
13.38
12.36
11.17
9.65
7.66
5.17
2.33
-0.58
-3.26
-5.48
-7.24
-8.61
-9.72
-10.58
-11.03
-10.85
-9.83
-7.89
-5.12
-1.71
2.11
6.09
9.91
13.15
15.32
15.97
14.94
12.48
9.29
6.35
4.58
4.58
6.50
10.00
14.52
19.44
24.23
28.47
31.76
33.69
33.83
31.94
28.21
23.30
18.30
14.30
12.03
11.53
12.24
13.30
13.95
13.81
12.91
11.52
9.80
7.83
5.55
3.03
0.52
-1.60
-2.97
-3.47
-3.28
-2.78
-2.42
-2.53
-3.20
-4.29
-5.52
-6.52
-6.97
-6.66
-5.59
-3.92
-1.92
0.11
1.98
3.54
4.73
5.48
5.73
5.45
4.71
3.66
2.52
1.49
0.63
-0.13
-0.96
-2.00
-3.26
-4.63
-5.92
-6.96
-7.73
-8.32
-8.93
-9.69
-10.59
-11.39
-11.78
-11.53
-10.65
-9.44
-8.40
-7.93
-8.19
-9.01
-10.04
-10.91
-11.46
-11.67
-11.65
-11.50
-11.24
-10.90
-10.57
-10.35
-10.39
-10.74
-11.31
-11.93
-12.39
-12.61
-12.57
-12.39
-12.17
-12.00
-11.94
-12.02
-12.31
-12.82
-13.56
-14.49
-15.52
-16.60
-17.69
-18.81
-19.99
-21.26
-22.56
-23.76
-24.63
-24.96
-24.65
-23.79
-22.57
-21.24
-20.01
-18.96
-18.06
-17.27
-16.55
-15.87
-15.24
-14.64
-14.06
-13.53
-13.11
-12.94
-13.12
-13.70
-14.65
-15.82
-17.05
-18.15
-18.97
-19.43
-19.51
-19.19
-18.47
-17.26
-15.42
-12.78
-9.26
-4.94
-0.13
4.73
9.17
12.85
15.68
17.81
19.51
21.02
22.45
23.82
25.12
26.41
27.84
29.60
31.75
34.12
36.37
38.10
39.10
39.43
39.47
39.73
40.61
42.23
44.44
46.88
49.13
50.81
51.59
51.20
49.46
46.30
41.87
36.49
30.60
24.64
18.92
13.61
8.75
4.30
0.18
-3.68
-7.39
-10.95
-14.27
-17.16
-19.32
-20.55
-20.83
-20.34
-19.32
-17.99
-16.43
-14.59
-12.43
-10.06
-7.71
-5.69
-4.24
-3.45
-3.22
-3.39
-3.81
-4.53
-5.66
-7.36
-9.68
-12.44
-15.33
-17.93
-19.94
-21.24
-21.93
-22.25
-22.40
-22.46
-22.42
-22.20
-21.71
-20.92
-19.75
-18.09
-15.84
-12.97
-9.62
-6.09
-2.73
0.22
2.68
4.71
6.32
7.40
7.64
6.72
4.47
1.08
-2.99
-7.16
-10.98
-14.22
-16.90
-19.13
-21.04
-22.69
-24.13
-25.37
-26.40
-27.15
-27.43
-27.03
-25.77
-23.64
-20.79
-17.51
-14.07
-10.59
-7.11
-3.59
0.01
3.62
7.11
10.32
13.04
15.10
16.35
16.69
16.12
14.79
12.97
11.04
9.38
8.22
7.60
7.31
6.94
6.13
4.63
2.48
-0.07
-2.67
-5.02
-6.94
-8.35
-9.23
-9.52
-9.20
-8.36
-7.21
-6.09
-5.31
-5.03
-5.21
-5.69
-6.26
-6.81
-7.36
-8.03
-8.95
-10.24
-11.93
-13.91
-15.96
-17.75
-18.92
-19.18
-18.44
-16.86
-14.82
-12.82
-11.27
-10.44
-10.37
-10.94
-11.97
-13.23
-14.51
-15.59
-16.29
-16.49
-16.19
-15.54
-14.81
-14.33
-14.38
-15.09
-16.31
-17.65
-18.55
-18.46
-17.01
-14.15
-10.13
-5.50
-0.88
3.15
6.17
8.00
8.66
8.31
7.16
5.47
3.50
1.53
-0.22
-1.64
-2.74
-3.73
-4.94
-6.69
-9.21
-12.44
-16.06
-19.52
-22.22
-23.64
-23.48
-21.74
-18.70
-14.82
-10.62
-6.55
-2.92
0.13
2.57
4.45
5.81
6.70
7.15
7.23
6.99
6.52
5.93
5.33
4.80
4.40
4.05
3.63
2.95
1.97
0.80
-0.27
-0.89
-0.78
0.17
1.85
4.08
6.66
9.42
12.24
14.93
17.20
18.72
19.23
18.69
17.30
15.44
13.57
12.02
10.90
10.15
9.53
8.86
7.99
6.86
5.45
3.79
1.94
0.08
-1.53
-2.52
-2.56
-1.52
0.51
3.18
6.00
8.49
10.33
11.36
11.54
10.95
9.71
7.99
6.03
4.15
2.63
1.65
1.22
1.10
0.93
0.38
-0.76
-2.44
-4.45
-6.46
-8.19
-9.48
-10.29
-10.59
-10.39
-9.57
-8.04
-5.78
-2.89
0.31
3.38
5.87
7.50
8.24
8.27
7.92
7.47
7.01
6.47
5.63
4.33
2.59
0.59
-1.32
-2.83
-3.69
-3.87
-3.43
-2.46
-1.04
0.81
3.00
5.33
7.44
8.96
9.63
9.53
9.07
8.83
9.25
10.40
11.98
13.50
14.62
15.37
16.05
16.98
18.19
19.31
19.86
19.56
18.57
17.47
16.93
17.35
18.69
20.51
22.32
23.81
24.90
25.72
26.31
26.53
26.08
24.72
22.42
19.46
16.33
13.54
11.39
9.81
8.46
6.88
4.73
1.96
-1.14
-4.07
-6.29
-7.45
-7.41
-6.36
-4.70
-3.02
-1.93
-1.90
-3.09
-5.28
-7.85
-10.08
-11.39
-11.65
-11.14
-10.41
-9.94
-9.90
-10.09
-10.11
-9.62
-8.61
-7.42
-6.57
-6.51
-7.33
-8.69
-9.96
-10.46
-9.80
-8.05
-5.76
-3.70
-2.56
-2.73
-4.06
-6.01
-7.74
-8.32
-6.89
-2.93
3.46
11.38
19.12
24.64
26.27
23.46
17.12
9.29
2.34
-1.99
-3.15
-1.73
1.15
4.53
7.97
11.48
15.16
18.81
21.98
24.10
24.88
24.43
23.26
21.99
21.12
20.80
20.88
20.95
20.57
19.46
17.54
15.03
12.34
9.89
7.92
6.37
5.00
3.45
1.55
-0.57
-2.50
-3.68
-3.72
-2.56
-0.59
1.50
2.89
3.00
1.66
-0.84
-3.81
-6.49
-8.29
-9.06
-9.00
-8.61
-8.38
-8.65
-9.49
-10.76
-12.24
-13.68
-14.93
-15.90
-16.52
-16.75
-16.52
-15.77
-14.48
-12.67
-10.47
-8.07
-5.74
-3.75
-2.28
-1.38
-0.92
-0.71
-0.55
-0.34
-0.10
0.04
-0.11
-0.67
-1.68
-2.99
-4.34
-5.37
-5.77
-5.37
-4.22
-2.53
-0.62
1.22
2.82
4.17
5.38
6.56
7.84
9.23
10.65
11.85
12.54
12.39
11.24
9.19
6.59
3.98
1.80
0.30
-0.60
-1.20
-1.82
-2.68
-3.81
-5.06
-6.24
-7.17
-7.75
-7.96
-7.81
-7.28
-6.37
-5.04
-3.33
-1.39
0.54
2.17
3.31
3.93
4.25
4.59
5.24
6.30
7.61
8.88
9.78
10.12
9.86
9.07
7.86
6.35
4.69
3.04
1.55
0.24
-0.96
-2.23
-3.66
-5.19
-6.59
-7.56
-7.94
-7.81
-7.43
-7.09
-6.88
-6.67
-6.21
-5.31
-3.97
-2.39
-0.82
0.54
1.66
2.61
3.49
4.37
5.27
6.23
7.29
8.55
10.01
11.57
12.97
13.94
14.27
13.99
13.30
12.50
11.79
11.17
10.43
9.30
7.63
5.49
3.14
0.87
-1.15
-2.96
-4.78
-6.79
-9.00
-11.21
-13.03
-14.11
-14.31
-13.73
-12.69
-11.56
-10.66
-10.13
-10.01
-10.22
-10.59
-10.91
-10.91
-10.34
-9.08
-7.22
-5.00
-2.80
-0.98
0.27
0.93
1.16
1.10
0.85
0.36
-0.43
-1.52
-2.75
-3.80
-4.41
-4.45
-4.05
-3.58
-3.40
-3.71
-4.45
-5.31
-5.95
-6.20
-6.07
-5.76
-5.40
-5.02
-4.49
-3.65
-2.45
-1.02
0.35
1.38
1.89
1.87
1.48
0.96
0.49
0.13
-0.18
-0.58
-1.19
-2.07
-3.23
-4.65
-6.29
-8.13
-10.09
-12.01
-13.69
-14.90
-15.48
-15.38
-14.62
-13.27
-11.36
-8.94
-6.10
-3.11
-0.33
1.83
3.13
3.57
3.42
3.02
2.66
2.44
2.29
2.05
1.64
1.08
0.51
0.07
-0.19
-0.32
-0.44
-0.73
-1.22
-1.87
-2.55
-3.05
-3.17
-2.81
-1.91
-0.57
1.03
2.58
3.72
4.14
3.66
2.38
0.62
-1.15
-2.47
-3.10
-3.03
-2.43
-1.60
-0.76
-0.07
0.39
0.56
0.40
-0.14
-1.05
-2.17
-3.28
-4.08
-4.36
-3.98
-2.96
-1.41
0.41
2.23
3.78
4.86
5.42
5.60
5.64
5.80
6.19
6.72
7.14
7.15
6.62
5.60
4.36
3.17
2.26
1.64
1.23
0.92
0.66
0.48
0.48
0.77
1.39
2.34
3.56
4.93
6.33
7.69
9.00
10.36
11.95
13.90
16.17
18.57
20.80
22.62
23.91
24.70
25.11
25.28
25.23
24.99
24.65
24.39
24.36
24.57
24.73
24.28
22.59
19.28
14.41
8.48
2.25
-3.48
-8.16
-11.51
-13.51
-14.33
-14.21
-13.48
-12.42
-11.28
-10.15
-9.07
-8.01
-6.99
-6.18
-5.76
-5.88
-6.53
-7.59
-8.88
-10.31
-11.91
-13.74
-15.81
-17.96
-19.87
-21.22
-21.78
-21.55
-20.69
-19.44
-18.00
-16.42
-14.64
-12.61
-10.32
-7.92
-5.62
-3.63
-2.06
-0.93
-0.13
0.48
1.10
1.90
2.95
4.23
5.58
6.68
7.13
6.57
4.77
1.73
-2.23
-6.51
-10.37
-13.08
-14.22
-13.77
-12.15
-9.97
-7.93
-6.46
-5.76
-5.73
-6.15
-6.79
-7.47
-8.04
-8.43
-8.58
-8.51
-8.26
-7.89
-7.47
-7.01
-6.48
-5.87
-5.20
-4.60
-4.21
-4.16
-4.48
-4.98
-5.39
-5.34
-4.58
-3.08
-1.01
1.30
3.55
5.54
7.23
8.70
10.04
11.31
12.46
13.36
13.89
14.00
13.74
13.31
12.93
12.77
12.87
13.12
13.31
13.18
12.51
11.17
9.14
6.63
4.04
1.92
0.77
0.79
1.80
3.23
4.42
4.91
4.63
3.92
3.27
3.06
3.35
3.92
4.38
4.42
3.94
3.07
2.14
1.52
1.58
2.53
4.34
6.76
9.33
11.58
13.24
14.34
15.22
16.29
17.78
19.53
21.02
21.59
20.72
18.31
14.65
10.27
5.69
1.26
-2.89
-6.72
-10.15
-13.04
-15.18
-16.43
-16.83
-16.56
-15.96
-15.41
-15.21
-15.56
-16.45
-17.77
-19.30
-20.80
-22.04
-22.82
-22.98
-22.44
-21.20
-19.40
-17.29
-15.16
-13.18
-11.42
-9.76
-8.08
-6.31
-4.56
-3.05
-2.01
-1.52
-1.44
-1.46
-1.23
-0.52
0.70
2.24
3.85
5.28
6.35
7.04
7.42
7.64
7.91
8.44
9.37
10.69
12.19
13.53
14.32
14.29
13.44
12.00
10.38
8.98
8.06
7.63
7.52
7.42
7.01
6.10
4.64
2.81
0.87
-0.88
-2.29
-3.36
-4.28
-5.31
-6.60
-8.16
-9.76
-10.98
-11.36
-10.56
-8.57
-5.71
-2.56
0.25
2.35
3.71
4.64
5.51
6.47
7.39
7.95
7.89
7.29
6.61
6.45
7.22
8.90
10.96
12.60
13.05
11.88
9.14
5.22
0.71
-3.79
-7.77
-10.84
-12.71
-13.18
-12.23
-10.06
-7.01
-3.59
-0.29
2.51
4.62
5.99
6.75
7.05
7.06
6.93
6.71
6.43
6.10
5.74
5.44
5.33
5.46
5.79
6.17
6.39
6.24
5.64
4.69
3.61
2.69
2.15
2.01
2.09
2.07
1.53
0.17
-2.10
-5.16
-8.73
-12.50
-16.25
-19.83
-23.15
-26.06
-28.36
-29.83
-30.30
-29.79
-28.46
-26.58
-24.46
-22.35
-20.45
-18.84
-17.51
-16.29
-14.98
-13.34
-11.20
-8.49
-5.34
-1.94
1.44
4.58
7.28
9.49
11.22
12.60
13.84
15.11
16.48
17.89
19.17
20.11
20.60
20.64
20.32
19.70
18.78
17.49
15.79
13.72
11.44
9.20
7.23
5.75
4.87
4.66
5.12
6.15
7.48
8.65
9.13
8.45
6.45
3.29
-0.51
-4.35
-7.70
-10.29
-12.13
-13.42
-14.40
-15.23
-16.01
-16.77
-17.56
-18.44
-19.34
-20.07
-20.37
-19.99
-18.86
-17.16
-15.27
-13.54
-12.17
-11.12
-10.23
-9.28
-8.21
-7.03
-5.81
-4.60
-3.37
-2.10
-0.84
0.34
1.31
2.03
2.51
2.84
3.12
3.45
3.85
4.35
4.88
5.39
5.79
5.96
5.82
5.34
4.57
3.66
2.83
2.32
2.30
2.77
3.61
4.58
5.48
6.18
6.67
7.00
7.20
7.27
7.18
6.95
6.67
6.48
6.45
6.56
6.65
6.53
6.10
5.41
4.72
4.32
4.44
5.08
6.02
6.93
7.47
7.46
6.95
6.16
5.37
4.85
4.73
5.03
5.71
6.64
7.66
8.56
9.10
9.09
8.49
7.40
6.14
5.02
4.30
4.02
4.02
4.03
3.81
3.22
2.28
1.13
-0.09
-1.27
-2.36
-3.28
-3.96
-4.30
-4.24
-3.91
-3.56
-3.54
-4.09
-5.23
-6.75
-8.22
-9.25
-9.53
-9.02
-7.80
-6.06
-4.02
-1.86
0.17
1.86
2.99
3.54
3.63
3.59
3.73
4.25
5.06
5.89
6.40
6.36
5.80
4.93
4.06
3.38
2.92
2.56
2.08
1.32
0.25
-1.03
-2.29
-3.27
-3.73
-3.59
-2.89
-1.81
-0.57
0.62
1.60
2.26
2.51
2.33
1.74
0.92
0.14
-0.33
-0.36
-0.06
0.32
0.50
0.36
-0.02
-0.42
-0.60
-0.50
-0.20
0.04
-0.03
-0.56
-1.55
-2.92
-4.53
-6.16
-7.54
-8.32
-8.17
-6.92
-4.72
-1.99
0.66
2.65
3.68
3.75
3.14
2.15
1.02
-0.19
-1.45
-2.67
-3.58
-3.84
-3.22
-1.79
0.09
1.91
3.29
4.17
4.80
5.52
6.52
7.64
8.56
8.96
8.86
8.57
8.53
8.99
9.82
10.60
10.82
10.25
8.93
7.15
5.20
3.15
0.95
-1.45
-3.96
-6.31
-8.13
-9.23
-9.70
-9.97
-10.53
-11.72
-13.49
-15.39
-16.73
-16.95
-15.84
-13.70
-11.10
-8.68
-6.78
-5.41
-4.31
-3.21
-2.00
-0.78
0.29
1.11
1.70
2.14
2.39
2.31
1.69
0.43
-1.37
-3.39
-5.21
-6.49
-7.05
-6.92
-6.20
-5.06
-3.60
-1.97
-0.30
1.23
2.41
3.06
3.05
2.44
1.40
0.30
-0.44
-0.49
0.25
1.58
3.10
4.33
4.89
4.61
3.51
1.73
-0.56
-3.18
-5.95
-8.62
-10.96
-12.74
-13.86
-14.36
-14.36
-14.02
-13.36
-12.36
-10.94
-9.10
-7.02
-5.03
-3.42
-2.34
-1.72
-1.30
-0.79
0.05
1.28
2.83
4.56
6.28
7.82
8.98
9.61
9.65
9.13
8.16
6.84
5.29
3.64
2.18
1.28
1.31
2.45
4.49
6.92
9.08
10.49
11.05
11.06
10.97
11.14
11.64
12.17
12.26
11.40
9.29
5.84
1.30
-3.90
-9.17
-13.88
-17.53
-19.83
-20.77
-20.53
-19.42
-17.58
-14.93
-11.15
-5.90
0.91
8.90
17.25
24.93
31.02
35.02
36.83
36.68
34.88
31.70
27.39
22.29
16.88
11.80
7.61
4.71
3.13
2.63
2.76
2.99
2.89
2.15
0.59
-1.82
-5.06
-9.04
-13.65
-18.72
-23.94
-28.95
-33.27
-36.58
-38.82
-40.26
-41.41
-42.65
-44.04
-45.09
-45.05
-43.23
-39.38
-33.87
-27.47
-21.03
-15.09
-9.71
-4.67
0.28
5.03
9.04
11.56
12.06
10.65
8.17
5.94
5.17
6.36
9.14
12.48
15.19
16.50
16.21
14.54
11.73
7.91
3.12
-2.39
-8.06
-13.10
-16.85
-19.05
-19.87
-19.75
-19.07
-18.06
-16.83
-15.47
-14.14
-12.93
-11.74
-10.31
-8.31
-5.58
-2.36
0.81
3.31
4.71
4.94
4.28
3.21
2.21
1.57
1.40
1.62
1.99
2.24
2.17
1.74
1.07
0.37
-0.17
-0.51
-0.76
-1.05
-1.46
-1.85
-1.96
-1.49
-0.27
1.60
3.82
5.97
7.72
8.94
9.68
10.11
10.37
10.49
10.43
10.18
9.82
9.50
9.41
9.60
9.95
10.19
10.05
9.37
8.15
6.52
4.69
2.88
1.31
0.23
-0.14
0.32
1.52
3.17
4.88
6.30
7.26
7.81
8.15
8.46
8.82
9.17
9.35
9.23
8.77
8.03
7.13
6.23
5.43
4.80
4.39
4.18
4.11
4.05
3.86
3.40
2.64
1.63
0.56
-0.32
-0.83
-0.88
-0.52
0.17
1.08
2.16
3.33
4.51
5.56
6.31
6.64
6.49
5.89
4.89
3.55
1.95
0.22
-1.42
-2.71
-3.43
-3.55
-3.27
-3.02
-3.20
-4.08
-5.60
-7.50
-9.38
-10.93
-12.00
-12.58
-12.75
-12.55
-11.95
-10.93
-9.54
-7.91
-6.27
-4.81
-3.58
-2.51
-1.45
-0.30
0.87
1.84
2.33
2.16
1.39
0.27
-0.87
-1.77
-2.35
-2.69
-2.88
-3.04
-3.19
-3.37
-3.71
-4.34
-5.36
-6.68
-8.00
-8.87
-8.96
-8.17
-6.70
-4.93
-3.21
-1.73
-0.48
0.62
1.64
2.48
2.94
2.84
2.06
0.66
-1.14
-3.08
-4.89
-6.40
-7.59
-8.52
-9.35
-10.22
-11.28
-12.61
-14.24
-16.16
-18.26
-20.43
-22.47
-24.18
-25.37
-25.87
-25.64
-24.69
-23.12
-21.08
-18.77
-16.37
-14.03
-11.79
-9.58
-7.19
-4.26
-0.40
4.77
11.38
19.18
27.53
35.49
42.13
46.73
48.97
48.99
47.32
44.77
42.29
40.80
40.98
43.08
46.80
51.39
55.90
59.52
61.80
62.66
62.26
60.76
58.19
54.45
49.48
43.39
36.47
29.25
22.30
16.10
10.91
6.76
3.54
1.11
-0.53
-1.26
-0.99
0.14
1.60
2.42
1.50
-1.96
-8.09
-16.16
-24.83
-32.55
-38.10
-40.90
-41.12
-39.40
-36.57
-33.38
-30.35
-27.66
-25.26
-22.95
-20.53
-17.99
-15.52
-13.60
-12.73
-13.24
-15.08
-17.80
-20.74
-23.29
-25.15
-26.33
-26.98
-27.20
-26.86
-25.74
-23.74
-21.04
-18.16
-15.69
-14.04
-13.15
-12.55
-11.58
-9.70
-6.70
-2.78
1.60
5.92
9.73
12.66
14.38
14.65
13.33
10.56
6.79
2.69
-0.97
-3.65
-5.16
-5.66
-5.55
-5.22
-4.87
-4.50
-3.96
-3.04
-1.66
0.19
2.39
4.78
7.17
9.35
11.18
12.59
13.61
14.38
15.07
15.78
16.54
17.27
17.87
18.27
18.44
18.39
18.10
17.51
16.58
15.35
13.95
12.62
11.54
10.81
10.30
9.79
9.03
7.83
6.16
4.08
1.69
-0.87
-3.48
-5.96
-8.12
-9.78
-10.87
-11.51
-11.93
-12.34
-12.79
-13.16
-13.23
-12.84
-12.03
-11.03
-10.16
-9.65
-9.54
-9.68
-9.85
-9.87
-9.66
-9.28
-8.81
-8.31
-7.83
-7.39
-7.00
-6.70
-6.52
-6.53
-6.75
-7.20
-7.87
-8.70
-9.53
-10.11
-10.09
-9.19
-7.27
-4.42
-1.00
2.51
5.72
8.45
10.81
12.98
15.13
17.20
19.03
20.46
21.47
22.18
22.77
23.30
23.68
23.78
23.50
22.89
22.15
21.45
20.77
19.84
18.24
15.61
11.84
7.20
2.17
-2.70
-7.11
-11.04
-14.65
-18.07
-21.29
-24.07
-26.16
-27.35
-27.58
-26.97
-25.69
-24.01
-22.18
-20.42
-18.81
-17.17
-15.10
-12.10
-7.91
-2.62
3.27
9.05
14.09
17.96
20.41
21.26
20.43
17.92
14.03
9.36
4.70
0.79
-1.89
-3.25
-3.60
-3.43
-3.24
-3.33
-3.74
-4.20
-4.25
-3.47
-1.64
1.10
4.38
7.66
10.47
12.51
13.68
14.03
13.68
12.84
11.72
10.61
9.77
9.40
9.58
10.22
11.10
11.91
12.42
12.45
12.05
11.40
10.78
10.40
10.39
10.73
11.37
12.25
13.32
14.56
15.85
16.97
17.64
17.59
16.67
14.86
12.25
8.91
4.93
0.35
-4.64
-9.73
-14.54
-18.66
-21.87
-24.15
-25.65
-26.56
-27.00
-27.00
-26.51
-25.59
-24.36
-23.13
-22.19
-21.74
-21.76
-22.01
-22.15
-21.86
-20.94
-19.32
-17.02
-14.10
-10.58
-6.59
-2.36
1.63
4.85
6.84
7.46
6.92
5.74
4.50
3.61
3.20
3.10
3.02
2.64
1.74
0.21
-1.97
-4.64
-7.55
-10.36
-12.77
-14.63
-15.98
-17.03
-17.99
-18.97
-19.90
-20.63
-20.94
-20.74
-20.05
-19.00
-17.71
-16.26
-14.68
-13.02
-11.39
-9.98
-8.98
-8.46
-8.27
-8.13
-7.72
-6.88
-5.69
-4.45
-3.52
-3.12
-3.26
-3.75
-4.39
-5.05
-5.73
-6.51
-7.36
-8.11
-8.49
-8.23
-7.24
-5.64
-3.74
-1.89
-0.29
1.00
2.05
2.94
3.67
4.15
4.27
3.99
3.41
2.75
2.19
1.84
1.67
1.51
1.21
0.66
-0.14
-1.15
-2.22
-3.19
-3.82
-3.89
-3.22
-1.77
0.38
3.10
6.26
9.85
13.91
18.44
23.30
28.10
32.35
35.57
37.46
38.05
37.58
36.45
35.10
33.86
32.89
32.14
31.41
30.36
28.69
26.16
22.74
18.59
14.01
9.36
5.02
1.24
-1.85
-4.22
-5.94
-7.08
-7.67
-7.76
-7.36
-6.58
-5.61
-4.77
-4.36
-4.55
-5.35
-6.59
-8.01
-9.38
-10.54
-11.41
-12.03
-12.50
-12.95
-13.52
-14.27
-15.10
-15.82
-16.24
-16.28
-16.05
-15.83
-15.96
-16.62
-17.72
-18.95
-19.90
-20.27
-20.05
-19.51
-19.07
-19.12
-19.80
-20.93
-22.15
-23.02
-23.26
-22.75
-21.49
-19.53
-16.99
-14.07
-11.23
-8.99
-7.72
-7.45
-7.67
-7.63
-6.69
-4.67
-1.90
0.96
3.39
5.25
6.80
8.42
10.14
11.57
11.95
10.68
7.68
3.70
0.08
-1.73
-0.72
3.30
9.69
17.24
24.63
30.80
35.10
37.31
37.56
36.22
33.86
31.13
28.68
26.96
26.11
25.90
25.89
25.56
24.51
22.56
19.76
16.33
12.61
9.04
6.06
4.10
3.41
4.00
5.57
7.54
9.26
10.25
10.34
9.70
8.68
7.65
6.79
6.05
5.29
4.36
3.21
1.92
0.60
-0.63
-1.75
-2.77
-3.70
-4.50
-5.11
-5.50
-5.67
-5.75
-5.85
-6.04
-6.31
-6.50
-6.43
-5.89
-4.81
-3.21
-1.30
0.63
2.27
3.39
3.89
3.86
3.51
3.10
2.82
2.69
2.61
2.39
1.93
1.28
0.60
0.12
-0.05
0.03
0.20
0.27
0.18
-0.01
-0.16
-0.20
-0.16
-0.19
-0.43
-0.93
-1.56
-2.09
-2.29
-1.98
-1.17
0.02
1.38
2.69
3.79
4.57
4.99
5.06
4.84
4.39
3.82
3.17
2.50
1.83
1.16
0.48
-0.23
-0.96
-1.73
-2.47
-3.14
-3.68
-4.07
-4.38
-4.72
-5.21
-5.88
-6.64
-7.28
-7.53
-7.21
-6.29
-4.89
-3.26
-1.65
-0.22
0.92
1.73
2.23
2.46
2.49
2.43
2.38
2.37
2.38
2.33
2.12
1.75
1.30
0.90
0.61
0.38
0.07
-0.51
-1.43
-2.67
-4.07
-5.43
-6.54
-7.26
-7.52
-7.27
-6.56
-5.43
-4.01
-2.45
-0.93
0.39
1.41
2.07
2.39
2.45
2.37
2.27
2.22
2.23
2.23
2.13
1.84
1.34
0.68
-0.05
-0.75
-1.36
-1.83
-2.14
-2.34
-2.51
-2.78
-3.28
-4.07
-5.08
-6.07
-6.75
-6.82
-6.19
-4.96
-3.38
-1.80
-0.43
0.64
1.44
2.06
2.53
2.81
2.86
2.67
2.25
1.74
1.23
0.80
0.47
0.19
-0.08
-0.37
-0.65
-0.90
-1.12
-1.32
-1.57
-1.91
-2.38
-3.02
-3.83
-4.79
-5.82
-6.75
-7.32
-7.30
-6.52
-5.05
-3.14
-1.15
0.57
1.82
2.58
2.94
3.03
2.92
2.65
2.26
1.78
1.27
0.78
0.35
-0.01
-0.33
-0.62
-0.91
-1.19
-1.49
-1.80
-2.11
-2.36
-2.53
-2.67
-2.91
-3.42
-4.31
-5.58
-6.99
-8.24
-8.93
-8.83
-7.89
-6.28
-4.34
-2.42
-0.82
0.31
0.96
1.24
1.28
1.22
1.15
1.10
1.03
0.91
0.68
0.32
-0.17
-0.79
-1.50
-2.24
-2.94
-3.50
-3.82
-3.87
-3.74
-3.63
-3.79
-4.42
-5.59
-7.11
-8.68
-9.91
-10.55
-10.49
-9.77
-8.56
-7.01
-5.27
-3.47
-1.72
-0.13
1.22
2.28
3.02
3.46
3.65
3.60
3.34
2.87
2.23
1.49
0.80
0.27
-0.01
-0.09
-0.10
-0.19
-0.50
-1.03
-1.72
-2.49
-3.36
-4.37
-5.58
-6.93
-8.22
-9.13
-9.38
-8.80
-7.44
-5.50
-3.28
-1.00
1.17
3.15
4.84
6.14
6.92
7.14
6.85
6.23
5.54
5.00
4.72
4.65
4.66
4.56
4.25
3.71
3.01
2.25
1.47
0.71
-0.07
-0.91
-1.85
-2.94
-4.15
-5.43
-6.60
-7.49
-7.89
-7.71
-6.93
-5.62
-3.90
-1.90
0.26
2.44
4.44
6.07
7.18
7.71
7.76
7.53
7.20
6.92
6.70
6.44
6.04
5.45
4.73
3.94
3.18
2.50
1.90
1.38
0.88
0.37
-0.23
-1.00
-1.99
-3.18
-4.46
-5.64
-6.48
-6.78
-6.42
-5.36
-3.67
-1.47
0.99
3.46
5.63
7.29
8.32
8.76
8.73
8.40
7.89
7.30
6.70
6.15
5.72
5.49
5.45
5.51
5.53
5.38
4.99
4.39
3.74
3.20
2.89
2.79
2.79
2.73
2.47
1.91
1.07
-0.01
-1.23
-2.45
-3.48
-4.10
-4.09
-3.33
-1.83
0.23
2.58
4.90
6.90
8.36
9.14
9.24
8.74
7.83
6.75
5.71
4.84
4.14
3.49
2.71
1.68
0.41
-0.96
-2.27
-3.36
-4.19
-4.84
-5.44
-6.11
-6.92
-7.83
-8.82
-9.82
-10.75
-11.47
-11.82
-11.61
-10.71
-9.12
-6.99
-4.54
-2.02
0.38
2.54
4.38
5.83
6.86
7.46
7.64
7.47
7.06
6.57
6.11
5.79
5.62
5.54
5.43
5.17
4.70
4.02
3.19
2.24
1.19
-0.02
-1.40
-2.91
-4.37
-5.57
-6.27
-6.30
-5.64
-4.37
-2.67
-0.76
1.15
2.92
4.49
5.83
6.95
7.80
8.29
8.36
7.96
7.17
6.14
5.13
4.30
3.78
3.53
3.43
3.39
3.30
3.10
2.75
2.21
1.48
0.65
-0.14
-0.70
-0.90
-0.80
-0.61
-0.66
-1.23
-2.39
-3.92
-5.42
-6.46
-6.76
-6.29
-5.21
-3.78
-2.15
-0.33
1.75
4.16
6.81
9.46
11.75
13.39
14.28
14.52
14.39
14.16
13.94
13.68
13.23
12.46
11.41
10.20
9.08
8.23
7.70
7.41
7.16
6.75
6.03
4.95
3.59
2.09
0.59
-0.79
-2.02
-3.17
-4.29
-5.48
-6.73
-8.00
-9.17
-10.05
-10.48
-10.29
-9.42
-7.96
-6.09
-4.09
-2.18
-0.51
0.86
1.91
2.63
2.98
2.95
2.60
2.10
1.68
1.54
1.76
2.26
2.88
3.46
3.94
4.28
4.52
4.68
4.71
4.56
4.16
3.55
2.83
2.14
1.54
1.00
0.41
-0.36
-1.34
-2.43
-3.46
-4.32
-5.00
-5.57
-6.12
-6.64
-7.00
-6.97
-6.41
-5.30
-3.81
-2.21
-0.75
0.40
1.19
1.68
1.96
2.09
2.08
1.91
1.54
0.98
0.30
-0.33
-0.78
-0.96
-0.90
-0.70
-0.52
-0.45
-0.55
-0.82
-1.20
-1.66
-2.13
-2.54
-2.87
-3.17
-3.53
-4.04
-4.74
-5.57
-6.35
-6.91
-7.10
-6.87
-6.22
-5.27
-4.13
-2.92
-1.73
-0.65
0.30
1.09
1.72
2.16
2.34
2.22
1.80
1.20
0.60
0.14
-0.12
-0.26
-0.40
-0.65
-0.99
-1.33
-1.55
-1.60
-1.56
-1.53
-1.64
-1.93
-2.37
-2.96
-3.73
-4.70
-5.78
-6.78
-7.41
-7.44
-6.79
-5.59
-4.12
-2.66
-1.38
-0.33
0.52
1.19
1.66
1.88
1.84
1.61
1.29
1.01
0.85
0.79
0.78
0.75
0.62
0.38
0.04
-0.34
-0.74
-1.15
-1.57
-2.03
-2.51
-2.99
-3.39
-3.69
-3.93
-4.18
-4.52
-4.98
-5.48
-5.84
-5.87
-5.47
-4.62
-3.44
-2.10
-0.76
0.49
1.62
2.61
3.41
3.96
4.17
4.04
3.64
3.13
2.69
2.41
2.32
2.34
2.37
2.30
2.07
1.66
1.04
0.28
-0.53
-1.26
-1.78
-2.02
-2.02
-1.91
-1.86
-2.01
-2.45
-3.15
-4.01
-4.90
-5.65
-6.11
-6.16
-5.71
-4.79
-3.50
-2.06
-0.66
0.48
1.30
1.82
2.18
2.51
2.87
3.19
3.33
3.16
2.68
2.03
1.44
1.11
1.09
1.29
1.51
1.61
1.52
1.29
1.02
0.77
0.56
0.34
0.02
-0.42
-0.94
-1.45
-1.84
-2.06
-2.13
-2.20
-2.42
-2.92
-3.70
-4.64
-5.50
-6.08
-6.22
-5.88
-5.13
-4.07
-2.84
-1.55
-0.32
0.80
1.74
2.48
2.98
3.21
3.17
2.91
2.53
2.17
1.94
1.84
1.84
1.80
1.62
1.29
0.86
0.43
0.10
-0.09
-0.17
-0.21
-0.31
-0.56
-1.01
-1.65
-2.41
-3.21
-3.93
-4.52
-4.95
-5.20
-5.30
-5.22
-4.93
-4.41
-3.63
-2.63
-1.49
-0.35
0.67
1.45
1.99
2.36
2.69
3.06
3.47
3.79
3.87
3.62
3.08
2.46
1.98
1.77
1.83
2.01
2.11
2.01
1.68
1.17
0.56
-0.09
-0.76
-1.41
-1.98
-2.44
-2.75
-2.95
-3.13
-3.38
-3.70
-4.04
-4.24
-4.17
-3.77
-3.09
-2.29
-1.53
-0.87
-0.30
0.29
0.94
1.63
2.24
2.61
2.66
2.43
2.09
1.82
1.73
1.84
2.07
2.32
2.53
2.66
2.70
2.62
2.37
1.92
1.28
0.57
-0.09
-0.57
-0.86
-1.04
-1.27
-1.71
-2.38
-3.20
-4.01
-4.63
-4.91
-4.80
-4.30
-3.48
-2.46
-1.39
-0.41
0.42
1.11
1.76
2.43
3.16
3.82
4.28
4.44
4.27
3.89
3.46
3.13
2.95
2.87
2.80
2.62
2.30
1.84
1.32
0.82
0.41
0.08
-0.18
-0.43
-0.77
-1.25
-1.92
-2.74
-3.62
-4.40
-4.89
-4.94
-4.49
-3.62
-2.49
-1.33
-0.29
0.49
0.98
1.19
1.19
1.06
0.89
0.76
0.72
0.76
0.84
0.89
0.85
0.66
0.35
-0.04
-0.45
-0.81
-1.06
-1.20
-1.26
-1.31
-1.46
-1.78
-2.29
-2.94
-3.63
-4.22
-4.59
-4.61
-4.20
-3.37
-2.19
-0.88
0.33
1.22
1.68
1.75
1.58
1.34
1.16
1.07
1.03
0.97
0.87
0.75
0.64
0.58
0.57
0.56
0.54
0.44
0.24
-0.08
-0.54
-1.14
-1.90
-2.80
-3.80
-4.76
-5.51
-5.86
-5.69
-4.98
-3.85
-2.50
-1.15
0.03
0.97
1.62
2.00
2.13
2.02
1.72
1.29
0.79
0.32
-0.07
-0.32
-0.41
-0.40
-0.34
-0.35
-0.54
-0.93
-1.50
-2.12
-2.65
-3.03
-3.32
-3.71
-4.36
-5.32
-6.41
-7.26
-7.46
-6.75
-5.21
-3.20
-1.26
0.14
0.74
0.63
0.07
-0.55
-0.93
-0.91
-0.49
0.21
1.00
1.61
1.76
1.14
-0.38
-2.57
-4.69
-5.55
-3.88
1.04
8.94
18.40
27.33
33.78
36.68
36.18
33.31
29.34
25.08
20.64
15.68
9.92
3.56
-2.73
-8.06
-11.83
-13.98
-14.96
-15.45
-15.97
-16.71
-17.50
-17.99
-17.87
-16.93
-15.14
-12.58
-9.34
-5.61
-1.55
2.62
6.72
10.54
13.95
16.77
18.88
20.21
20.79
20.83
20.64
20.55
20.76
21.33
22.10
22.88
23.54
24.05
24.52
25.12
25.97
27.12
28.51
30.01
31.41
32.48
32.95
32.52
30.96
28.14
24.12
19.11
13.42
7.37
1.20
-4.90
-10.80
-16.40
-21.57
-26.20
-30.22
-33.61
-36.43
-38.76
-40.63
-42.06
-43.02
-43.52
-43.69
-43.77
-44.02
-44.62
-45.58
-46.73
-47.76
-48.35
-48.26
-47.37
-45.69
-43.26
-40.22
-36.70
-32.82
-28.67
-24.22
-19.42
-14.25
-8.78
-3.14
2.42
7.68
12.47
16.70
20.35
23.43
25.98
28.05
29.65
30.74
31.24
31.01
29.91
27.89
25.04
21.57
17.83
14.19
10.92
8.12
5.68
3.31
0.69
-2.44
-6.15
-10.34
-14.75
-19.12
-23.16
-26.68
-29.58
-31.80
-33.30
-34.07
-34.02
-33.12
-31.39
-28.95
-26.10
-23.21
-20.62
-18.52
-16.97
-15.87
-15.13
-14.70
-14.62
-14.94
-15.65
-16.64
-17.67
-18.54
-19.06
-19.17
-18.84
-18.06
-16.74
-14.73
-11.84
-7.95
-3.08
2.63
8.95
15.57
22.22
28.55
34.19
38.73
41.81
43.25
43.17
41.94
40.09
38.11
36.35
34.91
33.81
33.01
32.53
32.44
32.71
33.18
33.57
33.57
32.96
31.69
29.86
27.61
25.11
22.44
19.64
16.74
13.75
10.69
7.59
4.51
1.54
-1.18
-3.53
-5.46
-6.96
-8.09
-8.84
-9.22
-9.18
-8.77
-8.13
-7.48
-7.01
-6.81
-6.80
-6.78
-6.54
-5.90
-4.80
-3.30
-1.47
0.54
2.65
4.76
6.83
8.84
10.81
12.79
14.84
17.01
19.30
21.69
24.08
26.35
28.39
30.11
31.46
32.41
32.87
32.75
31.96
30.52
28.61
26.53
24.54
22.75
21.02
19.11
16.88
14.50
12.35
10.91
10.36
10.34
9.98
8.12
3.76
-3.68
-14.23
-27.45
-42.53
-58.26
-73.11
-85.33
-93.35
-96.34
-94.64
-89.68
-83.53
-78.05
-74.28
-72.29
-71.37
-70.60
-69.20
-66.64
-62.75
-57.73
-52.22
-47.23
-43.87
-42.85
-44.09
-46.50
-48.20
-47.11
-41.60
-30.96
-15.69
2.65
21.77
39.12
52.61
61.09
64.65
64.43
62.19
59.59
57.70
56.82
56.66
56.67
56.40
55.70
54.79
54.13
54.33
55.91
59.19
64.16
70.34
76.87
82.57
86.29
87.11
84.55
78.60
69.59
58.05
44.63
29.99
14.88
0.09
-13.64
-25.69
-35.60
-43.13
-48.19
-50.87
-51.44
-50.33
-48.05
-45.09
-41.85
-38.54
-35.33
-32.40
-29.96
-28.19
-27.10
-26.45
-25.84
-24.86
-23.37
-21.62
-20.17
-19.56
-20.01
-21.18
-22.25
-22.25
-20.49
-16.87
-11.93
-6.64
-1.99
1.37
3.27
3.92
3.68
2.80
1.33
-0.90
-4.03
-8.01
-12.56
-17.24
-21.57
-25.14
-27.49
-28.05
-26.06
-20.83
-12.20
-0.86
11.61
23.25
32.40
38.26
40.94
41.13
39.55
36.62
32.57
27.76
22.90
18.91
16.49
15.71
15.94
16.20
15.68
14.12
11.79
9.18
6.65
4.28
1.93
-0.48
-2.88
-4.96
-6.42
-7.06
-6.80
-5.70
-3.85
-1.46
1.06
3.18
4.34
4.24
3.03
1.26
-0.29
-0.94
-0.35
1.47
4.24
7.56
11.00
14.18
16.75
18.47
19.28
19.31
18.68
17.39
15.15
11.43
5.71
-2.15
-11.72
-21.99
-31.67
-39.61
-45.19
-48.45
-49.95
-50.43
-50.43
-50.20
-49.63
-48.51
-46.65
-44.06
-40.87
-37.34
-33.70
-30.12
-26.72
-23.56
-20.74
-18.35
-16.43
-14.92
-13.67
-12.45
-11.05
-9.43
-7.68
-6.06
-4.80
-4.04
-3.73
-3.76
-3.95
-4.21
-4.46
-4.60
-4.44
-3.74
-2.33
-0.18
2.47
5.30
7.96
10.26
12.22
14.01
15.79
17.54
19.09
20.13
20.48
20.13
19.32
18.37
17.54
16.94
16.49
16.08
15.64
15.20
14.85
14.61
14.42
14.06
13.32
12.01
10.10
7.75
5.27
3.03
1.39
0.59
0.72
1.77
3.56
5.83
8.32
10.73
12.85
14.53
15.75
16.51
16.90
16.96
16.71
16.18
15.35
14.31
13.16
12.05
11.02
10.06
9.04
7.86
6.46
4.93
3.45
2.18
1.27
0.72
0.39
0.05
-0.56
-1.65
-3.31
-5.43
-7.73
-9.82
-11.32
-12.01
-11.81
-10.81
-9.16
-7.09
-4.83
-2.65
-0.81
0.54
1.37
1.79
1.94
1.91
1.71
1.27
0.59
-0.29
-1.22
-2.15
-3.14
-4.39
-6.10
-8.31
-10.79
-13.08
-14.63
-15.04
-14.18
-12.25
-9.67
-6.93
-4.44
-2.42
-0.84
0.57
2.27
4.82
8.65
13.88
20.16
26.67
32.36
36.27
37.89
37.27
34.99
31.92
28.93
26.73
25.79
26.33
28.33
31.48
35.24
38.87
41.63
42.93
42.46
40.17
36.30
31.23
25.46
19.48
13.75
8.54
3.86
-0.42
-4.45
-8.17
-11.22
-13.09
-13.33
-11.85
-8.97
-5.29
-1.49
1.95
4.75
6.85
8.25
9.02
9.24
9.05
8.63
8.12
7.52
6.64
5.18
2.82
-0.54
-4.72
-9.31
-13.75
-17.51
-20.27
-21.91
-22.54
-22.37
-21.69
-20.82
-20.03
-19.49
-19.28
-19.29
-19.32
-19.14
-18.57
-17.53
-16.00
-13.98
-11.43
-8.29
-4.58
-0.48
3.69
7.50
10.61
12.93
14.59
15.89
17.09
18.28
19.27
19.77
19.51
18.43
16.70
14.60
12.45
10.39
8.47
6.60
4.71
2.74
0.73
-1.24
-3.08
-4.69
-6.06
-7.22
-8.25
-9.23
-10.15
-10.94
-11.48
-11.73
-11.77
-11.75
-11.83
-12.04
-12.27
-12.27
-11.81
-10.79
-9.26
-7.38
-5.40
-3.51
-1.86
-0.54
0.43
1.07
1.46
1.71
1.94
2.23
2.60
3.01
3.38
3.64
3.75
3.67
3.44
3.09
2.70
2.33
2.09
2.02
2.11
2.27
2.35
2.26
1.95
1.51
1.10
0.87
0.92
1.22
1.66
2.08
2.38
2.58
2.77
3.07
3.54
4.04
4.24
3.64
1.80
-1.49
-6.03
-11.14
-15.89
-19.46
-21.45
-22.16
-22.49
-23.50
-26.01
-30.29
-35.97
-42.11
-47.46
-50.51
-49.66
-43.63
-32.01
-15.85
2.25
18.86
30.98
37.26
38.44
36.73
34.34
32.28
30.14
26.58
20.70
12.78
4.24
-3.07
-7.81
-9.57
-8.88
-6.89
-4.94
-4.21
-5.36
-8.22
-11.69
-14.11
-13.91
-10.41
-4.22
3.06
9.68
14.62
17.95
20.48
22.98
25.58
27.58
27.96
25.98
21.64
15.60
8.78
2.08
-3.97
-8.98
-12.48
-13.97
-13.17
-10.55
-7.40
-5.44
-5.89
-8.67
-12.25
-14.39
-13.35
-8.85
-2.10
4.87
10.30
13.33
13.90
12.28
8.61
3.02
-4.02
-11.35
-17.41
-20.92
-21.53
-20.00
-17.76
-16.10
-15.61
-16.12
-17.20
-18.55
-20.18
-22.11
-24.01
-25.09
-24.39
-21.35
-16.21
-9.93
-3.82
1.15
4.69
7.12
9.07
10.95
12.74
14.09
14.63
14.34
13.58
12.97
12.95
13.58
14.48
15.04
14.73
13.39
11.23
8.68
6.18
3.96
2.05
0.35
-1.30
-2.96
-4.67
-6.38
-7.92
-9.03
-9.38
-8.67
-6.76
-3.82
-0.28
3.29
6.36
8.63
10.10
10.97
11.48
11.73
11.64
11.05
9.81
7.99
5.87
3.86
2.30
1.30
0.71
0.19
-0.56
-1.64
-2.94
-4.20
-5.16
-5.73
-6.01
-6.22
-6.54
-6.96
-7.33
-7.36
-6.84
-5.70
-4.04
-2.04
0.14
2.44
4.85
7.39
10.01
12.57
14.89
16.74
17.91
18.13
17.17
14.84
11.16
6.45
1.32
-3.44
-7.13
-9.38
-10.25
-10.17
-9.71
-9.44
-9.72
-10.75
-12.51
-14.77
-17.19
-19.25
-20.45
-20.45
-19.18
-16.88
-13.97
-10.85
-7.66
-4.25
-0.34
4.18
9.11
13.80
17.44
19.44
19.74
18.89
17.83
17.42
18.02
19.29
20.39
20.34
18.58
15.18
10.83
6.50
3.00
0.68
-0.63
-1.46
-2.40
-3.78
-5.52
-7.26
-8.55
-9.04
-8.68
-7.59
-5.96
-4.00
-1.82
0.40
2.35
3.59
3.69
2.56
0.63
-1.23
-2.11
-1.47
0.43
2.66
3.98
3.42
0.75
-3.45
-8.09
-12.10
-14.73
-15.86
-15.71
-14.74
-13.39
-12.01
-10.91
-10.35
-10.53
-11.48
-12.99
-14.63
-15.79
-15.91
-14.69
-12.17
-8.82
-5.34
-2.51
-0.88
-0.61
-1.46
-2.84
-4.09
-4.66
-4.28
-3.03
-1.17
0.95
3.13
5.34
7.64
10.05
12.42
14.46
15.82
16.23
15.58
13.92
11.32
7.86
3.69
-0.85
-5.12
-8.28
-9.60
-8.86
-6.48
-3.43
-0.79
0.74
1.09
0.73
0.35
0.41
1.00
1.92
2.89
3.82
4.78
5.86
7.04
8.06
8.63
8.55
7.88
6.95
6.21
6.01
6.42
7.22
7.95
8.18
7.63
6.30
4.41
2.30
0.31
-1.30
-2.38
-2.89
-2.85
-2.30
-1.36
-0.19
1.06
2.23
3.18
3.87
4.32
4.61
4.85
5.10
5.39
5.68
5.89
5.97
5.88
5.65
5.35
5.05
4.83
4.69
4.60
4.51
4.35
4.09
3.75
3.39
3.02
2.65
2.26
1.79
1.24
0.61
-0.07
-0.83
-1.74
-2.80
-3.96
-4.99
-5.61
-5.58
-4.84
-3.59
-2.19
-0.98
-0.12
0.47
1.01
1.72
2.66
3.68
4.55
5.08
5.25
5.20
5.16
5.29
5.58
5.89
6.00
5.78
5.27
4.68
4.29
4.37
5.08
6.44
8.35
10.59
12.84
14.66
15.54
14.99
12.76
8.99
4.16
-1.00
-5.78
-9.72
-12.71
-14.88
-16.45
-17.58
-18.27
-18.44
-18.01
-17.00
-15.54
-13.89
-12.27
-10.82
-9.54
-8.26
-6.79
-4.94
-2.64
0.02
2.86
5.65
8.25
10.68
13.02
15.44
18.06
20.88
23.75
26.42
28.63
30.20
31.14
31.68
32.17
33.00
34.37
36.21
38.17
39.72
40.31
39.62
37.57
34.36
30.30
25.71
20.84
15.90
11.17
6.99
3.76
1.77
1.07
1.38
2.18
2.81
2.71
1.49
-1.07
-4.98
-10.16
-16.38
-23.27
-30.35
-37.03
-42.82
-47.43
-50.85
-53.27
-54.94
-56.00
-56.42
-56.09
-54.96
-53.15
-50.95
-48.69
-46.56
-44.54
-42.46
-40.16
-37.68
-35.28
-33.32
-32.07
-31.56
-31.54
-31.63
-31.46
-30.83
-29.71
-28.16
-26.20
-23.71
-20.47
-16.23
-10.87
-4.45
2.68
10.07
17.19
23.63
29.15
33.67
37.22
39.86
41.61
42.47
42.47
41.74
40.56
39.29
38.31
37.78
37.56
37.24
36.19
33.93
30.28
25.43
19.96
14.58
9.92
6.32
3.76
1.82
-0.16
-2.87
-6.71
-11.56
-16.68
-20.91
-23.09
-22.55
-19.42
-14.60
-9.45
-5.23
-2.69
-1.96
-2.63
-4.14
-6.02
-8.04
-10.19
-12.50
-14.92
-17.26
-19.22
-20.57
-21.22
-21.32
-21.14
-20.92
-20.76
-20.53
-20.00
-18.93
-17.28
-15.25
-13.20
-11.44
-10.18
-9.45
-9.13
-9.06
-9.07
-9.08
-9.03
-8.97
-8.96
-9.12
-9.52
-10.16
-10.90
-11.54
-11.87
-11.78
-11.30
-10.60
-9.92
-9.44
-9.23
-9.19
-9.13
-8.86
-8.31
-7.60
-6.90
-6.33
-5.80
-5.06
-3.79
-1.85
0.59
3.10
5.17
6.48
7.05
7.15
7.19
7.48
8.13
9.08
10.22
11.50
12.91
14.49
16.18
17.79
19.06
19.73
19.68
19.01
17.96
16.84
15.83
14.92
14.01
13.00
11.92
10.96
10.39
10.33
10.67
11.07
11.02
10.09
8.12
5.27
1.97
-1.22
-3.82
-5.61
-6.55
-6.78
-6.47
-5.71
-4.55
-3.01
-1.20
0.69
2.47
3.97
5.14
5.94
6.29
6.04
4.99
3.06
0.38
-2.71
-5.74
-8.32
-10.26
-11.57
-12.45
-13.11
-13.73
-14.45
-15.34
-16.39
-17.52
-18.56
-19.30
-19.57
-19.31
-18.55
-17.43
-16.05
-14.43
-12.52
-10.29
-7.77
-5.13
-2.55
-0.21
1.87
3.76
5.51
7.17
8.70
10.09
11.43
12.94
14.84
17.20
19.81
22.28
24.12
25.04
25.03
24.36
23.39
22.39
21.41
20.37
19.17
17.81
16.33
14.76
13.01
10.93
8.39
5.51
2.67
0.50
-0.40
0.30
2.38
5.10
7.34
8.00
6.40
2.51
-2.93
-8.68
-13.36
-15.88
-15.85
-13.61
-10.02
-6.06
-2.43
0.68
3.42
6.02
8.49
10.52
11.66
11.59
10.38
8.54
6.79
5.73
5.64
6.37
7.48
8.46
8.89
8.58
7.55
5.99
4.18
2.42
0.91
-0.22
-0.96
-1.39
-1.68
-1.98
-2.45
-3.15
-4.09
-5.22
-6.54
-8.05
-9.77
-11.66
-13.53
-15.08
-16.01
-16.13
-15.47
-14.27
-12.86
-11.50
-10.28
-9.10
-7.84
-6.41
-4.94
-3.64
-2.80
-2.52
-2.76
-3.24
-3.65
-3.79
-3.65
-3.40
-3.28
-3.42
-3.76
-4.09
-4.19
-3.96
-3.53
-3.14
-2.97
-3.09
-3.35
-3.53
-3.49
-3.22
-2.85
-2.52
-2.26
-1.98
-1.51
-0.78
0.18
1.20
2.08
2.71
3.06
3.21
3.23
3.21
3.17
3.12
3.06
2.98
2.86
2.69
2.47
2.22
1.94
1.63
1.25
0.81
0.31
-0.15
-0.51
-0.71
-0.79
-0.83
-0.96
-1.20
-1.47
-1.59
-1.42
-0.91
-0.16
0.60
1.12
1.28
1.13
0.85
0.67
0.70
0.93
1.24
1.47
1.56
1.52
1.40
1.23
0.98
0.58
-0.01
-0.72
-1.43
-1.97
-2.28
-2.40
-2.43
-2.49
-2.60
-2.69
-2.68
-2.49
-2.12
-1.60
-0.99
-0.37
0.18
0.58
0.77
0.72
0.50
0.20
-0.05
-0.24
-0.36
-0.48
-0.60
-0.70
-0.70
-0.59
-0.44
-0.36
-0.44
-0.72
-1.14
-1.61
-2.09
-2.55
-3.00
-3.41
-3.70
-3.77
-3.56
-3.05
-2.29
-1.41
-0.53
0.24
0.81
1.13
1.20
1.06
0.74
0.28
-0.25
-0.79
-1.26
-1.60
-1.77
-1.77
-1.63
-1.43
-1.27
-1.21
-1.27
-1.44
-1.65
-1.85
-2.03
-2.22
-2.48
-2.81
-3.17
-3.44
-3.51
-3.34
-3.00
-2.61
-2.29
-2.08
-1.90
-1.65
-1.29
-0.87
-0.52
-0.35
-0.40
-0.57
-0.68
-0.58
-0.23
0.24
0.65
0.81
0.66
0.27
-0.20
-0.59
-0.85
-1.02
-1.24
-1.58
-1.99
-2.38
-2.63
-2.64
-2.38
-1.90
-1.26
-0.51
0.28
1.06
1.81
2.51
3.15
3.78
4.39
4.91
5.23
5.25
4.91
4.31
3.60
2.90
2.29
1.69
1.05
0.35
-0.28
-0.70
-0.80
-0.62
-0.38
-0.36
-0.75
-1.59
-2.74
-3.92
-4.85
-5.37
-5.38
-4.96
-4.22
-3.28
-2.24
-1.17
-0.15
0.71
1.28
1.49
1.35
0.97
0.58
0.34
0.36
0.54
0.74
0.79
0.65
0.36
0.05
-0.19
-0.34
-0.47
-0.68
-1.07
-1.66
-2.41
-3.23
-4.00
-4.63
-5.03
-5.13
-4.87
-4.20
-3.09
-1.63
0.03
1.65
3.02
3.98
4.51
4.68
4.60
4.39
4.10
3.76
3.40
3.04
2.72
2.45
2.20
1.95
1.68
1.43
1.24
1.12
1.01
0.75
0.21
-0.64
-1.65
-2.54
-2.98
-2.78
-1.92
-0.54
1.12
2.83
4.43
5.82
6.97
7.86
8.51
8.93
9.20
9.39
9.57
9.78
10.03
10.31
10.60
10.92
11.28
11.68
12.13
12.62
13.12
13.62
14.05
14.32
14.30
13.83
12.84
11.35
9.52
7.63
5.95
4.68
3.89
3.54
3.49
3.59
3.68
3.65
3.41
2.90
2.15
1.24
0.40
-0.12
-0.11
0.45
1.38
2.36
3.00
3.08
2.63
1.93
1.34
1.12
1.25
1.49
1.52
1.12
0.32
-0.67
-1.53
-2.01
-1.96
-1.38
-0.35
1.05
2.74
4.61
6.56
8.44
10.11
11.48
12.50
13.13
13.39
13.23
12.66
11.65
10.27
8.59
6.70
4.66
2.41
-0.17
-3.20
-6.69
-10.44
-14.16
-17.52
-20.33
-22.51
-24.06
-24.95
-25.10
-24.37
-22.78
-20.54
-18.04
-15.71
-13.84
-12.51
-11.59
-10.93
-10.44
-10.16
-10.19
-10.62
-11.44
-12.58
-13.89
-15.20
-16.41
-17.44
-18.30
-19.09
-19.97
-21.15
-22.74
-24.69
-26.74
-28.52
-29.66
-29.90
-29.13
-27.35
-24.67
-21.26
-17.37
-13.31
-9.39
-5.82
-2.69
0.11
2.69
5.11
7.33
9.25
10.83
12.17
13.44
14.75
16.07
17.18
17.84
17.97
17.67
17.24
16.94
16.90
17.04
17.15
17.08
16.77
16.31
15.79
15.30
14.81
14.25
13.56
12.76
11.95
11.31
11.04
11.28
12.08
13.34
14.81
16.15
17.02
17.17
16.58
15.38
13.85
12.27
10.83
9.57
8.36
7.04
5.46
3.58
1.53
-0.44
-2.01
-2.94
-3.14
-2.74
-2.00
-1.22
-0.63
-0.35
-0.35
-0.56
-0.89
-1.28
-1.66
-1.96
-1.99
-1.56
-0.51
1.18
3.31
5.57
7.59
9.12
10.05
10.45
10.47
10.26
9.97
9.65
9.33
8.95
8.43
7.71
6.79
5.75
4.73
3.89
3.30
2.93
2.60
2.13
1.40
0.35
-0.96
-2.45
-4.00
-5.46
-6.67
-7.51
-7.88
-7.81
-7.37
-6.74
-6.02
-5.24
-4.34
-3.23
-1.92
-0.51
0.81
1.84
2.50
2.83
2.97
3.03
3.06
3.02
2.89
2.65
2.38
2.16
2.02
1.93
1.75
1.38
0.75
-0.12
-1.16
-2.35
-3.67
-5.13
-6.68
-8.20
-9.52
-10.45
-10.90
-10.84
-10.29
-9.32
-8.01
-6.46
-4.80
-3.24
-2.00
-1.24
-0.96
-1.05
-1.28
-1.41
-1.32
-1.00
-0.56
-0.17
0.04
0.05
-0.08
-0.21
-0.22
-0.09
0.16
0.41
0.61
0.73
0.79
0.80
0.74
0.58
0.26
-0.21
-0.77
-1.28
-1.63
-1.71
-1.45
-0.84
0.08
1.21
2.40
3.48
4.33
4.88
5.15
5.22
5.18
5.14
5.11
5.13
5.20
5.29
5.35
5.35
5.23
4.99
4.67
4.36
4.12
3.98
3.93
3.93
3.95
3.96
3.93
3.79
3.47
2.88
2.05
1.09
0.19
-0.43
-0.67
-0.53
-0.14
0.33
0.75
1.03
1.17
1.22
1.19
1.11
0.96
0.72
0.40
0.04
-0.31
-0.61
-0.85
-1.09
-1.36
-1.73
-2.22
-2.81
-3.42
-3.96
-4.36
-4.57
-4.64
-4.64
-4.68
-4.85
-5.17
-5.60
-6.10
-6.59
-6.99
-7.23
-7.24
-6.99
-6.48
-5.78
-4.98
-4.20
-3.50
-2.90
-2.39
-1.93
-1.48
-1.02
-0.55
-0.16
0.08
0.08
-0.21
-0.71
-1.31
-1.82
-2.11
-2.15
-2.02
-1.85
-1.75
-1.73
-1.80
-1.91
-2.11
-2.43
-2.93
-3.58
-4.27
-4.84
-5.17
-5.20
-4.98
-4.58
-4.08
-3.53
-2.92
-2.29
-1.66
-1.09
-0.62
-0.24
0.05
0.31
0.57
0.81
0.98
1.02
0.93
0.74
0.53
0.39
0.37
0.43
0.49
0.47
0.31
0.04
-0.27
-0.54
-0.75
-0.95
-1.26
-1.77
-2.49
-3.30
-3.98
-4.31
-4.15
-3.48
-2.43
-1.21
-0.00
1.05
1.92
2.58
3.07
3.37
3.45
3.31
2.96
2.48
1.97
1.52
1.21
1.03
0.94
0.89
0.80
0.65
0.44
0.21
-0.02
-0.20
-0.37
-0.59
-0.96
-1.52
-2.22
-2.93
-3.46
-3.66
-3.47
-2.92
-2.12
-1.22
-0.34
0.43
1.04
1.45
1.64
1.63
1.49
1.28
1.04
0.76
0.42
0.02
-0.37
-0.64
-0.73
-0.65
-0.50
-0.46
-0.67
-1.12
-1.74
-2.40
-2.99
-3.56
-4.21
-5.04
-6.03
-7.02
-7.76
-7.99
-7.61
-6.65
-5.34
-3.95
-2.72
-1.75
-1.03
-0.43
0.20
0.92
1.67
2.31
2.69
2.71
2.44
2.02
1.62
1.34
1.20
1.11
0.99
0.78
0.51
0.20
-0.11
-0.45
-0.88
-1.45
-2.13
-2.90
-3.68
-4.41
-5.05
-5.52
-5.73
-5.56
-4.95
-3.90
-2.53
-1.04
0.34
1.46
2.25
2.72
2.96
3.01
2.96
2.84
2.75
2.72
2.80
2.94
3.05
3.05
2.87
2.52
2.06
1.55
1.09
0.73
0.51
0.45
0.46
0.40
0.07
-0.67
-1.80
-3.12
-4.28
-4.90
-4.79
-3.93
-2.54
-0.93
0.63
1.98
3.08
3.99
4.77
5.43
5.95
6.27
6.35
6.22
5.91
5.53
5.17
4.93
4.83
4.87
5.02
5.26
5.56
5.89
6.19
6.39
6.38
6.11
5.59
4.90
4.17
3.54
3.07
2.75
2.50
2.22
1.85
1.37
0.82
0.25
-0.28
-0.75
-1.11
-1.33
-1.37
-1.15
-0.65
0.10
1.01
1.95
2.79
3.45
3.95
4.36
4.76
5.19
5.58
5.82
5.79
5.46
4.91
4.31
3.81
3.52
3.43
3.45
3.47
3.40
3.21
2.93
2.57
2.13
1.62
1.01
0.33
-0.35
-0.95
-1.40
-1.70
-1.93
-2.23
-2.72
-3.46
-4.38
-5.33
-6.09
-6.44
-6.26
-5.51
-4.30
-2.82
-1.27
0.14
1.31
2.19
2.80
3.17
3.30
3.23
3.02
2.76
2.56
2.49
2.51
2.54
2.46
2.21
1.80
1.35
0.97
0.73
0.61
0.54
0.40
0.13
-0.29
-0.80
-1.35
-1.94
-2.60
-3.40
-4.38
-5.49
-6.59
-7.48
-7.98
-7.98
-7.46
-6.49
-5.17
-3.63
-2.02
-0.53
0.71
1.58
2.12
2.42
2.61
2.77
2.86
2.84
2.63
2.27
1.89
1.62
1.51
1.55
1.62
1.63
1.54
1.40
1.27
1.17
1.06
0.82
0.37
-0.33
-1.22
-2.18
-3.07
-3.77
-4.17
-4.25
-3.99
-3.41
-2.55
-1.50
-0.32
0.87
1.99
2.94
3.62
3.93
3.83
3.39
2.72
2.04
1.52
1.22
1.07
0.91
0.63
0.23
-0.17
-0.38
-0.28
0.10
0.58
0.91
0.90
0.47
-0.27
-1.22
-2.26
-3.36
-4.51
-5.66
-6.69
-7.44
-7.76
-7.65
-7.18
-6.51
-5.75
-4.98
-4.22
-3.55
-3.06
-2.91
-3.19
-3.87
-4.80
-5.72
-6.42
-6.76
-6.76
-6.52
-6.18
-5.84
-5.53
-5.26
-5.02
-4.83
-4.76
-4.84
-5.07
-5.37
-5.62
-5.74
-5.72
-5.61
-5.46
-5.31
-5.11
-4.74
-4.09
-3.07
-1.65
0.09
1.99
3.83
5.40
6.60
7.40
7.92
8.31
8.67
9.06
9.47
9.91
10.44
11.12
11.92
12.73
13.35
13.59
13.38
12.77
11.96
11.13
10.37
9.64
8.78
7.65
6.15
4.32
2.34
0.49
-1.00
-1.95
-2.39
-2.44
-2.31
-2.13
-1.94
-1.68
-1.29
-0.78
-0.26
0.12
0.26
0.14
-0.18
-0.56
-0.94
-1.29
-1.63
-2.01
-2.42
-2.89
-3.37
-3.85
-4.29
-4.66
-4.88
-4.94
-4.91
-4.88
-4.99
-5.31
-5.76
-6.11
-6.07
-5.37
-3.92
-1.81
0.69
3.29
5.69
7.70
9.22
10.16
10.54
10.38
9.82
9.09
8.42
8.01
7.84
7.77
7.53
6.90
5.81
4.38
2.80
1.29
-0.03
-1.11
-1.96
-2.64
-3.17
-3.62
-4.05
-4.50
-5.02
-5.56
-6.04
-6.33
-6.32
-5.94
-5.19
-4.11
-2.81
-1.43
-0.10
1.05
2.02
2.85
3.64
4.43
5.20
5.89
6.41
6.76
6.99
7.18
7.41
7.73
8.11
8.48
8.72
8.74
8.46
7.86
7.00
5.96
4.83
3.67
2.48
1.25
-0.05
-1.41
-2.78
-4.04
-5.07
-5.73
-5.92
-5.61
-4.91
-4.02
-3.18
-2.59
-2.28
-2.16
-2.06
-1.87
-1.59
-1.35
-1.29
-1.51
-1.99
-2.60
-3.23
-3.76
-4.16
-4.41
-4.52
-4.57
-4.67
-5.01
-5.75
-6.93
-8.46
-10.08
-11.59
-12.88
-13.99
-15.07
-16.21
-17.39
-18.48
-19.29
-19.66
-19.52
-18.83
-17.65
-16.05
-14.23
-12.47
-11.11
-10.36
-10.23
-10.48
-10.72
-10.56
-9.79
-8.43
-6.71
-4.93
-3.30
-1.78
-0.04
2.44
6.17
11.34
17.68
24.47
30.78
35.81
39.13
40.78
41.09
40.39
38.93
36.81
34.20
31.37
28.76
26.77
25.55
24.98
24.71
24.38
23.73
22.70
21.33
19.65
17.70
15.53
13.28
11.12
9.19
7.45
5.72
3.69
1.15
-1.93
-5.31
-8.60
-11.42
-13.53
-14.89
-15.66
-16.08
-16.37
-16.68
-17.04
-17.41
-17.74
-18.05
-18.42
-18.97
-19.76
-20.64
-21.27
-21.25
-20.33
-18.65
-16.73
-15.26
-14.77
-15.35
-16.60
-17.92
-18.85
-19.29
-19.51
-19.83
-20.30
-20.67
-20.49
-19.50
-17.77
-15.69
-13.67
-11.84
-10.04
-7.97
-5.43
-2.56
0.24
2.54
4.08
4.88
5.14
5.07
4.76
4.17
3.28
2.17
0.99
0.01
-0.60
-0.74
-0.41
0.27
1.22
2.32
3.45
4.47
5.22
5.57
5.46
4.91
4.08
3.19
2.44
2.00
1.88
1.99
2.16
2.24
2.18
2.01
1.84
1.74
1.68
1.54
1.15
0.44
-0.57
-1.71
-2.77
-3.57
-4.08
-4.33
-4.43
-4.41
-4.18
-3.59
-2.52
-0.99
0.81
2.63
4.25
5.57
6.66
7.64
8.57
9.42
10.05
10.35
10.27
9.86
9.19
8.31
7.19
5.74
3.93
1.82
-0.42
-2.56
-4.42
-5.91
-7.06
-7.95
-8.69
-9.35
-9.96
-10.48
-10.83
-10.91
-10.66
-10.08
-9.20
-8.09
-6.84
-5.56
-4.36
-3.32
-2.50
-1.90
-1.46
-1.08
-0.63
-0.06
0.65
1.37
1.95
2.24
2.21
2.02
1.96
2.32
3.31
4.94
6.96
8.98
10.57
11.40
11.36
10.56
9.34
8.11
7.28
7.07
7.46
8.19
8.87
9.15
8.87
8.14
7.25
6.51
6.09
5.99
6.06
6.09
5.96
5.62
5.05
4.24
3.14
1.65
-0.26
-2.51
-4.85
-6.99
-8.65
-9.66
-10.03
-9.89
-9.43
-8.74
-7.87
-6.77
-5.41
-3.81
-2.07
-0.29
1.45
3.09
4.57
5.78
6.54
6.74
6.45
5.95
5.62
5.75
6.38
7.29
8.22
9.08
10.04
11.46
13.61
16.53
20.01
23.80
27.77
32.02
36.64
41.49
46.03
49.38
50.67
49.32
45.32
39.12
31.45
23.07
14.60
6.56
-0.65
-6.65
-11.19
-14.24
-16.01
-16.98
-17.68
-18.60
-19.93
-21.63
-23.44
-25.04
-26.21
-26.87
-27.06
-26.85
-26.33
-25.51
-24.38
-22.89
-20.98
-18.58
-15.71
-12.44
-8.93
-5.39
-1.97
1.19
3.96
6.25
7.88
8.72
8.73
8.05
6.95
5.68
4.37
2.97
1.31
-0.71
-3.01
-5.34
-7.42
-9.09
-10.41
-11.59
-12.88
-14.34
-15.91
-17.37
-18.45
-18.96
-18.78
-17.94
-16.52
-14.72
-12.74
-10.83
-9.16
-7.83
-6.85
-6.09
-5.39
-4.58
-3.57
-2.40
-1.23
-0.27
0.30
0.39
0.04
-0.63
-1.49
-2.51
-3.73
-5.26
-7.17
-9.48
-12.07
-14.75
-17.26
-19.30
-20.62
-21.03
-20.46
-19.01
-16.89
-14.41
-11.91
-9.65
-7.81
-6.47
-5.59
-5.09
-4.83
-4.62
-4.25
-3.56
-2.51
-1.19
0.13
1.18
1.72
1.70
1.23
0.57
-0.07
-0.56
-0.87
-1.07
-1.24
-1.39
-1.51
-1.53
-1.38
-1.00
-0.32
0.67
1.98
3.51
5.17
6.81
8.27
9.42
10.12
10.26
9.80
8.80
7.45
5.97
4.54
3.20
1.88
0.44
-1.22
-3.03
-4.85
-6.50
-7.85
-8.91
-9.80
-10.61
-11.39
-12.10
-12.60
-12.77
-12.52
-11.85
-10.86
-9.67
-8.42
-7.19
-6.02
-4.94
-3.96
-3.10
-2.36
-1.71
-1.13
-0.54
0.13
0.87
1.63
2.29
2.71
2.73
2.23
1.16
-0.40
-2.28
-4.20
-5.84
-6.95
-7.39
-7.21
-6.59
-5.73
-4.80
-3.80
-2.57
-0.90
1.37
4.30
7.74
11.47
15.25
18.88
22.20
25.08
27.34
28.84
29.54
29.60
29.40
29.42
30.03
31.39
33.27
35.24
36.75
37.27
36.41
33.91
29.63
23.57
15.81
6.49
-4.12
-15.52
-26.89
-37.10
-44.85
-48.99
-48.95
-44.88
-37.69
-28.76
-19.41
-10.59
-2.79
3.75
8.79
11.99
13.14
12.33
10.14
7.52
5.35
4.09
3.63
3.44
2.97
2.02
0.79
-0.23
-0.61
-0.24
0.71
1.90
3.05
3.99
4.73
5.31
5.83
6.39
