1513743996.00
64.000000
-0.00
-0.00
-0.00
-0.00
-0.00
-0.00
-0.00
-0.00
-0.00
-0.00
0.00
0.01
0.01
-0.00
-0.03
-0.05
-0.05
0.00
0.13
0.36
0.66
1.01
1.37
1.72
2.06
2.40
2.79
3.24
3.80
4.42
5.06
5.66
6.20
6.68
7.15
7.68
8.31
9.14
10.09
11.04
11.88
12.56
13.14
13.76
14.65
15.96
17.91
20.32
22.90
25.38
27.58
29.57
31.68
34.32
37.81
42.54
48.15
54.10
59.83
64.97
69.58
74.14
79.34
85.71
93.76
103.00
112.62
121.73
129.77
136.75
143.30
150.75
157.77
166.64
177.95
191.79
206.97
220.57
228.25
225.36
208.53
176.87
132.76
80.05
23.07
-34.94
-92.44
-149.16
-205.23
-260.37
-313.74
-363.87
-409.83
-450.91
-486.50
-515.74
-537.23
-549.22
-549.96
-538.37
-514.21
-478.67
-433.88
-382.45
-327.02
-269.84
-212.63
-156.66
-102.95
-52.37
-5.90
35.58
71.43
101.35
125.50
144.38
158.69
169.15
176.37
180.75
182.57
182.07
179.51
175.23
169.65
163.18
156.15
148.81
141.30
133.69
126.02
118.33
110.69
103.16
95.80
88.68
81.83
75.25
68.95
62.95
57.25
51.86
46.78
42.03
37.59
33.45
29.61
26.07
22.81
19.83
17.11
14.67
12.48
10.54
8.83
7.35
6.07
4.97
4.05
3.27
2.62
2.09
1.65
1.30
1.01
0.79
0.61
0.48
0.37
0.28
0.22
0.18
0.14
0.11
0.09
0.08
0.07
0.07
0.07
0.08
0.09
0.12
0.14
0.17
0.21
0.26
0.30
0.35
0.40
0.45
0.50
0.55
0.59
0.64
0.70
0.76
0.82
0.89
0.98
1.07
1.17
1.29
1.41
1.55
1.71
1.87
2.06
2.27
2.49
2.73
3.01
3.31
3.63
3.99
4.39
4.82
5.28
5.79
6.34
6.94
7.58
8.27
9.01
9.79
10.63
11.52
12.46
13.43
14.47
15.55
16.70
17.91
19.19
20.52
21.89
23.27
24.58
25.75
26.62
27.05
26.87
25.94
24.13
21.38
17.72
13.20
7.96
2.26
-3.59
-9.23
-14.29
-18.48
-21.60
-23.56
-24.41
-24.36
-23.71
-22.77
-21.85
-21.15
-20.85
-20.97
-21.43
-22.04
-22.70
-23.23
-23.37
-22.91
-21.61
-19.34
-16.04
-11.72
-6.44
-0.71
5.07
10.65
15.96
21.00
25.76
30.28
34.65
39.02
42.69
45.27
46.72
47.28
47.35
47.30
47.47
48.25
50.04
51.95
53.43
54.39
55.16
55.96
56.88
57.80
58.50
58.78
56.64
50.71
40.26
25.33
5.75
-18.81
-49.18
-86.79
-121.15
-147.04
-162.35
-167.93
-165.89
-159.02
-149.76
-139.86
-130.32
-121.34
-114.26
-109.28
-105.81
-102.47
-98.95
-95.45
-92.53
-90.43
-88.77
-87.79
-86.84
-87.93
-88.30
-87.00
-84.40
-81.59
-79.85
-80.47
-85.49
-95.90
-110.77
-126.19
-136.98
-137.56
-124.26
-97.05
-60.09
-20.75
13.72
38.65
53.45
60.09
62.11
61.37
59.49
57.47
55.80
54.97
55.33
57.03
59.34
61.26
62.20
62.53
63.32
65.84
70.74
77.59
85.01
91.09
94.52
95.23
94.59
94.41
95.89
98.75
101.24
101.18
97.14
89.73
81.74
77.29
80.30
93.44
117.68
152.33
195.01
241.24
284.03
314.76
325.74
313.79
282.84
243.19
207.31
184.16
175.10
173.76
170.11
155.94
128.71
91.79
50.86
9.76
-32.03
-78.55
-133.68
-196.84
-261.12
-315.34
-346.97
-347.03
-313.94
-254.36
-180.94
-108.06
-47.29
-5.25
16.63
20.49
10.19
-9.17
-30.93
-46.86
-48.66
-30.53
7.84
60.46
116.82
165.22
196.52
206.61
196.91
173.30
144.05
117.15
98.09
88.06
83.92
79.71
70.02
53.54
34.66
22.12
24.44
45.29
81.05
122.11
157.40
179.13
185.53
179.95
167.63
152.31
134.85
114.30
90.06
63.83
39.44
20.87
9.88
4.77
1.07
-6.16
-19.97
-40.20
-63.82
-86.91
-106.72
-123.05
-137.98
-154.50
-174.63
-198.53
-224.43
-249.74
-272.57
-292.51
-310.94
-330.63
-355.07
-387.27
-428.37
-476.19
-524.72
-565.18
-588.53
-588.87
-565.61
-523.81
-471.95
-418.61
-369.62
-327.04
-290.09
-257.16
-227.19
-200.06
-175.79
-153.71
-132.34
-109.99
-85.79
-60.24
-35.02
-12.33
6.18
20.02
29.89
37.16
43.12
48.53
53.47
57.64
61.03
64.29
68.80
76.34
88.35
105.62
127.85
154.17
183.38
214.47
246.97
280.87
316.68
355.00
396.27
439.84
483.36
522.18
549.84
560.11
549.30
518.33
472.27
418.45
363.65
312.59
268.18
232.89
209.59
200.70
206.37
222.38
240.28
249.62
241.24
209.80
154.31
77.46
-15.82
-118.48
-221.54
-314.58
-387.85
-435.25
-456.51
-457.21
-446.33
-432.89
-422.86
-418.14
-417.28
-417.17
-414.91
-408.32
-396.40
-378.80
-355.72
-327.54
-294.66
-257.11
-214.42
-166.38
-113.56
-57.88
-2.50
49.00
93.32
128.16
152.36
165.98
170.58
169.71
169.02
175.06
192.70
222.12
257.66
289.45
307.82
307.83
291.52
266.19
239.91
216.99
196.02
171.65
138.36
94.18
42.18
-10.62
-56.03
-87.65
-102.29
-100.47
-85.84
-64.36
-43.04
-27.99
-23.02
-28.56
-42.13
-59.63
-76.93
-91.18
-100.92
-105.73
-105.52
-100.42
-90.80
-77.42
-61.41
-44.21
-27.33
-11.81
1.93
14.43
26.71
39.69
53.31
66.05
75.37
78.70
75.13
66.07
55.07
46.17
42.15
43.31
47.52
51.68
53.20
51.20
46.46
40.74
36.02
33.58
33.74
35.86
38.76
41.23
42.48
42.34
41.14
39.40
37.36
35.01
32.05
28.35
24.05
19.68
15.90
13.17
11.64
11.06
11.14
11.67
12.58
13.87
15.32
16.56
17.10
16.69
15.38
13.50
11.40
9.23
6.85
3.89
0.17
-4.23
-8.89
-13.26
-16.99
-20.02
-22.60
-24.91
-26.93
-28.31
-28.58
-27.39
-24.80
-21.30
-17.62
-14.50
-12.27
-10.93
-10.12
-9.42
-8.47
-7.05
-5.10
-2.57
0.50
3.91
7.28
10.12
11.97
12.58
12.17
11.21
10.41
10.35
11.32
13.27
15.87
18.65
21.08
22.70
23.19
22.40
20.40
17.43
13.88
10.13
6.50
3.20
0.36
-1.88
-3.44
-4.17
-4.05
-3.10
-1.57
0.26
2.02
3.33
3.91
3.54
2.19
0.05
-2.41
-4.52
-5.56
-5.00
-2.74
0.86
5.04
9.04
12.29
14.67
16.49
18.17
20.01
21.90
23.38
23.78
22.67
19.98
16.16
11.93
7.98
4.67
1.75
-1.46
-5.96
-12.57
-21.73
-33.10
-45.41
-56.57
-64.30
-67.11
-65.11
-60.34
-55.90
-54.44
-56.80
-61.27
-64.35
-62.07
-51.76
-33.15
-8.55
17.70
40.08
52.93
51.77
34.72
4.08
-33.40
-67.85
-89.18
-90.52
-70.52
-33.33
13.62
62.79
108.87
149.27
182.75
207.90
222.34
223.65
210.98
186.30
154.06
119.59
87.14
58.80
34.79
14.40
-2.97
-17.46
-28.93
-37.07
-41.58
-41.93
-37.55
-28.29
-15.26
-0.99
11.14
18.24
19.39
16.20
12.12
10.53
12.85
17.88
22.75
25.28
25.63
26.53
31.30
41.17
53.43
62.13
61.21
48.13
26.17
3.02
-12.92
-16.97
-10.29
1.32
11.00
14.90
13.49
10.47
9.68
12.48
17.09
20.08
18.85
13.18
5.26
-2.17
-7.50
-11.25
-15.36
-21.39
-29.24
-36.95
-42.00
-43.02
-40.68
-37.38
-35.74
-37.18
-41.08
-45.49
-48.28
-48.43
-46.34
-43.16
-39.73
-35.84
-30.55
-22.99
-13.55
-4.33
1.45
1.04
-6.30
-18.41
-30.80
-38.78
-39.69
-34.41
-26.84
-21.77
-22.40
-28.65
-37.45
-44.50
-46.85
-44.64
-41.05
-40.77
-47.36
-61.30
-79.22
-95.07
-102.45
-97.56
-81.18
-58.62
-37.48
-24.08
-20.55
-24.20
-29.47
-31.21
-27.20
-18.37
-7.09
4.82
17.04
29.91
43.08
54.80
62.60
64.86
61.83
55.58
48.62
42.61
37.86
33.70
29.56
25.25
21.02
17.14
13.72
10.77
8.41
6.96
6.62
7.45
9.31
12.04
15.56
19.50
22.87
24.08
21.62
14.90
5.00
-5.73
-14.79
-20.91
-24.69
-28.00
-32.75
-39.60
-47.68
-55.11
-60.16
-62.17
-61.71
-60.12
-58.57
-57.57
-56.77
-55.50
-53.33
-50.46
-47.72
-46.11
-46.50
-49.17
-53.71
-59.30
-64.92
-69.90
-73.74
-75.92
-75.31
-70.30
-59.54
-43.09
-23.07
-3.11
13.15
23.98
30.29
34.86
40.42
47.89
55.90
61.84
63.86
62.08
58.67
56.38
57.01
60.84
67.16
75.50
86.19
100.13
117.67
137.79
158.02
175.10
185.95
188.16
180.28
161.79
133.34
97.01
56.28
15.28
-22.36
-54.32
-79.93
-99.52
-113.88
-123.76
-129.89
-133.33
-135.30
-137.00
-138.94
-140.79
-141.55
-140.09
-135.62
-127.95
-117.57
-105.31
-92.28
-79.63
-68.32
-58.91
-51.47
-45.76
-41.33
-37.69
-34.18
-29.98
-24.28
-16.59
-7.10
3.39
13.67
22.70
29.89
35.22
38.99
41.52
43.12
43.98
44.30
44.28
44.13
44.02
44.09
44.46
45.15
46.14
47.21
48.10
48.54
48.30
47.22
45.24
42.47
39.07
35.41
31.79
28.43
25.40
22.55
19.78
17.02
14.32
11.81
9.53
7.49
5.63
4.06
2.95
2.60
3.20
4.73
6.88
9.09
10.83
11.71
11.78
11.39
11.09
11.22
11.81
12.51
12.85
12.47
11.34
9.76
8.18
7.09
6.87
7.66
9.46
11.95
14.62
16.70
17.45
16.44
13.72
10.00
6.28
3.67
2.86
3.94
6.30
8.75
9.75
7.81
1.98
-7.88
-20.80
-35.12
-48.86
-60.32
-68.38
-72.45
-72.43
-68.35
-60.53
-49.64
-36.89
-23.98
-12.75
-4.74
-0.68
-0.42
-2.84
-6.37
-9.32
-10.33
-8.75
-4.56
1.63
9.07
17.17
25.75
34.92
44.75
55.09
65.32
74.71
82.60
88.69
92.96
95.27
95.29
92.31
85.80
75.74
62.96
48.80
34.60
21.14
8.55
-3.15
-13.74
-22.54
-28.91
-32.85
-35.31
-38.03
-42.69
-50.34
-60.74
-72.61
-84.09
-93.31
-98.95
-100.44
-98.13
-93.06
-86.74
-80.54
-75.19
-70.59
-65.85
-60.21
-53.44
-46.28
-40.03
-35.85
-33.75
-32.21
-28.88
-21.74
-10.60
2.71
15.26
24.78
31.08
36.16
43.08
53.95
68.76
85.24
100.23
111.24
117.49
119.88
120.03
119.35
118.41
116.96
114.13
108.60
98.97
84.22
64.49
41.23
17.03
-5.19
-23.12
-35.76
-43.53
-47.62
-49.45
-49.95
-49.64
-48.74
-47.57
-46.73
-46.83
-48.30
-50.95
-54.22
-57.38
-59.98
-62.08
-64.29
-67.35
-71.63
-76.93
-82.39
-87.05
-90.33
-92.44
-94.36
-97.41
-102.64
-110.23
-119.36
-128.35
-135.15
-137.93
-135.39
-127.16
-113.56
-95.63
-74.91
-53.21
-32.43
-14.01
1.15
13.08
22.43
30.20
37.20
43.69
49.40
53.79
56.55
57.80
58.28
58.90
60.48
63.34
67.24
71.61
75.79
79.48
82.77
86.08
89.81
94.02
98.32
101.93
104.16
104.76
104.32
104.00
105.08
108.30
113.40
119.25
124.20
126.95
127.08
125.30
123.16
122.33
123.91
127.65
131.91
133.81
130.02
117.57
94.84
62.13
21.71
-22.43
-65.47
-102.54
-129.85
-145.63
-150.74
-148.52
-143.60
-140.27
-140.48
-143.36
-145.93
-145.25
-140.64
-134.25
-130.13
-131.55
-138.78
-148.17
-153.45
-148.41
-129.60
-97.87
-57.69
-15.47
22.91
53.60
75.22
88.11
93.26
91.58
83.98
72.06
58.63
47.57
42.64
45.92
56.57
70.68
82.69
87.31
81.59
65.77
42.89
17.44
-6.43
-25.73
-39.10
-46.20
-47.32
-43.25
-35.46
-26.44
-19.14
-16.04
-17.85
-23.03
-28.22
-29.92
-26.13
-17.34
-6.36
3.30
9.02
10.14
7.91
4.59
2.44
3.04
6.95
13.66
21.65
28.35
30.55
25.06
10.13
-13.40
-41.60
-68.45
-88.19
-97.51
-96.64
-88.92
-78.95
-70.10
-64.13
-60.27
-55.39
-45.17
-26.16
3.42
43.88
92.79
145.55
196.02
237.95
266.67
280.22
279.61
268.18
250.23
229.46
208.28
187.66
167.59
147.69
127.62
106.96
85.35
61.97
35.32
3.34
-36.02
-83.41
-137.08
-192.47
-243.32
-283.68
-309.94
-321.83
-321.92
-314.14
-302.22
-289.24
-277.64
-269.53
-266.20
-267.27
-270.21
-270.98
-266.10
-254.84
-240.31
-228.53
-225.96
-236.62
-260.49
-293.37
-328.53
-358.35
-376.14
-377.13
-358.60
-319.82
-261.72
-186.60
-98.20
-1.77
96.03
187.95
267.65
331.55
380.02
417.01
448.56
480.54
516.70
557.50
599.86
637.59
662.52
666.15
641.60
585.28
497.90
384.46
253.58
116.15
-16.02
-131.44
-220.89
-278.92
-305.17
-304.62
-286.06
-259.33
-232.44
-209.81
-192.25
-178.31
-166.02
-153.91
-141.56
-129.41
-118.51
-110.36
-106.53
-108.05
-114.87
-125.66
-138.01
-149.34
-157.74
-162.51
-164.09
-163.46
-161.25
-157.06
-149.37
-136.03
-114.95
-84.68
-44.57
4.44
58.77
111.77
154.35
177.69
176.87
153.73
117.07
80.04
54.71
47.65
58.32
81.09
109.18
138.46
168.49
200.80
237.14
276.86
316.79
352.95
382.59
405.38
422.88
436.66
446.55
451.54
448.69
434.01
404.07
357.46
295.73
223.29
146.14
70.46
4.13
-47.16
-81.39
-100.09
-106.67
-103.63
-91.40
-69.18
-36.38
10.07
71.45
146.15
229.89
316.07
397.74
468.98
525.65
543.38
507.78
419.94
298.67
171.39
59.21
-29.23
-94.81
-142.17
-175.98
-196.30
-201.59
-195.42
-183.07
-170.50
-161.77
-158.07
-158.44
-161.52
-163.86
-163.63
-161.92
-159.18
-157.84
-159.73
-165.07
-172.90
-182.09
-190.28
-196.49
-201.84
-209.03
-221.47
-240.55
-264.15
-286.91
-302.37
-304.57
-290.86
-262.72
-224.44
-182.00
-141.07
-106.33
-81.30
-68.33
-67.58
-76.92
-92.33
-109.02
-123.49
-134.20
-141.50
-146.45
-149.76
-151.55
-151.96
-151.80
-152.39
-154.96
-159.32
-163.85
-166.14
-164.38
-158.33
-149.20
-138.93
-128.97
-120.15
-112.78
-107.15
-103.55
-101.82
-100.99
-99.35
-95.19
-87.45
-76.05
-61.36
-43.54
-22.16
3.36
32.80
64.63
95.92
123.41
144.59
158.47
165.47
166.61
162.94
155.10
143.71
129.60
114.16
99.27
87.01
79.24
77.00
80.22
87.53
96.77
105.69
112.76
117.69
121.24
124.67
128.83
133.70
138.36
141.51
142.16
140.16
136.36
132.24
129.45
129.34
132.70
139.69
149.68
161.16
171.65
178.25
178.18
169.99
154.02
132.44
108.46
85.00
63.96
45.76
29.86
15.32
1.17
-13.66
-30.64
-51.37
-77.10
-107.66
-141.18
-174.29
-203.30
-225.43
-239.75
-247.21
-249.74
-249.33
-247.23
-243.95
-239.70
-234.73
-229.18
-222.52
-213.09
-198.35
-176.07
-145.69
-109.21
-71.01
-36.05
-8.13
11.71
24.91
34.07
41.21
46.82
50.28
51.01
49.57
47.48
46.25
45.95
44.80
40.19
30.41
16.29
1.20
-9.99
-13.27
-7.18
6.34
22.50
35.17
38.59
29.30
7.16
-24.12
-57.78
-85.83
-101.68
-102.35
-89.20
-67.02
-41.61
-17.66
2.72
19.96
36.13
53.86
75.44
102.51
135.86
175.24
218.90
263.26
303.12
332.53
346.40
341.89
319.53
282.92
237.46
188.51
139.73
92.37
45.79
-1.06
-48.27
-94.45
-137.20
-174.18
-203.97
-226.26
-241.53
-250.74
-255.03
-255.81
-254.44
-251.56
-246.26
-235.55
-214.89
-179.59
-126.75
-56.98
24.74
109.42
185.86
243.32
274.62
278.35
259.48
227.60
193.42
165.02
145.24
131.99
120.41
106.22
87.74
66.02
43.17
20.39
-2.88
-28.49
-58.08
-91.83
-127.93
-163.11
-193.90
-217.78
-234.01
-243.46
-248.03
-249.36
-247.83
-242.16
-229.92
-209.03
-179.21
-142.93
-104.99
-70.74
-44.09
-26.08
-14.87
-6.99
0.73
10.05
20.96
32.52
43.54
52.89
59.71
63.30
63.52
60.84
56.44
51.77
48.07
46.15
46.66
50.52
58.81
72.07
88.90
105.72
117.66
120.81
114.39
101.20
85.80
71.26
57.26
40.76
18.67
-9.24
-39.58
-66.93
-86.98
-98.85
-105.16
-109.84
-115.40
-121.75
-127.05
-129.76
-130.08
-130.13
-132.44
-138.07
-145.62
-151.45
-151.15
-141.36
-121.09
-91.94
-57.51
-22.01
11.04
39.34
61.66
77.20
85.22
85.15
77.43
64.35
50.29
40.82
40.77
52.39
74.35
102.18
130.03
152.72
167.32
173.72
174.04
171.37
168.66
167.87
169.74
173.98
179.58
185.02
188.70
189.31
186.41
180.79
174.32
169.17
166.54
165.82
164.64
160.18
150.89
137.88
124.81
116.64
117.63
129.47
150.63
176.44
200.63
216.34
217.74
201.53
168.51
124.37
79.25
45.16
32.00
43.55
75.27
115.36
148.61
161.73
147.70
107.12
46.45
-25.61
-101.20
-174.47
-240.39
-293.42
-327.64
-338.99
-328.22
-302.30
-272.68
-250.64
-242.51
-247.26
-258.17
-267.35
-269.80
-265.29
-257.00
-248.52
-241.23
-234.01
-224.38
-210.17
-190.61
-166.26
-138.50
-108.94
-79.23
-50.99
-25.74
-4.54
12.24
25.09
35.36
44.86
55.49
68.55
84.05
100.43
114.94
124.87
128.94
128.28
126.13
126.52
132.12
142.93
156.04
166.72
170.20
163.21
145.20
118.23
86.21
53.52
23.54
-2.12
-23.67
-42.11
-58.32
-72.32
-83.51
-91.49
-96.88
-101.59
-107.94
-117.47
-129.89
-142.82
-152.71
-156.29
-151.86
-139.90
-122.84
-103.97
-86.26
-71.22
-58.67
-47.35
-35.93
-24.01
-12.17
-1.54
7.21
14.17
19.96
24.95
28.55
29.22
25.23
15.82
1.94
-13.99
-29.07
-41.18
-49.70
-55.46
-59.72
-63.31
-66.18
-67.69
-67.33
-65.24
-62.22
-59.04
-56.07
-52.88
-48.60
-42.40
-33.88
-23.13
-10.41
4.01
20.02
37.37
55.55
73.55
90.04
103.75
113.73
119.76
122.29
122.29
120.61
117.54
112.67
105.21
94.70
81.48
66.72
51.68
36.85
21.68
5.24
-12.61
-30.50
-45.72
-55.68
-59.45
-58.46
-55.88
-54.97
-57.55
-63.20
-69.77
-74.41
-74.67
-69.18
-57.74
-41.19
-21.07
0.57
21.60
40.04
54.53
64.33
69.18
69.30
65.26
58.34
50.40
43.59
39.67
39.35
41.95
45.78
49.04
50.50
50.00
48.14
45.80
43.51
41.14
38.20
34.19
29.06
23.21
17.41
12.32
8.26
5.27
3.21
2.04
1.77
2.44
3.82
5.44
6.61
6.75
5.90
4.73
4.54
6.49
11.09
17.75
24.99
31.05
34.57
35.28
33.79
31.20
28.32
25.36
22.07
18.11
13.51
8.65
4.09
0.13
-3.21
-6.08
-8.57
-10.57
-12.01
-12.96
-13.75
-14.67
-15.63
-15.97
-14.88
-12.15
-8.60
-6.03
-6.27
-10.42
-18.41
-29.26
-41.71
-54.57
-66.61
-76.26
-81.45
-80.06
-70.90
-54.55
-33.34
-10.36
12.19
33.50
54.21
74.90
94.96
112.32
124.26
128.80
125.70
116.68
104.68
92.84
83.63
78.40
77.49
80.17
84.76
88.41
87.63
79.42
62.68
39.29
13.62
-8.97
-24.32
-30.94
-30.18
-25.09
-18.80
-13.46
-9.95
-8.52
-9.27
-12.50
-18.26
-25.88
-33.94
-40.69
-44.93
-46.42
-45.89
-44.36
-42.63
-40.96
-39.12
-36.97
-34.70
-33.16
-33.47
-36.69
-43.06
-51.80
-61.07
-68.43
-71.56
-68.71
-59.09
-42.81
-20.90
4.96
32.52
59.16
82.24
99.27
108.32
108.11
98.43
80.19
55.63
27.95
0.67
-23.17
-41.87
-55.12
-63.86
-69.51
-73.42
-76.66
-80.04
-84.44
-90.64
-99.09
-109.26
-119.47
-127.22
-130.10
-127.01
-118.66
-107.47
-96.43
-87.92
-82.88
-80.74
-80.38
-81.02
-82.67
-85.74
-90.25
-95.10
-98.28
-97.83
-92.92
-84.34
-73.82
-63.01
-52.30
-40.81
-27.13
-10.54
8.09
26.63
42.51
54.17
61.74
66.97
72.26
79.35
88.58
98.64
107.41
112.73
113.18
108.09
97.38
81.54
61.93
41.32
23.74
13.65
14.11
25.20
43.57
63.56
79.58
88.18
89.18
84.71
77.72
70.47
64.23
59.89
58.45
61.10
68.31
79.27
91.77
103.09
111.00
114.28
112.70
106.21
94.69
77.95
56.38
31.19
4.37
-21.96
-46.20
-67.37
-85.17
-99.76
-112.10
-123.96
-137.28
-152.99
-169.66
-183.29
-188.42
-180.70
-159.02
-126.38
-88.74
-52.36
-21.53
2.66
21.61
37.66
52.33
65.74
76.86
84.43
87.97
87.90
85.45
81.91
78.02
73.46
66.98
57.21
43.43
26.42
8.29
-8.14
-20.65
-28.49
-32.67
-35.28
-38.25
-42.39
-46.89
-50.04
-50.29
-47.29
-42.30
-37.41
-34.50
-34.11
-35.37
-36.49
-35.92
-33.21
-29.14
-25.30
-22.98
-22.64
-23.67
-24.97
-25.59
-25.14
-23.87
-22.26
-20.81
-19.76
-19.37
-19.85
-21.42
-23.98
-26.96
-29.45
-30.45
-29.65
-27.55
-25.59
-25.52
-28.69
-35.51
-45.00
-55.25
-63.74
-68.35
-68.04
-63.37
-56.55
-50.72
-49.02
-53.20
-62.96
-75.64
-87.01
-92.52
-88.47
-73.05
-46.47
-10.93
30.02
72.04
110.79
142.67
165.49
178.91
184.16
183.72
180.32
176.38
173.51
172.57
173.92
177.39
182.29
186.93
188.79
184.80
172.06
148.65
114.16
70.23
20.60
-29.03
-72.02
-102.13
-115.22
-110.47
-90.34
-59.77
-24.37
10.80
41.94
66.15
81.01
84.70
76.65
58.48
34.09
8.74
-12.85
-28.15
-37.51
-43.40
-48.82
-55.75
-64.24
-72.75
-79.12
-81.78
-80.42
-76.01
-70.28
-64.81
-60.64
-57.93
-56.39
-55.58
-55.38
-56.05
-58.00
-61.60
-66.78
-73.13
-79.85
-86.03
-90.74
-93.10
-92.48
-88.45
-81.06
-70.66
-57.92
-43.61
-28.55
-13.67
0.14
11.85
20.77
26.60
29.71
31.00
31.61
32.64
34.85
38.67
43.94
49.91
55.08
57.59
55.85
49.32
39.12
27.65
17.82
11.75
10.03
11.64
14.63
17.18
18.24
17.82
16.46
14.86
13.35
11.88
10.24
8.17
5.76
3.34
1.48
0.65
0.98
2.19
3.55
4.32
3.97
2.53
0.44
-1.68
-3.37
-4.61
-5.66
-6.90
-8.36
-9.71
-10.25
-9.31
-6.54
-2.15
3.14
8.42
12.81
15.89
17.64
18.42
18.74
19.00
19.42
19.92
20.31
20.30
19.77
18.71
17.27
15.67
14.02
12.35
10.54
8.56
6.41
4.22
2.17
0.31
-1.30
-2.71
-3.90
-4.80
-5.33
-5.55
-5.66
-5.98
-6.77
-7.95
-9.22
-10.06
-10.19
-9.72
-9.19
-9.33
-10.53
-12.67
-14.96
-16.40
-16.30
-14.74
-12.52
-10.76
-10.39
-11.68
-14.36
-17.80
-21.21
-23.72
-24.44
-22.82
-18.87
-13.66
-9.13
-7.71
-11.34
-20.59
-34.13
-48.76
-60.46
-65.51
-61.87
-49.83
-31.81
-11.48
7.68
23.39
35.21
43.96
50.88
56.70
61.42
64.73
66.62
67.86
69.45
72.23
76.08
80.10
83.00
83.84
82.59
80.03
77.46
75.96
75.95
77.03
78.13
77.98
75.54
70.58
63.78
56.77
51.54
49.79
52.22
58.15
65.80
72.73
76.78
76.40
70.97
60.60
45.77
27.27
5.88
-17.37
-41.25
-64.16
-84.37
-100.28
-110.79
-115.80
-116.12
-113.47
-109.70
-106.23
-103.58
-101.38
-98.97
-95.82
-92.11
-88.45
-85.61
-83.94
-83.26
-83.01
-82.61
-81.90
-81.04
-80.43
-80.09
-79.64
-78.50
-76.28
-73.19
-69.90
-67.21
-65.28
-63.57
-60.88
-56.06
-48.64
-38.97
-28.14
-17.25
-7.07
2.24
10.87
18.97
26.37
32.43
36.40
37.59
35.91
32.04
27.46
24.01
23.16
25.42
29.93
35.00
38.92
41.01
41.94
43.43
47.40
54.89
65.71
78.37
90.57
99.63
103.06
99.01
86.64
66.51
40.46
11.40
-17.48
-43.45
-64.70
-80.73
-92.18
-100.61
-107.73
-114.74
-121.53
-126.56
-127.29
-121.36
-107.99
-88.54
-66.37
-45.47
-29.11
-18.81
-14.37
-14.46
-16.85
-18.79
-17.00
-8.72
7.17
28.81
51.33
68.49
75.31
70.60
57.49
42.01
29.98
24.52
25.04
28.49
31.58
32.46
31.38
29.56
28.07
26.97
25.45
22.64
18.19
12.74
7.56
3.99
2.75
3.60
5.50
7.02
7.14
5.56
3.02
0.77
0.07
1.44
4.39
7.68
9.76
9.64
7.15
3.04
-1.49
-5.23
-7.35
-7.62
-6.14
-3.39
0.12
3.76
7.00
9.35
10.50
10.41
9.23
7.41
5.42
3.78
2.78
2.46
2.66
3.04
3.50
4.05
4.98
6.45
8.27
9.92
10.74
10.54
9.85
9.92
12.08
17.09
24.69
33.62
42.38
49.78
55.56
60.12
64.20
68.29
72.39
76.12
78.88
80.28
80.20
78.84
76.56
73.81
71.02
68.46
66.39
64.88
64.03
63.78
63.87
63.76
62.56
59.35
53.41
44.83
34.58
24.51
16.65
12.60
12.88
16.77
22.67
28.62
33.04
35.06
34.63
32.24
28.50
24.00
19.02
13.81
8.62
3.89
0.02
-2.75
-4.51
-5.80
-7.34
-9.77
-13.26
-17.54
-21.91
-25.71
-28.59
-30.63
-32.38
-34.39
-37.12
-40.59
-44.54
-48.48
-51.92
-54.56
-56.26
-57.20
-57.63
-57.93
-58.49
-59.66
-61.72
-64.71
-68.53
-72.75
-76.87
-80.41
-83.18
-85.40
-87.50
-89.96
-92.83
-95.76
-98.01
-98.88
-98.09
-95.80
-92.54
-88.58
-83.77
-77.29
-68.13
-55.57
-39.67
-21.37
-2.06
16.76
33.93
48.30
58.66
63.72
62.66
56.13
46.55
37.72
33.13
34.37
40.14
46.89
50.72
49.18
42.39
32.20
20.86
9.63
-1.37
-12.36
-22.92
-31.57
-36.48
-36.46
-31.72
-23.65
-14.10
-4.53
4.42
12.63
20.06
26.31
30.79
32.99
32.94
31.21
28.73
26.42
24.86
24.35
24.93
26.63
29.47
33.41
38.20
43.14
47.33
49.75
49.71
46.93
41.49
33.80
24.44
14.30
4.58
-3.33
-8.30
-9.93
-8.84
-6.53
-4.61
-4.33
-6.20
-10.22
-16.28
-24.38
-34.46
-46.02
-57.82
-67.88
-74.09
-74.89
-69.85
-59.87
-46.72
-32.46
-18.71
-6.40
4.27
13.37
20.96
27.08
31.97
36.50
41.87
49.15
58.15
67.32
74.11
76.37
73.56
67.00
59.14
51.95
46.01
40.40
33.90
26.21
18.42
12.44
9.47
9.02
8.84
6.12
-1.07
-12.84
-27.39
-42.01
-54.13
-62.24
-65.97
-65.72
-61.98
-54.99
-44.89
-32.15
-18.11
-4.93
4.77
8.91
6.73
-0.89
-11.62
-22.70
-31.92
-38.33
-42.23
-44.60
-46.25
-47.28
-47.22
-45.46
-42.04
-37.69
-33.72
-31.20
-30.33
-30.18
-29.07
-25.48
-18.77
-9.62
0.30
9.08
15.32
18.69
19.80
19.95
20.44
22.38
26.35
32.34
39.72
47.21
53.20
56.07
54.90
49.89
42.37
34.29
27.39
22.50
19.31
16.91
14.37
11.39
8.34
5.81
4.14
3.08
2.10
0.78
-0.77
-1.92
-1.81
0.20
4.35
10.52
18.31
27.11
35.99
43.84
49.65
52.86
53.60
52.52
50.36
47.40
43.35
37.58
29.67
19.96
9.48
-0.24
-7.92
-12.86
-15.24
-15.88
-15.91
-16.38
-17.84
-20.24
-22.97
-25.21
-26.37
-26.43
-25.95
-25.75
-26.42
-27.99
-29.83
-30.98
-30.58
-28.30
-24.50
-20.17
-16.73
-15.69
-18.23
-24.85
-34.98
-46.99
-58.54
-67.14
-71.13
-70.06
-64.89
-57.46
-49.74
-43.26
-38.71
-36.14
-35.14
-35.11
-35.32
-34.96
-33.23
-29.63
-24.24
-17.81
-11.67
-7.29
-5.91
-8.04
-13.34
-20.51
-27.49
-31.81
-30.96
-23.09
-7.57
14.37
39.60
63.59
81.63
90.45
89.27
80.21
67.20
54.45
44.71
38.43
34.18
29.76
23.72
15.98
7.75
0.55
-4.71
-8.24
-11.04
-14.16
-17.94
-21.75
-24.42
-24.97
-23.42
-20.86
-18.94
-18.98
-21.12
-24.21
-26.26
-25.49
-21.16
-13.83
-5.11
3.22
9.77
13.99
15.93
15.94
14.36
11.55
8.12
5.04
3.51
4.38
7.66
12.37
16.94
19.97
20.86
20.02
18.45
17.13
16.48
16.33
16.39
16.66
17.68
20.18
24.49
30.19
36.08
40.79
43.33
43.60
42.23
40.23
38.44
37.26
36.68
36.46
36.48
36.69
37.12
37.60
37.76
37.13
35.43
32.74
29.43
26.07
23.00
20.32
17.75
14.92
11.60
7.72
3.47
-0.94
-5.40
-10.07
-15.28
-21.43
-28.79
-37.32
-46.71
-56.31
-65.41
-73.36
-79.76
-84.61
-88.18
-90.88
-93.08
-94.90
-96.25
-96.90
-96.64
-95.41
-93.17
-89.84
-85.29
-79.47
-72.62
-65.30
-58.16
-51.48
-44.86
-37.32
-27.74
-15.60
-1.32
13.79
28.15
40.57
50.55
58.24
63.95
67.95
70.34
71.27
71.10
70.30
69.23
67.86
65.94
63.30
60.27
57.67
56.51
57.56
60.90
65.99
71.83
77.36
81.59
83.71
83.04
79.08
71.73
61.38
49.00
35.79
22.90
11.08
0.64
-8.41
-16.14
-22.57
-27.79
-32.04
-35.76
-39.46
-43.47
-47.77
-51.93
-55.32
-57.41
-58.18
-58.04
-57.66
-57.66
-58.24
-59.28
-60.44
-61.45
-62.10
-62.19
-61.32
-58.92
-54.53
-48.04
-39.97
-31.19
-22.61
-14.62
-7.00
0.87
9.49
18.77
27.90
35.72
41.24
44.05
44.46
43.32
41.55
39.81
38.32
37.10
36.26
36.27
37.84
41.53
47.24
53.95
59.94
63.42
63.27
59.54
53.48
47.06
42.19
40.07
40.82
43.61
46.96
49.22
48.93
45.18
37.73
27.07
14.29
0.78
-12.15
-23.54
-32.94
-40.44
-46.38
-51.23
-55.33
-58.91
-62.06
-64.80
-67.09
-68.88
-70.09
-70.68
-70.63
-70.00
-68.97
-67.72
-66.35
-64.69
-62.31
-58.65
-53.30
-46.18
-37.72
-28.74
-20.11
-12.48
-5.97
-0.21
5.44
11.62
18.69
26.57
34.86
43.02
50.52
57.05
62.51
66.90
70.17
72.05
72.16
70.19
66.07
60.13
52.96
45.17
37.18
29.19
21.31
13.80
7.02
1.43
-2.77
-5.71
-7.82
-9.61
-11.40
-13.27
-15.05
-16.53
-17.58
-18.10
-18.01
-17.11
-15.11
-11.63
-6.43
0.52
8.73
17.02
23.62
26.43
24.00
16.26
5.06
-6.44
-15.00
-18.85
-18.63
-17.01
-17.24
-21.32
-29.04
-38.12
-45.55
-49.10
-48.24
-44.08
-38.55
-33.42
-29.61
-27.11
-24.97
-21.52
-14.78
-2.96
14.62
36.97
61.25
83.54
100.09
108.63
108.99
102.67
92.06
79.22
65.41
50.99
35.82
19.67
2.51
-15.34
-33.02
-48.84
-60.40
-65.32
-62.30
-52.08
-37.51
-22.65
-11.16
-5.01
-4.02
-6.67
-11.23
-16.73
-23.09
-30.44
-38.37
-45.64
-50.46
-51.31
-47.45
-38.99
-26.60
-11.16
6.37
24.76
42.41
57.40
67.90
72.58
71.09
64.23
53.79
42.24
32.12
25.42
22.94
23.99
26.59
28.14
26.38
20.37
10.89
0.16
-9.04
-14.51
-15.44
-12.58
-7.77
-3.07
0.07
1.24
1.03
0.57
1.05
3.25
7.39
13.15
19.84
26.32
31.16
32.67
29.23
19.82
4.57
-15.03
-36.22
-55.67
-70.37
-78.48
-79.78
-75.59
-68.21
-60.16
-53.46
-49.26
-47.82
-48.55
-50.15
-50.78
-48.46
-41.64
-29.91
-14.41
2.47
17.73
28.83
34.32
34.08
28.95
20.41
10.27
0.50
-6.95
-10.81
-10.92
-8.53
-5.77
-4.68
-6.12
-9.33
-12.37
-13.14
-10.55
-4.88
2.33
9.02
13.39
14.38
11.90
6.75
0.46
-5.04
-7.84
-6.70
-1.48
6.81
16.18
24.45
29.85
31.51
29.49
24.59
17.93
10.72
4.09
-1.04
-3.98
-4.56
-3.10
-0.43
2.34
4.28
4.88
4.23
2.87
1.52
0.76
0.83
1.68
3.03
4.63
6.29
7.94
9.47
10.71
11.41
11.28
10.16
8.02
5.07
1.68
-1.66
-4.50
-6.50
-7.46
-7.38
-6.43
-4.92
-3.19
-1.61
-0.50
-0.04
-0.29
-1.13
-2.30
-3.44
-4.17
-4.25
-3.58
-2.29
-0.57
1.36
3.35
5.28
7.08
8.64
9.76
10.24
9.88
8.65
6.68
4.34
2.06
0.27
-0.76
-1.00
-0.65
0.01
0.69
1.23
1.56
1.65
1.44
0.87
-0.14
-1.55
-3.24
-4.97
-6.48
-7.65
-8.39
-8.79
-8.90
-8.78
-8.40
-7.79
-7.02
-6.21
-5.54
-5.14
-5.01
-5.06
-5.17
-5.22
-5.19
-5.09
-4.95
-4.82
-4.72
-4.68
-4.71
-4.85
-5.07
-5.28
-5.40
-5.31
-4.98
-4.48
-3.94
-3.49
-3.24
-3.15
-3.18
-3.25
-3.30
-3.37
-3.49
-3.73
-4.08
-4.51
-4.89
-5.09
-5.01
-4.55
-3.73
-2.62
-1.37
-0.18
0.72
1.18
1.17
0.80
0.28
-0.15
-0.36
-0.31
-0.10
0.07
0.02
-0.35
-1.01
-1.88
-2.80
-3.64
-4.29
-4.69
-4.85
-4.81
-4.65
-4.46
-4.31
-4.29
-4.45
-4.83
-5.36
-5.96
-6.44
-6.62
-6.37
-5.62
-4.45
-3.03
-1.56
-0.25
0.76
1.44
1.82
2.03
2.19
2.40
2.70
3.02
3.29
3.41
3.40
3.34
3.32
3.40
3.52
3.58
3.46
3.09
2.54
1.96
1.49
1.22
1.17
1.26
1.34
1.22
0.79
-0.05
-1.26
-2.66
-4.00
-4.95
-5.27
-4.83
-3.66
-1.98
-0.05
1.87
3.60
5.05
6.19
7.02
7.53
7.69
7.52
7.10
6.60
6.22
6.14
6.40
6.87
7.24
7.15
6.37
4.91
3.04
1.18
-0.29
-1.16
-1.48
-1.51
-1.53
-1.77
-2.30
-3.05
-3.89
-4.63
-5.10
-5.12
-4.60
-3.57
-2.24
-0.93
-0.00
0.32
0.02
-0.69
-1.48
-2.06
-2.28
-2.10
-1.60
-0.89
-0.03
0.91
1.86
2.68
3.23
3.40
3.22
2.82
2.40
2.10
2.02
2.07
2.12
2.02
1.66
1.07
0.28
-0.65
-1.69
-2.82
-3.93
-4.85
-5.33
-5.20
-4.43
-3.23
-1.91
-0.78
-0.01
0.46
0.79
1.21
1.80
2.51
3.15
3.54
3.55
3.23
2.73
2.24
1.89
1.70
1.62
1.55
1.43
1.29
1.15
1.01
0.83
0.51
-0.01
-0.70
-1.51
-2.35
-3.10
-3.75
-4.33
-4.89
-5.49
-6.18
-6.89
-7.52
-7.87
-7.77
-7.12
-5.93
-4.31
-2.48
-0.62
1.04
2.34
3.10
3.21
2.65
1.57
0.28
-0.87
-1.59
-1.81
-1.60
-1.18
-0.73
-0.37
-0.11
0.08
0.22
0.30
0.26
0.10
-0.16
-0.44
-0.60
-0.58
-0.40
-0.20
-0.18
-0.53
-1.36
-2.59
-4.00
-5.23
-5.95
-5.92
-5.17
-3.86
-2.27
-0.65
0.87
2.21
3.36
4.26
4.82
4.98
4.78
4.36
3.95
3.71
3.68
3.77
3.82
3.76
3.60
3.47
3.47
3.61
3.81
3.86
3.61
3.00
2.12
1.16
0.30
-0.33
-0.77
-1.11
-1.49
-2.01
-2.71
-3.54
-4.42
-5.28
-6.03
-6.57
-6.78
-6.53
-5.75
-4.47
-2.83
-1.07
0.55
1.83
2.71
3.26
3.61
3.91
4.23
4.56
4.86
5.04
5.09
5.06
5.01
5.01
5.02
4.97
4.71
4.18
3.39
2.48
1.60
0.89
0.40
0.05
-0.23
-0.54
-0.92
-1.36
-1.84
-2.35
-2.88
-3.39
-3.77
-3.88
-3.58
-2.82
-1.61
-0.06
1.72
3.55
5.24
6.52
7.15
6.95
5.93
4.32
2.51
0.91
-0.21
-0.77
-0.84
-0.58
-0.10
0.49
1.15
1.75
2.17
2.25
1.94
1.28
0.38
-0.59
-1.51
-2.27
-2.84
-3.19
-3.31
-3.27
-3.19
-3.23
-3.52
-4.05
-4.63
-4.97
-4.80
-3.99
-2.67
-1.12
0.34
1.53
2.43
3.17
3.85
4.43
4.79
4.75
4.28
3.50
2.67
2.04
1.74
1.75
1.92
2.17
2.41
2.65
2.83
2.81
2.45
1.62
0.39
-1.02
-2.28
-3.11
-3.39
-3.25
-2.92
-2.68
-2.69
-2.94
-3.33
-3.71
-4.01
-4.19
-4.29
-4.29
-4.13
-3.78
-3.19
-2.38
-1.47
-0.63
0.03
0.47
0.74
0.99
1.38
1.96
2.70
3.47
4.14
4.59
4.81
4.79
4.58
4.21
3.74
3.26
2.87
2.69
2.71
2.85
2.94
2.82
2.44
1.83
1.13
0.43
-0.14
-0.59
-0.90
-1.11
-1.28
-1.49
-1.83
-2.35
-3.03
-3.71
-4.20
-4.31
-3.96
-3.26
-2.39
-1.55
-0.86
-0.31
0.20
0.82
1.64
2.66
3.78
4.82
5.59
5.95
5.85
5.39
4.75
4.15
3.78
3.67
3.72
3.78
3.69
3.43
3.06
2.69
2.39
2.18
1.96
1.66
1.28
0.86
0.55
0.44
0.49
0.58
0.48
0.05
-0.73
-1.73
-2.72
-3.47
-3.83
-3.76
-3.28
-2.51
-1.54
-0.49
0.58
1.54
2.35
2.91
3.21
3.27
3.16
2.99
2.86
2.87
3.03
3.34
3.73
4.15
4.56
4.97
5.38
5.72
5.92
5.85
5.42
4.61
3.51
2.27
1.09
0.12
-0.57
-1.02
-1.32
-1.62
-2.00
-2.54
-3.18
-3.85
-4.44
-4.85
-5.00
-4.81
-4.27
-3.41
-2.35
-1.23
-0.23
0.52
0.96
1.11
1.04
0.87
0.69
0.56
0.51
0.55
0.67
0.87
1.14
1.48
1.86
2.27
2.65
2.94
3.13
3.21
3.20
3.06
2.77
2.30
1.66
0.94
0.23
-0.33
-0.69
-0.86
-0.90
-0.87
-0.87
-0.99
-1.32
-1.95
-2.86
-3.99
-5.12
-5.99
-6.38
-6.12
-5.20
-3.70
-1.85
0.08
1.77
2.96
3.49
3.38
2.83
2.11
1.45
0.96
0.63
0.37
0.17
0.12
0.38
1.07
2.14
3.39
4.57
5.51
6.16
6.56
6.71
6.48
5.71
4.28
2.33
0.26
-1.47
-2.49
-2.76
-2.52
-2.14
-1.89
-1.87
-1.96
-2.08
-2.21
-2.42
-2.80
-3.30
-3.73
-3.86
-3.58
-2.90
-1.98
-0.99
0.01
1.02
2.10
3.25
4.37
5.32
5.91
6.07
5.82
5.29
4.66
4.08
3.67
3.43
3.33
3.29
3.22
3.12
2.95
2.74
2.45
2.04
1.48
0.79
0.06
-0.59
-1.09
-1.44
-1.68
-1.92
-2.24
-2.69
-3.23
-3.81
-4.36
-4.85
-5.27
-5.58
-5.69
-5.46
-4.76
-3.49
-1.71
0.41
2.61
4.58
6.10
7.06
7.50
7.52
7.19
6.57
5.74
4.79
3.90
3.29
3.12
3.35
3.80
4.10
3.98
3.33
2.26
1.07
0.04
-0.62
-0.96
-1.11
-1.28
-1.56
-1.97
-2.41
-2.80
-3.11
-3.39
-3.80
-4.47
-5.49
-6.76
-8.06
-9.10
-9.60
-9.43
-8.62
-7.33
-5.81
-4.30
-3.02
-2.03
-1.32
-0.78
-0.26
0.31
0.92
1.47
1.85
1.99
1.97
1.93
2.03
2.30
2.67
3.00
3.18
3.26
3.37
3.67
4.14
4.66
4.94
4.76
4.03
2.86
1.48
0.14
-0.95
-1.70
-2.14
-2.36
-2.54
-2.87
-3.51
-4.49
-5.72
-6.93
-7.82
-8.13
-7.76
-6.82
-5.56
-4.29
-3.20
-2.35
-1.68
-1.03
-0.26
0.68
1.76
2.86
3.83
4.58
5.09
5.39
5.57
5.65
5.66
5.55
5.31
4.98
4.64
4.38
4.26
4.25
4.26
4.18
3.96
3.62
3.23
2.82
2.40
1.90
1.25
0.39
-0.69
-1.90
-3.14
-4.31
-5.30
-6.03
-6.49
-6.67
-6.57
-6.23
-5.63
-4.73
-3.51
-2.01
-0.42
0.96
1.86
2.11
1.72
0.96
0.13
-0.50
-0.89
-1.12
-1.36
-1.75
-2.28
-2.84
-3.28
-3.54
-3.62
-3.59
-3.54
-3.51
-3.51
-3.63
-4.10
-5.29
-7.57
-11.01
-15.23
-19.42
-22.58
-24.13
-24.22
-23.81
-24.31
-26.83
-31.61
-37.83
-44.05
-48.85
-51.37
-51.44
-49.33
-45.41
-40.04
-33.72
-27.22
-21.69
-18.21
-17.36
-18.81
-21.42
-23.66
-24.32
-22.98
-20.01
-16.14
-11.93
-7.42
-2.08
4.78
13.52
23.83
34.62
44.45
52.17
57.32
60.44
62.69
65.32
69.05
73.77
78.60
82.31
83.87
82.82
79.40
74.24
67.98
60.86
52.53
42.34
29.83
15.36
0.26
-13.42
-23.79
-29.85
-31.96
-31.51
-30.12
-28.90
-27.94
-26.68
-24.50
-21.42
-18.12
-15.61
-14.60
-15.02
-16.12
-16.87
-16.57
-15.15
-13.13
-11.19
-9.80
-8.93
-8.12
-6.77
-4.50
-1.37
2.09
5.07
6.77
6.84
5.59
4.03
3.48
5.14
9.45
15.92
23.36
30.41
36.12
40.16
42.67
43.88
43.76
42.07
38.65
33.77
28.19
22.87
18.52
15.28
12.70
10.07
6.86
2.97
-1.21
-5.03
-7.86
-9.35
-9.52
-8.78
-7.84
-7.48
-8.41
-11.01
-15.08
-19.86
-24.25
-27.25
-28.50
-28.51
-28.45
-29.55
-32.42
-36.67
-41.07
-44.12
-44.80
-42.90
-38.97
-33.78
-27.89
-21.40
-14.17
-6.19
2.18
10.23
17.25
22.85
27.07
30.36
33.17
35.75
37.91
39.11
38.72
36.39
32.24
26.85
21.17
16.13
12.38
10.03
8.68
7.63
6.16
3.95
1.10
-1.85
-4.29
-5.72
-5.98
-5.26
-3.93
-2.51
-1.53
-1.49
-2.72
-5.25
-8.64
-11.99
-14.17
-14.20
-11.67
-6.84
-0.53
6.25
12.56
17.73
21.24
22.65
21.65
18.27
13.25
8.04
4.53
4.16
7.08
11.77
15.48
15.52
10.57
1.45
-9.19
-18.09
-22.83
-22.81
-19.04
-13.32
-7.16
-1.23
4.51
10.22
15.60
19.90
22.29
22.50
21.04
19.10
17.95
18.31
20.16
22.68
24.86
25.91
25.68
24.63
23.45
22.73
22.53
22.47
21.88
20.24
17.40
13.70
9.86
6.62
4.65
4.26
5.52
8.08
11.36
14.47
16.46
16.60
14.54
10.57
5.38
-0.15
-5.36
-10.01
-14.19
-18.15
-21.95
-25.43
-28.21
-30.02
-30.78
-30.76
-30.35
-29.87
-29.41
-28.85
-28.00
-26.77
-25.29
-23.88
-22.83
-22.33
-22.31
-22.53
-22.65
-22.37
-21.51
-19.98
-17.86
-15.28
-12.43
-9.49
-6.63
-3.87
-1.15
1.60
4.49
7.45
10.29
12.62
14.10
14.55
14.11
13.24
12.45
12.02
11.72
10.96
9.01
5.51
0.71
-4.55
-9.15
-12.16
-13.05
-11.77
-8.56
-3.75
2.26
8.95
15.65
21.63
26.33
29.50
31.29
32.02
32.03
31.42
30.16
28.17
25.53
22.50
19.43
16.62
14.19
12.11
10.31
8.76
7.40
6.06
4.44
2.10
-1.29
-5.93
-11.73
-18.48
-25.95
-34.04
-42.72
-51.85
-61.17
-70.09
-77.97
-84.00
-87.34
-87.18
-82.79
-73.87
-60.82
-44.97
-28.27
-12.84
-0.17
9.37
16.43
22.35
28.30
34.94
42.23
49.71
56.96
63.69
69.84
75.19
79.41
81.94
82.34
80.46
76.56
71.20
64.98
58.44
51.85
45.41
39.17
33.16
27.34
21.63
16.04
10.73
6.08
2.55
0.39
-0.56
-1.00
-1.89
-4.15
-8.14
-13.56
-19.58
-25.22
-29.76
-32.91
-34.81
-35.70
-35.81
-35.17
-33.81
-31.86
-29.69
-27.83
-26.72
-26.53
-27.06
-27.83
-28.32
-28.11
-27.01
-24.99
-22.14
-18.64
-14.76
-10.90
-7.49
-4.91
-3.33
-2.68
-2.73
-3.19
-3.76
-4.21
-4.23
-3.53
-1.87
0.83
4.31
8.11
11.62
14.40
16.28
17.33
17.79
17.90
17.81
17.55
17.18
16.72
16.20
15.56
14.68
13.39
11.58
9.32
6.83
4.41
2.31
0.60
-0.85
-2.29
-3.94
-5.92
-8.18
-10.60
-13.03
-15.39
-17.65
-19.82
-21.97
-24.09
-26.19
-28.25
-30.16
-31.78
-32.95
-33.49
-33.21
-32.01
-29.86
-26.79
-22.97
-18.59
-13.91
-9.23
-4.75
-0.61
3.20
6.83
10.46
14.17
17.89
21.38
24.30
26.45
27.77
28.45
28.79
29.11
29.65
30.47
31.57
32.82
34.10
35.22
36.04
36.46
36.44
36.06
35.38
34.46
33.16
31.31
28.69
25.33
21.52
17.80
14.72
12.52
10.96
9.31
6.75
2.79
-2.35
-7.71
-11.92
-13.63
-11.96
-6.63
1.90
12.51
23.37
32.33
37.34
37.17
31.93
23.02
12.67
2.97
-4.81
-10.49
-14.54
-17.56
-19.79
-21.10
-21.38
-20.80
-19.92
-19.41
-19.62
-20.42
-21.27
-21.58
-21.04
-19.82
-18.48
-17.69
-17.91
-19.06
-20.70
-22.16
-22.88
-22.61
-21.50
-19.84
-17.96
-16.06
-14.20
-12.41
-10.72
-9.20
-7.92
-6.89
-6.04
-5.28
-4.56
-3.92
-3.45
-3.22
-3.22
-3.34
-3.42
-3.35
-3.11
-2.81
-2.61
-2.67
-3.02
-3.51
-3.93
-4.07
-3.87
-3.41
-2.93
-2.64
-2.60
-2.76
-2.92
-2.87
-2.48
-1.76
-0.84
0.08
0.79
1.22
1.35
1.33
1.29
1.32
1.41
1.42
1.21
0.69
-0.07
-0.89
-1.52
-1.78
-1.62
-1.14
-0.57
-0.11
0.06
-0.06
-0.40
-0.82
-1.20
-1.47
-1.63
-1.71
-1.74
-1.75
-1.75
-1.80
-1.95
-2.26
-2.76
-3.44
-4.23
-4.99
-5.60
-5.87
-5.70
-5.04
-3.98
-2.73
-1.56
-0.70
-0.23
-0.08
-0.10
-0.11
-0.04
0.10
0.22
0.27
0.21
0.08
-0.03
-0.06
-0.01
0.12
0.28
0.42
0.49
0.47
0.30
-0.06
-0.64
-1.42
-2.34
-3.30
-4.12
-4.67
-4.81
-4.57
-4.05
-3.49
-3.14
-3.21
-3.76
-4.66
-5.67
-6.48
-6.86
-6.72
-6.10
-5.16
-4.06
-2.95
-1.88
-0.90
-0.00
0.76
1.36
1.76
1.91
1.83
1.53
1.08
0.55
0.02
-0.40
-0.66
-0.75
-0.75
-0.78
-1.03
-1.60
-2.46
-3.45
-4.31
-4.75
-4.66
-4.16
-3.51
-3.06
-3.05
-3.53
-4.40
-5.42
-6.32
-6.81
-6.64
-5.56
-3.48
-0.49
3.06
6.60
9.57
11.53
12.40
12.33
11.72
10.90
10.05
9.21
8.29
7.28
6.18
5.16
4.34
3.82
3.56
3.41
3.17
2.73
2.07
1.31
0.61
0.09
-0.24
-0.45
-0.66
-0.96
-1.41
-1.94
-2.46
-2.90
-3.22
-3.47
-3.71
-4.05
-4.52
-5.07
-5.58
-5.84
-5.75
-5.23
-4.37
-3.37
-2.42
-1.66
-1.16
-0.88
-0.73
-0.64
-0.56
-0.50
-0.43
-0.36
-0.30
-0.23
-0.17
-0.12
-0.15
-0.29
-0.62
-1.14
-1.84
-2.60
-3.29
-3.81
-4.08
-4.14
-4.05
-3.92
-3.85
-3.85
-3.97
-4.20
-4.56
-5.11
-5.82
-6.63
-7.36
-7.81
-7.76
-7.12
-5.96
-4.49
-2.98
-1.65
-0.59
0.24
0.92
1.56
2.17
2.70
3.07
3.23
3.16
2.92
2.60
2.30
2.09
1.98
1.98
2.05
2.16
2.29
2.39
2.44
2.36
2.15
1.78
1.26
0.61
-0.17
-1.02
-1.93
-2.85
-3.75
-4.61
-5.41
-6.17
-6.85
-7.42
-7.79
-7.88
-7.59
-6.87
-5.78
-4.43
-3.02
-1.76
-0.80
-0.14
0.31
0.75
1.29
1.95
2.60
3.04
3.13
2.84
2.30
1.69
1.20
0.91
0.77
0.70
0.60
0.43
0.21
-0.00
-0.14
-0.21
-0.24
-0.31
-0.51
-0.86
-1.37
-1.96
-2.56
-3.10
-3.55
-3.97
-4.42
-4.93
-5.42
-5.75
-5.75
-5.34
-4.58
-3.68
-2.87
-2.30
-1.97
-1.74
-1.43
-1.01
-0.56
-0.30
-0.40
-0.89
-1.63
-2.43
-3.08
-3.53
-3.74
-3.77
-3.62
-3.33
-2.96
-2.65
-2.66
-3.25
-4.60
-6.70
-9.22
-11.63
-13.28
-13.62
-12.38
-9.70
-6.01
-1.99
1.78
4.94
7.41
9.40
11.14
12.82
14.49
15.97
17.03
17.42
16.97
15.66
13.60
11.03
8.20
5.38
2.80
0.66
-0.91
-1.83
-2.13
-1.90
-1.33
-0.65
-0.11
0.09
-0.10
-0.65
-1.35
-1.95
-2.26
-2.21
-1.95
-1.75
-1.86
-2.35
-3.10
-3.79
-4.17
-4.14
-3.79
-3.38
-3.17
-3.27
-3.64
-4.13
-4.56
-4.81
-4.83
-4.59
-4.12
-3.43
-2.60
-1.76
-1.00
-0.41
0.01
0.27
0.48
0.67
0.85
1.02
1.12
1.16
1.14
1.13
1.17
1.27
1.40
1.46
1.39
1.14
0.75
0.34
0.00
-0.20
-0.27
-0.32
-0.43
-0.63
-0.88
-1.08
-1.17
-1.15
-1.07
-1.02
-1.05
-1.18
-1.37
-1.64
-1.92
-2.14
-2.19
-1.96
-1.42
-0.64
0.18
0.89
1.35
1.58
1.67
1.71
1.75
1.79
1.84
1.89
1.99
2.13
2.29
2.41
2.43
2.32
2.11
1.86
1.62
1.40
1.20
1.00
0.80
0.62
0.52
0.51
0.59
0.68
0.70
0.58
0.29
-0.08
-0.45
-0.68
-0.79
-0.87
-1.10
-1.60
-2.33
-3.09
-3.53
-3.40
-2.62
-1.31
0.21
1.61
2.64
3.23
3.45
3.45
3.39
3.37
3.43
3.54
3.66
3.67
3.52
3.16
2.68
2.20
1.93
2.00
2.37
2.84
3.08
2.83
1.98
0.71
-0.62
-1.66
-2.14
-2.07
-1.67
-1.22
-0.91
-0.80
-0.88
-1.06
-1.37
-1.82
-2.40
-3.00
-3.43
-3.51
-3.14
-2.41
-1.50
-0.66
-0.04
0.33
0.56
0.76
0.98
1.21
1.37
1.40
1.30
1.16
1.10
1.17
1.36
1.52
1.49
1.17
0.59
-0.09
-0.67
-1.02
-1.12
-1.06
-0.99
-0.96
-0.99
-1.02
-1.02
-1.00
-0.96
-0.95
-0.96
-1.00
-1.09
-1.27
-1.61
-2.14
-2.79
-3.45
-3.98
-4.26
-4.27
-4.06
-3.70
-3.26
-2.76
-2.22
-1.64
-1.04
-0.51
-0.07
0.24
0.50
0.77
1.13
1.58
2.02
2.30
2.30
1.99
1.47
0.93
0.55
0.44
0.61
0.95
1.34
1.63
1.75
1.68
1.49
1.24
1.02
0.86
0.78
0.77
0.78
0.82
0.87
0.92
0.91
0.81
0.59
0.27
-0.11
-0.49
-0.81
-1.06
-1.21
-1.25
-1.16
-0.89
-0.50
-0.00
0.49
0.93
1.26
1.45
1.52
1.44
1.25
0.98
0.72
0.58
0.62
0.83
1.15
1.44
1.61
1.61
1.51
1.39
1.35
1.44
1.65
1.90
2.10
2.13
1.95
1.58
1.09
0.60
0.13
-0.32
-0.83
-1.48
-2.21
-2.94
-3.47
-3.68
-3.51
-3.07
-2.47
-1.87
-1.35
-0.92
-0.56
-0.25
-0.06
0.02
-0.04
-0.19
-0.39
-0.54
-0.60
-0.58
-0.48
-0.31
-0.05
0.31
0.76
1.25
1.70
2.04
2.23
2.29
2.22
2.03
1.71
1.29
0.87
0.56
0.49
0.64
0.92
1.14
1.13
0.86
0.36
-0.20
-0.75
-1.25
-1.75
-2.30
-2.94
-3.59
-4.13
-4.45
-4.45
-4.12
-3.50
-2.69
-1.76
-0.84
0.00
0.70
1.18
1.40
1.35
1.06
0.62
0.19
-0.10
-0.18
-0.06
0.16
0.33
0.39
0.33
0.24
0.25
0.45
0.79
1.18
1.45
1.52
1.41
1.17
0.93
0.72
0.55
0.40
0.30
0.27
0.28
0.22
-0.14
-0.93
-2.14
-3.52
-4.70
-5.31
-5.18
-4.45
-3.43
-2.47
-1.73
-1.20
-0.73
-0.16
0.54
1.25
1.76
1.86
1.50
0.80
0.00
-0.63
-0.90
-0.76
-0.33
0.20
0.68
1.01
1.20
1.31
1.38
1.43
1.41
1.25
0.96
0.56
0.18
-0.10
-0.22
-0.19
-0.12
-0.11
-0.19
-0.37
-0.57
-0.74
-0.88
-1.02
-1.19
-1.38
-1.50
-1.43
-1.04
-0.35
0.57
1.54
2.40
3.03
3.38
3.43
3.17
2.63
1.81
0.83
-0.19
-1.06
-1.62
-1.81
-1.65
-1.29
-0.90
-0.63
-0.55
-0.65
-0.82
-0.92
-0.84
-0.55
-0.09
0.40
0.80
1.02
1.04
0.90
0.69
0.45
0.22
-0.02
-0.26
-0.47
-0.62
-0.68
-0.67
-0.67
-0.76
-1.02
-1.43
-1.92
-2.36
-2.63
-2.67
-2.53
-2.32
-2.19
-2.21
-2.36
-2.51
-2.52
-2.34
-1.98
-1.58
-1.24
-1.02
-0.87
-0.69
-0.42
-0.11
0.08
0.03
-0.28
-0.70
-0.98
-0.92
-0.51
0.04
0.39
0.28
-0.33
-1.22
-2.07
-2.64
-2.88
-2.91
-2.92
-2.99
-3.14
-3.27
-3.33
-3.32
-3.28
-3.24
-3.16
-2.94
-2.47
-1.74
-0.85
0.07
0.83
1.35
1.64
1.77
1.83
1.86
1.87
1.85
1.83
1.86
2.02
2.35
2.82
3.39
3.92
4.32
4.47
4.36
3.97
3.37
2.66
1.95
1.36
0.90
0.57
0.29
-0.01
-0.32
-0.61
-0.83
-1.00
-1.15
-1.39
-1.74
-2.18
-2.62
-3.00
-3.31
-3.58
-3.86
-4.13
-4.30
-4.25
-3.89
-3.24
-2.44
-1.67
-1.08
-0.74
-0.62
-0.61
-0.59
-0.48
-0.26
0.05
0.38
0.65
0.79
0.77
0.58
0.30
0.04
-0.12
-0.10
0.05
0.28
0.49
0.62
0.65
0.61
0.58
0.62
0.73
0.86
0.92
0.82
0.53
0.05
-0.52
-1.14
-1.73
-2.26
-2.68
-2.95
-3.02
-2.87
-2.51
-2.02
-1.48
-0.97
-0.53
-0.22
-0.10
-0.18
-0.45
-0.82
-1.16
-1.36
-1.37
-1.24
-1.05
-0.87
-0.68
-0.44
-0.11
0.29
0.68
0.97
1.14
1.25
1.38
1.58
1.77
1.86
1.71
1.30
0.70
0.05
-0.49
-0.85
-1.03
-1.10
-1.16
-1.30
-1.57
-1.96
-2.42
-2.86
-3.14
-3.17
-2.87
-2.29
-1.48
-0.58
0.31
1.12
1.83
2.46
3.05
3.61
4.10
4.45
4.56
4.39
3.96
3.38
2.81
2.40
2.22
2.25
2.39
2.52
2.54
2.42
2.16
1.81
1.40
0.97
0.57
0.24
-0.01
-0.17
-0.33
-0.57
-0.92
-1.38
-1.89
-2.37
-2.83
-3.28
-3.75
-4.20
-4.54
-4.64
-4.41
-3.86
-3.04
-2.10
-1.14
-0.24
0.53
1.15
1.60
1.88
2.00
2.00
1.87
1.65
1.33
0.99
0.72
0.62
0.76
1.07
1.47
1.78
1.95
1.97
1.93
1.87
1.75
1.51
1.09
0.51
-0.13
-0.65
-0.95
-1.00
-0.85
-0.60
-0.29
0.09
0.62
1.31
2.08
2.71
2.99
2.79
2.17
1.38
0.71
0.44
0.70
1.40
2.33
3.21
3.85
4.11
4.02
3.63
3.06
2.41
1.77
1.17
0.64
0.22
-0.11
-0.30
-0.33
-0.25
-0.09
0.08
0.21
0.26
0.20
0.03
-0.24
-0.59
-1.02
-1.49
-1.92
-2.27
-2.44
-2.39
-2.15
-1.83
-1.60
-1.63
-1.99
-2.66
-3.41
-3.98
-4.13
-3.75
-2.96
-1.99
-1.14
-0.56
-0.28
-0.18
-0.10
0.05
0.29
0.52
0.69
0.79
0.87
1.01
1.22
1.43
1.52
1.38
1.08
0.79
0.78
1.24
2.18
3.39
4.53
5.24
5.32
4.82
3.96
3.05
2.33
1.91
1.74
1.75
1.80
1.85
1.90
1.90
1.82
1.62
1.27
0.81
0.33
-0.08
-0.37
-0.55
-0.65
-0.74
-0.84
-0.98
-1.11
-1.20
-1.18
-1.05
-0.78
-0.42
0.00
0.43
0.79
1.06
1.21
1.27
1.26
1.26
1.32
1.51
1.81
2.19
2.56
2.82
2.96
2.99
2.99
3.02
3.09
3.12
2.99
2.61
1.96
1.13
0.25
-0.56
-1.21
-1.66
-1.92
-2.03
-2.03
-2.02
-2.10
-2.34
-2.76
-3.29
-3.80
-4.16
-4.30
-4.23
-4.04
-3.74
-3.34
-2.79
-2.06
-1.16
-0.18
0.71
1.41
1.87
2.16
2.40
2.66
2.96
3.22
3.37
3.40
3.39
3.46
3.69
4.06
4.42
4.59
4.41
3.86
3.04
2.10
1.19
0.39
-0.28
-0.86
-1.35
-1.76
-2.10
-2.32
-2.44
-2.49
-2.49
-2.49
-2.47
-2.40
-2.25
-2.04
-1.84
-1.80
-1.98
-2.35
-2.77
-2.99
-2.85
-2.29
-1.45
-0.57
0.10
0.44
0.47
0.39
0.40
0.63
1.06
1.55
1.91
2.03
1.92
1.72
1.61
1.71
2.02
2.44
2.81
3.04
3.08
3.01
2.92
2.87
2.89
2.90
2.82
2.60
2.24
1.81
1.35
0.92
0.49
0.02
-0.54
-1.17
-1.83
-2.48
-3.08
-3.66
-4.27
-4.95
-5.66
-6.28
-6.64
-6.58
-6.06
-5.13
-3.98
-2.81
-1.78
-0.92
-0.13
0.70
1.63
2.59
3.39
3.82
3.79
3.39
2.81
2.30
2.01
1.93
1.99
2.05
2.07
2.07
2.09
2.17
2.30
2.39
2.41
2.33
2.18
2.00
1.79
1.52
1.11
0.51
-0.24
-1.04
-1.77
-2.34
-2.74
-3.04
-3.39
-3.95
-4.85
-6.17
-7.89
-9.89
-11.95
-13.76
-15.05
-15.70
-15.80
-15.60
-15.43
-15.50
-15.79
-16.15
-16.33
-16.16
-15.62
-14.74
-13.53
-11.91
-9.76
-7.03
-3.83
-0.47
2.70
5.39
7.61
9.57
11.59
13.83
16.20
18.34
19.87
20.55
20.36
19.57
18.41
17.05
15.45
13.57
11.46
9.43
7.85
6.96
6.67
6.48
5.70
3.87
0.98
-2.48
-5.73
-8.08
-9.28
-9.46
-9.11
-8.67
-8.33
-7.94
-7.20
-5.90
-4.17
-2.46
-1.30
-1.05
-1.60
-2.42
-2.82
-2.28
-0.75
1.36
3.31
4.47
4.52
3.57
2.01
0.31
-1.17
-2.29
-3.03
-3.51
-3.80
-3.98
-4.03
-3.90
-3.57
-3.04
-2.42
-1.82
-1.35
-1.04
-0.81
-0.59
-0.32
-0.10
-0.04
-0.27
-0.75
-1.31
-1.73
-1.85
-1.66
-1.30
-0.92
-0.60
-0.25
0.31
1.26
2.55
3.95
5.05
5.51
5.21
4.34
3.31
2.50
2.15
2.23
2.57
2.91
3.12
3.21
3.22
3.24
3.25
3.18
2.98
2.64
2.24
1.89
1.70
1.72
1.95
2.29
2.61
2.74
2.55
1.97
1.03
-0.10
-1.20
-1.98
-2.25
-1.94
-1.18
-0.28
0.33
0.25
-0.74
-2.63
-5.16
-7.84
-10.18
-11.77
-12.44
-12.27
-11.47
-10.23
-8.66
-6.78
-4.59
-2.26
-0.07
1.62
2.59
2.84
2.69
2.51
2.55
2.79
2.92
2.57
1.50
-0.23
-2.29
-4.18
-5.40
-5.57
-4.54
-2.40
0.52
3.71
6.60
8.76
9.99
10.40
10.38
10.45
11.11
12.69
15.18
18.20
21.06
22.96
23.20
21.49
18.01
13.42
8.56
4.22
0.90
-1.15
-2.00
-1.83
-0.92
0.38
1.65
2.52
2.72
2.21
1.17
-0.12
-1.33
-2.24
-2.80
-3.08
-3.20
-3.27
-3.34
-3.38
-3.34
-3.19
-2.93
-2.67
-2.49
-2.47
-2.62
-2.86
-3.07
-3.15
-3.08
-2.86
-2.60
-2.36
-2.25
-2.32
-2.57
-2.96
-3.37
-3.63
-3.55
-3.00
-1.93
-0.46
1.15
2.58
3.55
3.96
3.90
3.55
3.03
2.30
1.13
-0.75
-3.45
-6.78
-10.25
-13.24
-15.27
-16.07
-15.71
-14.33
-12.17
-9.37
-6.07
-2.46
1.14
4.36
6.81
8.19
8.40
7.48
5.71
3.51
1.40
-0.07
-0.56
0.03
1.39
3.04
4.48
5.44
6.00
6.46
7.16
8.21
9.42
10.40
10.75
10.24
8.80
6.51
3.41
-0.36
-4.52
-8.52
-11.67
-13.38
-13.52
-12.57
-11.32
-10.55
-10.52
-10.95
-11.18
-10.67
-9.25
-7.23
-5.17
-3.49
-2.35
-1.64
-1.20
-0.99
-1.21
-2.16
-3.89
-6.13
-8.11
-8.99
-8.07
-5.20
-0.99
3.46
6.97
8.75
8.67
7.22
5.20
3.33
2.04
1.39
1.27
1.49
1.91
2.41
2.90
3.37
3.88
4.62
5.80
7.52
9.63
11.77
13.42
14.12
13.67
12.13
9.87
7.41
5.31
4.09
4.16
5.76
8.80
12.91
17.33
21.20
23.73
24.53
23.71
21.78
19.46
17.28
15.44
13.75
11.91
9.80
7.63
5.98
5.39
6.15
8.03
10.43
12.63
14.07
14.55
14.06
12.60
10.05
6.37
1.85
-2.63
-5.67
-5.87
-2.46
4.17
12.64
20.98
27.42
30.85
30.92
27.84
22.02
14.01
4.55
-5.31
-14.24
-21.03
-24.92
-25.96
-24.90
-22.87
-20.83
-19.36
-18.46
-17.89
-17.42
-16.97
-16.65
-16.53
-16.50
-16.23
-15.23
-13.25
-10.48
-7.68
-5.91
-6.12
-8.62
-12.94
-17.96
-22.49
-25.75
-27.63
-28.55
-28.97
-29.04
-28.47
-26.79
-23.90
-20.29
-17.08
-15.55
-16.58
-20.19
-25.47
-30.90
-34.83
-36.11
-34.41
-30.31
-24.98
-19.70
-15.40
-12.39
-10.41
-8.97
-7.70
-6.54
-5.66
-5.25
-5.22
-5.20
-4.66
-3.30
-1.20
1.19
3.36
5.05
6.53
8.45
11.51
16.04
21.66
27.45
32.27
35.28
36.24
35.57
34.03
32.30
30.62
28.79
26.30
22.79
18.25
13.17
8.25
4.19
1.36
-0.22
-0.73
-0.44
0.53
2.05
4.03
6.33
8.82
11.51
14.60
18.39
23.11
28.76
35.09
41.66
48.05
53.92
59.01
63.14
66.19
68.20
69.47
70.44
71.53
72.81
73.73
73.26
70.21
63.73
53.68
40.75
26.29
11.95
-0.72
-10.50
-16.71
-19.29
-18.79
-16.23
-12.90
-10.03
-8.46
-8.47
-9.82
-11.94
-14.32
-16.72
-19.29
-22.40
-26.35
-31.11
-36.24
-41.05
-44.75
-46.74
-46.63
-44.33
-39.98
-33.93
-26.80
-19.35
-12.34
-6.29
-1.41
2.33
5.02
6.53
6.57
4.87
1.47
-3.09
-7.96
-12.27
-15.51
-17.73
-19.43
-21.25
-23.71
-26.93
-30.64
-34.32
-37.44
-39.72
-41.23
-42.39
-43.68
-45.35
-47.19
-48.56
-48.62
-46.70
-42.55
-36.43
-28.97
-20.93
-13.08
-6.08
-0.48
3.46
5.89
7.43
9.07
11.78
16.01
21.43
26.94
31.03
32.45
30.74
26.49
21.16
16.50
13.92
13.99
16.40
20.17
24.18
27.57
29.95
31.32
31.84
31.60
30.47
28.19
24.61
19.97
14.98
10.86
8.91
10.13
14.71
21.83
29.85
36.70
40.60
40.50
36.38
29.00
19.64
9.66
0.21
-7.90
-14.30
-19.02
-22.33
-24.59
-26.06
-26.86
-26.90
-25.84
-23.19
-18.50
-11.80
-3.87
3.75
9.32
11.65
10.66
7.45
3.77
1.13
0.21
0.64
1.49
1.79
0.98
-1.00
-3.96
-7.63
-11.80
-16.26
-20.80
-25.14
-28.90
-31.61
-32.72
-31.95
-29.57
-26.56
-24.26
-23.78
-25.34
-28.01
-30.24
-30.59
-28.51
-24.55
-19.95
-15.97
-13.32
-12.04
-11.69
-11.80
-12.07
-12.42
-12.83
-13.22
-13.39
-13.14
-12.32
-10.87
-8.86
-6.47
-3.98
-1.76
-0.09
0.82
1.00
0.70
0.30
0.18
0.51
1.20
1.97
2.48
2.52
2.16
1.70
1.48
1.73
2.43
3.37
4.19
4.66
4.69
4.40
3.93
3.38
2.74
1.99
1.13
0.30
-0.36
-0.76
-0.99
-1.30
-1.94
-3.05
-4.54
-6.14
-7.51
-8.44
-8.86
-8.89
-8.67
-8.34
-7.95
-7.47
-6.86
-6.07
-5.12
-4.09
-3.09
-2.23
-1.59
-1.19
-0.96
-0.83
-0.74
-0.67
-0.57
-0.47
-0.33
-0.18
-0.07
-0.09
-0.35
-0.84
-1.49
-2.11
-2.57
-2.81
-2.84
-2.77
-2.67
-2.61
-2.63
-2.78
-3.10
-3.64
-4.40
-5.31
-6.22
-6.93
-7.29
-7.22
-6.76
-6.04
-5.20
-4.38
-3.66
-3.02
-2.41
-1.77
-1.13
-0.51
0.00
0.41
0.74
1.09
1.47
1.87
2.19
2.32
2.24
2.02
1.78
1.64
1.64
1.73
1.80
1.76
1.59
1.30
0.92
0.49
0.02
-0.47
-0.93
-1.32
-1.63
-1.88
-2.14
-2.48
-2.93
-3.46
-3.97
-4.35
-4.53
-4.51
-4.33
-4.07
-3.81
-3.62
-3.52
-3.53
-3.58
-3.61
-3.49
-3.17
-2.60
-1.83
-0.98
-0.17
0.48
0.92
1.15
1.25
1.31
1.41
1.59
1.82
2.04
2.20
2.25
2.24
2.22
2.22
2.25
2.28
2.24
2.12
1.93
1.68
1.40
1.05
0.60
0.04
-0.58
-1.18
-1.63
-1.86
-1.83
-1.57
-1.18
-0.74
-0.35
-0.06
0.13
0.26
0.42
0.64
0.97
1.37
1.78
2.13
2.35
2.43
2.36
2.15
1.87
1.57
1.32
1.17
1.13
1.18
1.29
1.41
1.51
1.56
1.58
1.57
1.52
1.41
1.24
0.99
0.69
0.33
-0.08
-0.50
-0.91
-1.25
-1.43
-1.40
-1.15
-0.70
-0.16
0.38
0.76
0.92
0.80
0.47
0.02
-0.38
-0.58
-0.46
-0.02
0.68
1.48
2.23
2.80
3.10
3.11
2.84
2.35
1.75
1.14
0.61
0.23
-0.00
-0.16
-0.35
-0.66
-1.12
-1.70
-2.27
-2.76
-3.10
-3.35
-3.59
-3.87
-4.18
-4.40
-4.45
-4.26
-3.87
-3.38
-2.91
-2.49
-2.09
-1.65
-1.15
-0.66
-0.29
-0.19
-0.38
-0.79
-1.22
-1.50
-1.54
-1.36
-1.06
-0.76
-0.53
-0.32
-0.09
0.20
0.52
0.80
0.94
0.84
0.48
-0.11
-0.84
-1.56
-2.16
-2.54
-2.73
-2.82
-2.98
-3.29
-3.81
-4.46
-5.10
-5.61
-5.92
-6.10
-6.21
-6.39
-6.69
-7.13
-7.66
-8.17
-8.52
-8.63
-8.51
-8.31
-8.24
-8.53
-9.34
-10.72
-12.52
-14.37
-15.71
-15.84
-14.19
-10.58
-5.42
0.33
5.44
8.86
10.12
9.36
7.09
3.78
-0.33
-5.29
-11.15
-17.71
-24.40
-30.43
-35.11
-38.03
-39.09
-38.39
-36.10
-32.43
-27.79
-22.75
-18.05
-14.29
-11.69
-10.00
-8.64
-7.04
-4.97
-2.62
-0.45
1.09
1.81
1.87
1.62
1.44
1.61
2.22
3.23
4.54
6.06
7.78
9.75
12.06
14.87
18.30
22.47
27.46
33.37
40.23
47.98
56.50
65.78
75.96
87.44
100.69
115.87
132.45
149.02
163.41
173.16
176.10
170.94
157.55
137.12
111.94
84.98
59.33
37.46
20.70
9.11
1.71
-2.88
-5.92
-8.28
-10.47
-12.73
-15.16
-17.66
-20.04
-22.10
-23.82
-25.57
-27.91
-31.27
-35.68
-40.54
-44.97
-48.10
-49.60
-49.64
-48.72
-47.34
-45.82
-44.34
-43.03
-42.10
-41.67
-41.72
-42.03
-42.25
-42.10
-41.52
-40.61
-39.56
-38.54
-37.55
-36.57
-35.54
-34.54
-33.70
-33.12
-32.85
-32.76
-32.62
-32.23
-31.50
-30.43
-29.11
-27.59
-25.86
-23.85
-21.51
-18.85
-16.02
-13.23
-10.69
-8.40
-6.20
-3.75
-0.74
2.97
7.24
11.78
16.24
20.49
24.59
28.78
33.28
38.12
43.09
47.82
51.96
55.38
58.23
60.83
63.44
66.02
68.10
68.90
67.61
63.64
56.85
47.48
36.09
23.37
9.99
-3.41
-16.24
-27.93
-37.90
-45.72
-51.17
-54.27
-55.40
-55.23
-54.60
-54.37
-55.19
-57.27
-60.37
-63.91
-67.18
-69.73
-71.41
-72.48
-73.43
-74.89
-77.39
-81.23
-86.28
-91.83
-96.58
-98.84
-97.06
-90.38
-79.08
-64.56
-49.04
-34.80
-23.56
-16.02
-11.77
-9.74
-8.64
-7.49
-5.91
-4.02
-2.24
-0.93
-0.16
0.34
0.97
2.07
3.70
5.67
7.67
9.46
11.02
12.51
14.19
16.19
18.45
20.66
22.37
23.17
22.88
21.70
20.11
18.77
18.18
18.51
19.53
20.78
21.82
22.47
22.89
23.44
24.54
26.35
28.73
31.28
33.51
35.02
35.57
35.14
33.84
31.91
29.62
27.36
25.46
24.18
23.63
23.69
24.10
24.55
24.78
24.66
24.17
23.40
22.50
21.80
21.72
22.71
24.96
28.24
31.83
34.79
36.27
35.91
33.96
31.01
27.69
24.45
21.45
18.84
16.91
16.10
16.76
18.74
21.23
22.88
22.43
19.19
13.43
6.20
-1.23
-7.85
-13.30
-17.67
-21.23
-23.92
-25.36
-25.03
-22.68
-18.72
-14.21
-10.56
-8.95
-9.88
-12.90
-16.85
-20.36
-22.43
-22.89
-22.24
-21.32
-20.76
-20.78
-21.15
-21.62
-22.14
-22.89
-24.20
-26.25
-29.02
-32.25
-35.61
-38.66
-40.91
-41.79
-40.90
-38.34
-34.78
-31.35
-29.15
-28.66
-29.54
-30.75
-31.09
-29.69
-26.31
-21.26
-15.15
-8.77
-2.95
1.45
3.75
3.63
1.39
-2.07
-5.53
-7.83
-8.37
-7.15
-4.72
-1.84
0.79
2.73
3.84
4.13
3.74
2.86
1.69
0.39
-0.93
-2.20
-3.48
-4.75
-6.03
-7.22
-8.20
-8.89
-9.22
-9.20
-8.79
-7.86
-6.23
-3.69
-0.18
4.09
8.66
12.90
16.25
18.43
19.56
20.10
20.56
21.38
22.67
24.27
25.90
27.26
28.20
28.65
28.55
27.89
26.69
25.09
23.31
21.62
20.11
18.66
17.04
15.11
13.02
11.22
10.25
10.36
11.30
12.36
12.67
11.65
9.22
5.79
1.94
-1.82
-5.16
-7.88
-9.80
-10.71
-10.47
-9.20
-7.30
-5.40
-4.09
-3.76
-4.51
-6.12
-8.19
-10.26
-11.94
-12.95
-13.25
-12.95
-12.28
-11.51
-10.80
-10.23
-9.74
-9.25
-8.69
-8.01
-7.18
-6.12
-4.65
-2.42
0.98
5.78
11.71
17.75
22.23
23.31
19.87
12.09
1.71
-8.55
-16.03
-19.07
-17.48
-12.34
-5.28
2.29
9.48
15.93
21.43
25.63
28.19
28.89
27.99
26.14
24.15
22.56
21.44
20.45
19.03
16.80
13.74
10.29
7.15
5.03
4.33
4.90
6.03
6.59
5.51
2.22
-2.91
-8.61
-13.07
-14.56
-12.24
-6.56
0.84
7.64
11.74
12.03
8.84
3.63
-1.47
-4.63
-4.90
-2.34
2.26
7.91
13.83
19.66
25.20
30.15
33.98
35.99
35.71
33.15
29.03
24.53
20.90
18.89
18.59
19.41
20.39
20.73
20.00
18.27
15.84
13.10
10.21
7.17
3.95
0.52
-2.86
-5.90
-8.27
-9.84
-10.76
-11.39
-12.16
-13.26
-14.65
-15.95
-16.64
-16.28
-14.64
-11.82
-8.17
-4.31
-0.94
1.20
1.69
0.53
-1.71
-4.00
-5.25
-4.77
-2.59
0.64
3.88
6.22
7.23
6.95
5.85
4.41
3.02
1.85
0.93
0.24
-0.26
-0.52
-0.55
-0.34
0.01
0.30
0.30
-0.20
-1.22
-2.64
-4.08
-5.23
-5.87
-6.05
-6.08
-6.40
-7.41
-9.32
-12.04
-15.17
-18.05
-19.99
-20.46
-19.31
-16.83
-13.67
-10.51
-7.88
-5.94
-4.52
-3.33
-2.08
-0.74
0.62
1.83
2.85
3.75
4.72
5.98
7.55
9.38
11.20
12.73
13.71
14.05
13.80
13.15
12.30
11.35
10.35
9.26
8.11
7.05
6.29
5.97
6.00
5.99
5.32
3.49
0.31
-3.89
-8.41
-12.45
-15.44
-17.26
-18.15
-18.54
-18.74
-18.82
-18.71
-18.25
-17.50
-16.64
-15.87
-15.20
-14.34
-12.86
-10.38
-7.02
-3.30
-0.10
1.74
1.75
0.02
-2.93
-6.47
-10.00
-13.30
-16.25
-18.81
-20.89
-22.29
-22.93
-22.79
-22.02
-20.83
-19.49
-18.34
-17.76
-18.18
-19.85
-22.85
-26.91
-31.61
-36.47
-41.21
-45.73
-50.06
-54.28
-58.32
-62.04
-65.18
-67.45
-68.59
-68.27
-66.23
-62.24
-56.33
-48.75
-39.91
-30.17
-19.68
-8.49
3.45
15.85
28.07
38.96
47.12
51.23
50.52
45.26
36.86
27.71
20.43
16.95
17.75
21.71
26.70
30.58
32.21
31.78
30.49
29.65
29.83
30.68
31.22
30.58
28.46
25.27
21.68
18.27
15.18
12.23
9.18
5.95
2.72
-0.12
-2.22
-3.32
-3.35
-2.35
-0.50
1.93
4.56
6.87
8.25
8.23
6.57
3.41
-0.66
-4.78
-7.97
-9.44
-8.81
-6.24
-2.42
1.65
4.94
6.68
6.57
4.82
2.02
-1.06
-3.64
-5.12
-5.12
-3.51
-0.51
3.43
7.68
11.59
14.69
16.84
18.16
19.02
19.84
20.95
22.56
24.71
27.28
30.00
32.45
34.11
34.53
33.41
30.78
26.98
22.52
17.93
13.58
9.61
6.05
2.89
0.21
-1.86
-3.19
-3.79
-3.80
-3.45
-2.95
-2.43
-2.00
-1.81
-2.08
-3.14
-5.23
-8.39
-12.36
-16.54
-20.20
-22.63
-23.34
-22.18
-19.33
-15.27
-10.64
-6.14
-2.37
0.26
1.68
2.07
1.96
1.96
2.64
4.33
7.00
10.26
13.44
15.89
17.12
16.98
15.67
13.65
11.43
9.40
7.78
6.56
5.59
4.71
3.83
2.97
2.22
1.68
1.41
1.36
1.42
1.48
1.45
1.30
1.08
0.87
0.78
0.96
1.53
2.55
4.05
5.95
8.08
10.25
12.24
13.85
14.97
15.52
15.52
15.02
14.19
13.17
12.14
11.17
10.33
9.64
9.15
8.99
9.27
10.04
11.18
12.53
13.80
14.76
15.24
15.20
14.63
13.60
12.17
10.39
8.37
6.19
3.94
1.72
-0.44
-2.53
-4.66
-6.92
-9.40
-12.02
-14.47
-16.26
-16.79
-15.73
-13.17
-9.78
-6.53
-4.39
-3.94
-5.15
-7.49
-10.21
-12.61
-14.29
-15.09
-15.06
-14.35
-13.11
-11.57
-9.99
-8.67
-7.85
-7.62
-7.89
-8.49
-9.18
-9.75
-9.95
-9.62
-8.66
-7.18
-5.49
-4.07
-3.42
-3.84
-5.30
-7.44
-9.70
-11.52
-12.55
-12.69
-12.05
-10.89
-9.52
-8.33
-7.75
-8.19
-9.89
-12.76
-16.29
-19.73
-22.28
-23.38
-22.95
-21.32
-19.12
-16.95
-15.14
-13.67
-12.18
-10.17
-7.28
-3.37
1.38
6.66
12.09
17.45
22.62
27.56
32.17
36.28
39.79
42.78
45.63
48.84
52.80
57.54
62.61
67.24
70.63
72.30
72.20
70.73
68.42
65.80
63.14
60.48
57.64
54.39
50.58
46.19
41.39
36.51
31.81
27.39
23.15
18.85
14.27
9.41
4.55
0.07
-3.67
-6.57
-8.82
-10.82
-12.96
-15.53
-18.59
-21.96
-25.34
-28.36
-30.62
-31.80
-31.72
-30.42
-28.14
-25.29
-22.30
-19.53
-17.26
-15.64
-14.71
-14.49
-14.85
-15.56
-16.28
-16.64
-16.39
-15.48
-14.09
-12.55
-11.17
-10.12
-9.37
-8.82
-8.33
-7.80
-7.17
-6.46
-5.77
-5.19
-4.89
-4.97
-5.44
-6.15
-6.84
-7.21
-7.09
-6.49
-5.54
-4.48
-3.44
-2.47
-1.51
-0.52
0.48
1.40
2.12
2.56
2.74
2.78
2.79
2.81
2.77
2.56
2.13
1.45
0.62
-0.29
-1.21
-2.18
-3.23
-4.41
-5.66
-6.90
-8.03
-8.97
-9.70
-10.18
-10.35
-10.09
-9.32
-8.04
-6.34
-4.38
-2.35
-0.37
1.44
3.08
4.52
5.83
7.13
8.53
10.09
11.71
13.12
14.00
14.12
13.51
12.41
11.22
10.26
9.66
9.35
9.15
8.89
8.46
7.88
7.14
6.26
5.24
4.10
2.92
1.84
0.96
0.31
-0.17
-0.61
-1.11
-1.66
-2.13
-2.30
-1.96
-1.05
0.28
1.75
3.01
3.81
4.01
3.67
2.96
2.05
1.09
0.13
-0.78
-1.63
-2.36
-2.88
-3.20
-3.36
-3.56
-3.97
-4.74
-5.83
-7.05
-8.10
-8.70
-8.74
-8.25
-7.45
-6.56
-5.77
-5.18
-4.80
-4.60
-4.54
-4.63
-4.78
-4.91
-4.84
-4.41
-3.57
-2.36
-0.96
0.42
1.56
2.41
2.97
3.33
3.59
3.74
3.76
3.58
3.19
2.61
1.97
1.45
1.17
1.20
1.48
1.88
2.24
2.45
2.44
2.24
1.87
1.37
0.78
0.13
-0.56
-1.28
-2.04
-2.86
-3.78
-4.76
-5.72
-6.47
-6.83
-6.68
-6.02
-4.99
-3.79
-2.59
-1.50
-0.59
0.16
0.69
0.97
0.98
0.77
0.48
0.26
0.22
0.33
0.49
0.53
0.34
-0.12
-0.74
-1.37
-1.83
-1.99
-1.81
-1.35
-0.75
-0.15
0.31
0.54
0.50
0.16
-0.48
-1.36
-2.37
-3.34
-4.06
-4.35
-4.13
-3.47
-2.56
-1.63
-0.85
-0.28
0.13
0.51
0.93
1.41
1.89
2.30
2.59
2.75
2.81
2.75
2.53
2.09
1.47
0.74
0.07
-0.41
-0.65
-0.72
-0.75
-0.86
-1.11
-1.47
-1.86
-2.20
-2.49
-2.73
-2.93
-3.11
-3.25
-3.34
-3.31
-3.11
-2.67
-1.96
-1.00
0.12
1.21
2.07
2.56
2.65
2.40
1.96
1.46
0.99
0.56
0.12
-0.33
-0.77
-1.11
-1.26
-1.18
-0.90
-0.52
-0.11
0.22
0.47
0.62
0.68
0.63
0.48
0.22
-0.14
-0.58
-1.09
-1.64
-2.21
-2.75
-3.17
-3.40
-3.39
-3.17
-2.77
-2.27
-1.72
-1.13
-0.53
0.07
0.63
1.09
1.37
1.45
1.32
0.98
0.47
-0.18
-0.89
-1.60
-2.20
-2.57
-2.67
-2.52
-2.25
-2.03
-2.06
-2.41
-3.04
-3.79
-4.47
-4.95
-5.17
-5.19
-5.07
-4.90
-4.72
-4.58
-4.54
-4.64
-4.96
-5.44
-5.97
-6.33
-6.30
-5.78
-4.78
-3.51
-2.22
-1.15
-0.39
0.11
0.50
0.92
1.42
1.91
2.24
2.30
2.08
1.70
1.34
1.16
1.20
1.40
1.61
1.70
1.61
1.40
1.18
1.08
1.11
1.21
1.19
0.93
0.41
-0.26
-0.85
-1.17
-1.18
-0.98
-0.73
-0.59
-0.57
-0.56
-0.42
-0.11
0.35
0.83
1.19
1.40
1.46
1.46
1.46
1.47
1.46
1.39
1.24
1.00
0.74
0.53
0.41
0.45
0.62
0.86
1.07
1.15
1.01
0.66
0.14
-0.50
-1.18
-1.80
-2.30
-2.58
-2.54
-2.14
-1.38
-0.37
0.64
1.39
1.57
1.04
-0.17
-1.82
-3.52
-4.90
-5.69
-5.79
-5.27
-4.33
-3.16
-1.97
-0.92
-0.15
0.27
0.33
0.08
-0.35
-0.85
-1.34
-1.77
-2.11
-2.32
-2.34
-2.13
-1.66
-1.03
-0.38
0.10
0.29
0.17
-0.15
-0.53
-0.86
-1.11
-1.34
-1.62
-2.01
-2.45
-2.87
-3.16
-3.28
-3.24
-3.07
-2.81
-2.47
-2.06
-1.61
-1.18
-0.85
-0.64
-0.56
-0.54
-0.52
-0.44
-0.28
-0.04
0.27
0.60
0.92
1.19
1.40
1.55
1.70
1.89
2.11
2.27
2.27
2.01
1.49
0.80
0.07
-0.56
-1.04
-1.38
-1.63
-1.87
-2.10
-2.32
-2.48
-2.49
-2.32
-1.98
-1.52
-1.02
-0.56
-0.18
0.11
0.33
0.50
0.62
0.68
0.70
0.73
0.80
0.91
1.00
1.00
0.86
0.58
0.32
0.20
0.33
0.72
1.25
1.76
2.05
2.07
1.84
1.52
1.26
1.16
1.18
1.20
1.06
0.61
-0.15
-1.21
-2.43
-3.64
-4.69
-5.37
-5.57
-5.22
-4.39
-3.24
-2.00
-0.95
-0.24
0.02
-0.06
-0.35
-0.63
-0.73
-0.60
-0.23
0.31
0.96
1.64
2.29
2.83
3.18
3.31
3.25
3.18
3.26
3.60
4.15
4.70
4.93
4.63
3.82
2.72
1.75
1.27
1.48
2.32
3.59
5.03
6.48
7.92
9.43
11.06
12.79
14.44
15.79
16.52
16.39
15.17
12.79
9.36
5.30
1.33
-1.65
-2.61
-0.75
4.24
11.92
21.02
29.68
36.02
38.69
37.35
32.64
25.90
18.54
11.56
5.30
-0.37
-5.79
-11.13
-16.30
-21.00
-25.00
-28.18
-30.59
-32.34
-33.43
-33.75
-33.08
-31.28
-28.42
-24.82
-21.01
-17.52
-14.76
-12.84
-11.68
-11.07
-10.74
-10.47
-10.11
-9.60
-9.01
-8.53
-8.31
-8.46
-8.84
-9.17
-9.11
-8.46
-7.28
-5.82
-4.42
-3.32
-2.55
-2.01
-1.54
-1.15
-0.93
-1.10
-1.73
-2.77
-3.95
-4.95
-5.52
-5.53
-5.04
-4.18
-3.12
-1.98
-0.84
0.20
1.05
1.56
1.68
1.44
1.02
0.66
0.57
0.78
1.16
1.51
1.60
1.42
1.07
0.76
0.64
0.78
1.09
1.44
1.76
2.05
2.37
2.75
3.17
3.51
3.60
3.35
2.76
1.95
1.05
0.24
-0.37
-0.77
-0.99
-1.11
-1.20
-1.25
-1.24
-1.07
-0.68
-0.05
0.76
1.63
2.42
3.02
3.38
3.52
3.47
3.29
3.02
2.73
2.50
2.44
2.59
2.93
3.36
3.72
3.86
3.73
3.34
2.80
2.23
1.69
1.28
1.03
0.99
1.14
1.42
1.67
1.73
1.47
0.91
0.20
-0.46
-0.86
-0.94
-0.77
-0.47
-0.15
0.17
0.54
1.03
1.61
2.13
2.37
2.20
1.59
0.69
-0.24
-0.97
-1.34
-1.30
-0.90
-0.26
0.41
0.88
0.95
0.53
-0.33
-1.38
-2.31
-2.86
-2.91
-2.54
-1.92
-1.32
-0.90
-0.75
-0.85
-1.11
-1.37
-1.49
-1.36
-0.95
-0.30
0.44
1.14
1.69
2.09
2.36
2.61
2.88
3.20
3.49
3.71
3.82
3.85
3.84
3.80
3.69
3.43
3.01
2.52
2.11
1.95
2.06
2.37
2.66
2.71
2.41
1.75
0.88
-0.02
-0.74
-1.17
-1.28
-1.14
-0.90
-0.71
-0.67
-0.78
-0.96
-1.13
-1.22
-1.22
-1.14
-0.97
-0.68
-0.25
0.29
0.83
1.23
1.39
1.33
1.22
1.24
1.50
1.98
2.47
2.75
2.66
2.17
1.46
0.78
0.33
0.22
0.37
0.60
0.69
0.51
0.05
-0.56
-1.17
-1.65
-1.97
-2.18
-2.35
-2.51
-2.60
-2.55
-2.35
-2.04
-1.71
-1.45
-1.23
-0.99
-0.58
0.02
0.76
1.45
1.90
2.05
1.95
1.79
1.70
1.73
1.83
1.85
1.71
1.45
1.16
0.95
0.87
0.87
0.86
0.77
0.62
0.50
0.47
0.55
0.65
0.60
0.23
-0.55
-1.71
-3.07
-4.35
-5.28
-5.63
-5.35
-4.54
-3.44
-2.34
-1.44
-0.82
-0.37
0.07
0.64
1.38
2.16
2.83
3.22
3.27
3.00
2.56
2.08
1.67
1.37
1.12
0.85
0.42
-0.24
-1.16
-2.25
-3.30
-4.11
-4.50
-4.42
-3.96
-3.32
-2.69
-2.19
-1.88
-1.73
-1.70
-1.75
-1.86
-1.98
-2.08
-2.11
-2.07
-1.99
-1.93
-1.94
-2.01
-2.09
-2.11
-1.97
-1.64
-1.09
-0.42
0.30
0.93
1.36
1.52
1.41
1.08
0.66
0.28
-0.00
-0.14
-0.16
-0.13
-0.11
-0.16
-0.31
-0.58
-0.93
-1.35
-1.75
-2.08
-2.30
-2.40
-2.37
-2.25
-2.04
-1.74
-1.38
-0.97
-0.54
-0.14
0.24
0.57
0.86
1.11
1.27
1.29
1.11
0.73
0.19
-0.37
-0.83
-1.07
-1.05
-0.79
-0.33
0.24
0.87
1.51
2.11
2.54
2.68
2.47
1.89
1.08
0.26
-0.37
-0.71
-0.80
-0.81
-0.92
-1.20
-1.63
-2.05
-2.34
-2.45
-2.41
-2.33
-2.26
-2.24
-2.22
-2.18
-2.11
-2.03
-1.93
-1.77
-1.49
-0.96
-0.17
0.87
2.08
3.30
4.39
5.18
5.56
5.42
4.74
3.54
1.96
0.21
-1.42
-2.62
-3.15
-2.90
-1.96
-0.53
1.12
2.73
4.07
4.96
5.22
4.73
3.46
1.54
-0.67
-2.69
-4.04
-4.40
-3.74
-2.31
-0.48
1.37
2.98
4.22
5.04
5.41
5.30
4.67
3.60
2.26
0.96
0.06
-0.23
0.14
0.98
2.02
2.92
3.48
3.60
3.32
2.79
2.14
1.56
1.18
1.07
1.25
1.61
2.01
2.26
2.24
1.94
1.40
0.75
0.04
-0.67
-1.40
-2.07
-2.63
-2.96
-3.03
-2.86
-2.59
-2.37
-2.29
-2.35
-2.46
-2.54
-2.53
-2.44
-2.34
-2.26
-2.21
-2.13
-1.94
-1.60
-1.10
-0.52
0.08
0.60
1.02
1.31
1.49
1.54
1.45
1.22
0.87
0.48
0.11
-0.21
-0.52
-0.86
-1.20
-1.44
-1.40
-0.93
0.01
1.22
2.41
3.22
3.45
3.11
2.34
1.38
0.39
-0.54
-1.41
-2.19
-2.80
-3.14
-3.07
-2.57
-1.76
-0.89
-0.26
-0.14
-0.66
-1.75
-3.13
-4.41
-5.17
-5.10
-4.11
-2.38
-0.29
1.71
3.27
4.20
4.48
4.17
3.36
2.07
0.33
-1.70
-3.76
-5.46
-6.41
-6.37
-5.38
-3.72
-1.83
-0.15
1.00
1.48
1.33
0.75
0.01
-0.61
-0.87
-0.63
0.08
1.13
2.28
3.26
3.84
3.90
3.47
2.68
1.76
0.93
0.33
-0.02
-0.23
-0.38
-0.57
-0.72
-0.70
-0.33
0.47
1.66
3.05
4.35
5.29
5.69
5.49
4.72
3.46
1.83
0.01
-1.79
-3.30
-4.30
-4.66
-4.40
-3.66
-2.66
-1.59
-0.65
0.03
0.38
0.43
0.29
0.14
0.13
0.35
0.75
1.21
1.56
1.71
1.67
1.50
1.30
1.18
1.16
1.21
1.26
1.23
1.09
0.81
0.47
0.13
-0.10
-0.20
-0.12
0.11
0.42
0.72
0.85
0.68
0.09
-0.91
-2.24
-3.71
-5.07
-6.13
-6.74
-6.89
-6.64
-6.14
-5.62
-5.29
-5.33
-5.78
-6.52
-7.30
-7.80
-7.70
-6.88
-5.42
-3.64
-2.02
-1.03
-0.99
-1.94
-3.68
-5.82
-7.94
-9.74
-11.07
-11.89
-12.17
-11.84
-10.84
-9.20
-7.16
-5.11
-3.54
-2.78
-3.00
-4.11
-5.87
-8.04
-10.42
-12.84
-15.11
-17.01
-18.29
-18.76
-18.37
-17.24
-15.67
-14.00
-12.53
-11.41
-10.64
-10.14
-9.81
-9.58
-9.40
-9.18
-8.70
-7.73
-6.06
-3.73
-1.01
1.65
3.80
5.15
5.64
5.43
4.73
3.74
2.63
1.52
0.57
-0.07
-0.28
-0.06
0.59
1.60
2.93
4.57
6.47
8.53
10.55
12.35
13.73
14.66
15.14
15.27
15.10
14.58
13.69
12.44
10.97
9.52
8.37
7.71
7.53
7.72
8.05
8.41
8.74
9.11
9.59
10.18
10.81
11.33
11.65
11.69
11.52
11.20
10.81
10.38
9.88
9.29
8.60
7.86
7.16
6.56
6.07
5.62
5.15
4.58
3.92
3.27
2.79
2.61
2.77
3.21
3.75
4.24
4.57
4.78
4.99
5.37
5.99
6.79
7.62
8.29
8.72
8.98
9.30
9.99
11.26
13.13
15.40
17.73
19.78
21.38
22.52
23.26
23.62
23.49
22.71
21.19
19.04
16.58
14.18
12.09
10.36
8.84
7.39
5.94
4.56
3.33
2.29
1.29
0.12
-1.45
-3.51
-5.98
-8.66
-11.23
-13.32
-14.58
-14.76
-13.76
-11.78
-9.30
-6.94
-5.28
-4.59
-4.82
-5.60
-6.51
-7.20
-7.52
-7.50
-7.19
-6.57
-5.57
-4.20
-2.55
-0.89
0.50
1.46
2.05
2.49
3.01
3.73
4.52
5.17
5.53
5.65
5.78
6.23
7.18
8.54
9.96
11.00
11.35
10.90
9.78
8.19
6.23
3.94
1.33
-1.47
-4.19
-6.45
-7.99
-8.78
-9.03
-9.14
-9.44
-10.05
-10.93
-11.88
-12.75
-13.38
-13.64
-13.28
-11.98
-9.54
-6.08
-2.24
0.90
2.09
0.44
-4.23
-11.22
-19.16
-26.52
-32.06
-35.21
-36.03
-35.04
-32.88
-30.08
-27.08
-24.17
-21.61
-19.43
-17.42
-15.07
-11.86
-7.51
-2.24
3.20
7.86
10.87
11.87
11.06
9.04
6.62
4.53
3.32
3.23
4.26
6.11
8.33
10.43
12.04
13.05
13.54
13.73
13.74
13.64
13.36
12.87
12.20
11.41
10.58
9.64
8.52
7.13
5.53
3.88
2.44
1.39
0.73
0.33
-0.08
-0.68
-1.55
-2.59
-3.62
-4.47
-5.08
-5.51
-5.87
-6.34
-6.98
-7.79
-8.65
-9.37
-9.87
-10.12
-10.23
-10.29
-10.40
-10.53
-10.63
-10.66
-10.62
-10.56
-10.52
-10.46
-10.29
-9.89
-9.22
-8.29
-7.24
-6.21
-5.31
-4.54
-3.86
-3.17
-2.43
-1.64
-0.83
-0.04
0.71
1.46
2.24
3.09
3.95
4.80
5.54
6.13
6.56
6.86
7.06
7.18
7.22
7.15
6.97
6.67
6.25
5.72
5.11
4.46
3.81
3.19
2.61
2.11
1.72
1.47
1.37
1.37
1.38
1.32
1.19
1.04
0.93
0.90
0.84
0.68
0.32
-0.18
-0.71
-1.09
-1.24
-1.16
-0.99
-0.90
-0.97
-1.28
-1.76
-2.31
-2.76
-2.89
-2.58
-1.84
-0.90
-0.10
0.24
0.00
-0.67
-1.46
-2.03
-2.22
-2.08
-1.79
-1.49
-1.23
-0.91
-0.42
0.26
1.09
1.87
2.52
3.02
3.44
3.88
4.34
4.72
4.87
4.77
4.49
4.22
4.17
4.42
4.90
5.41
5.71
5.61
5.08
4.11
2.80
1.23
-0.51
-2.26
-3.90
-5.27
-6.29
-6.91
-7.15
-7.07
-6.70
-6.16
-5.54
-4.98
-4.56
-4.29
-4.10
-3.91
-3.69
-3.49
-3.45
-3.58
-3.76
-3.73
-3.29
-2.48
-1.58
-1.02
-1.13
-1.94
-3.18
-4.42
-5.35
-5.82
-5.96
-5.97
-6.02
-6.12
-6.21
-6.23
-6.14
-6.04
-6.02
-6.17
-6.42
-6.66
-6.76
-6.64
-6.42
-6.28
-6.42
-6.93
-7.71
-8.55
-9.18
-9.44
-9.27
-8.73
-7.87
-6.75
-5.36
-3.69
-1.76
0.35
2.53
4.70
6.80
8.89
11.03
13.33
15.88
18.72
21.80
24.98
28.02
30.59
32.32
32.92
32.19
30.18
27.06
23.20
18.96
14.67
10.58
6.85
3.62
0.93
-1.18
-2.78
-3.94
-4.85
-5.70
-6.64
-7.72
-8.74
-9.37
-9.24
-8.16
-6.23
-3.83
-1.44
0.62
2.27
3.68
5.09
6.67
8.44
10.34
12.34
14.40
16.45
18.19
19.16
18.91
17.32
14.70
11.65
8.71
6.05
3.47
0.67
-2.37
-5.24
-7.29
-8.01
-7.38
-5.92
-4.41
-3.46
-3.24
-3.48
-3.78
-3.95
-4.05
-4.42
-5.35
-7.00
-9.25
-11.77
-14.17
-16.04
-17.11
-17.35
-17.05
-16.76
-17.12
-18.64
-21.40
-25.08
-28.97
-32.33
-34.61
-35.64
-35.58
-34.82
-33.76
-32.66
-31.54
-30.17
-28.17
-25.09
-20.55
-14.48
-7.13
0.82
8.46
14.90
19.56
22.32
23.65
24.35
25.25
26.86
29.12
31.49
33.16
33.46
32.21
29.78
26.91
24.37
22.64
21.72
21.22
20.59
19.33
17.24
14.42
11.36
8.81
7.65
8.62
11.92
17.00
22.52
26.71
28.03
25.74
20.15
12.50
4.34
-3.16
-9.54
-15.02
-19.94
-24.33
-27.60
-28.85
-27.47
-23.71
-18.84
-14.77
-13.26
-15.14
-20.01
-26.52
-33.09
-38.55
-42.46
-45.11
-47.06
-48.83
-50.58
-52.03
-52.61
-51.59
-48.44
-43.04
-35.85
-27.75
-19.79
-12.76
-6.88
-1.82
3.08
8.43
14.58
21.43
28.62
35.65
42.03
47.48
51.84
55.19
57.71
59.61
61.09
62.27
63.20
63.81
63.93
63.20
61.31
58.15
54.04
49.76
46.27
44.26
43.78
44.18
44.37
43.33
40.52
35.89
29.68
22.10
13.32
3.60
-6.40
-15.57
-22.71
-26.97
-28.36
-27.72
-26.48
-26.04
-27.35
-30.62
-35.38
-40.74
-45.68
-49.44
-51.66
-52.54
-52.67
-52.65
-52.72
-52.60
-51.61
-49.18
-45.26
-40.45
-35.70
-31.68
-28.30
-24.69
-19.71
-12.72
-4.08
4.84
12.26
16.85
18.27
17.32
15.43
14.08
14.20
16.04
19.25
23.16
27.06
30.30
32.40
33.05
32.29
30.63
28.99
28.44
29.67
32.65
36.46
39.62
40.65
38.66
33.70
26.57
18.43
10.23
2.49
-4.64
-11.02
-16.25
-19.69
-20.78
-19.53
-16.75
-13.93
-12.72
-14.27
-18.74
-25.25
-32.27
-38.24
-42.13
-43.67
-43.31
-41.83
-40.10
-38.77
-38.13
-38.16
-38.50
-38.69
-38.32
-37.24
-35.53
-33.31
-30.53
-26.82
-21.60
-14.38
-5.09
5.64
16.63
26.47
34.00
38.71
40.76
40.85
39.87
38.56
37.30
36.22
35.30
34.59
34.34
34.80
36.06
37.90
39.87
41.49
42.51
42.87
42.64
41.64
39.45
35.60
30.08
23.62
17.57
13.24
11.13
10.45
9.43
6.25
0.08
-8.48
-17.77
-26.06
-32.41
-37.00
-40.68
-44.16
-47.51
-50.06
-50.98
-49.78
-46.50
-41.53
-35.19
-27.54
-18.49
-8.05
3.39
15.17
26.61
37.35
47.52
57.58
67.99
78.95
90.20
101.00
110.44
117.56
121.64
122.31
119.59
113.92
106.00
96.77
87.07
77.60
68.67
60.17
51.72
42.78
32.96
22.23
11.09
0.50
-8.31
-14.42
-17.54
-18.25
-17.81
-17.60
-18.64
-21.13
-24.62
-28.37
-31.84
-34.97
-38.04
-41.37
-44.96
-48.46
-51.37
-53.39
-54.57
-55.27
-55.94
-56.75
-57.62
-58.26
-58.43
-58.13
-57.54
-56.86
-56.15
-55.25
-53.88
-51.92
-49.46
-46.78
-44.20
-41.83
-39.57
-37.19
-34.48
-31.27
-27.46
-22.88
-17.36
-10.80
-3.34
4.53
12.16
18.86
24.20
28.01
30.33
31.22
30.60
28.29
24.17
18.37
11.42
4.14
-2.49
-7.63
-10.85
-12.16
-11.98
-10.86
-9.28
-7.52
-5.75
-4.08
-2.71
-1.80
-1.33
-0.97
-0.27
1.18
3.33
5.54
6.83
6.33
3.74
-0.49
-5.41
-10.03
-13.78
-16.56
-18.52
-19.75
-20.08
-19.29
-17.42
-14.96
-12.73
-11.42
-11.10
-11.09
-10.32
-7.93
-3.81
1.41
6.73
11.42
15.31
18.83
22.49
26.51
30.61
34.16
36.58
37.60
37.29
35.84
33.35
29.80
25.17
19.76
14.23
9.51
6.32
4.92
4.87
5.25
5.02
3.47
0.48
-3.58
-8.02
-12.16
-15.55
-18.04
-19.75
-20.88
-21.72
-22.49
-23.42
-24.74
-26.67
-29.44
-33.12
-37.55
-42.24
-46.42
-49.22
-49.92
-48.21
-44.25
-38.65
-32.23
-25.81
-20.02
-15.28
-11.78
-9.61
-8.79
-9.20
-10.54
-12.21
-13.37
-13.06
-10.46
-5.15
2.67
12.16
22.02
30.83
37.45
41.35
42.66
41.91
39.75
36.64
32.75
28.00
22.30
15.72
8.62
1.56
-4.78
-9.96
-13.84
-16.69
-19.03
-21.34
-23.73
-25.80
-26.71
-25.67
-22.39
-17.35
-11.68
-6.65
-3.14
-1.31
-0.71
-0.70
-0.82
-1.10
-1.86
-3.44
-5.93
-9.08
-12.43
-15.58
-18.35
-20.77
-22.92
-24.68
-25.63
-25.20
-22.84
-18.39
-12.14
-4.89
2.30
8.34
12.29
13.57
12.07
8.18
2.66
-3.44
-8.98
-12.87
-14.23
-12.62
-8.11
-1.45
6.07
12.91
17.75
19.91
19.44
16.99
13.27
8.86
4.02
-0.98
-5.62
-9.10
-10.52
-9.37
-5.80
-0.71
4.58
8.78
10.97
10.90
8.85
5.57
1.92
-1.36
-3.87
-5.61
-6.84
-7.89
-8.89
-9.67
-9.79
-8.94
-7.10
-4.74
-2.72
-1.87
-2.67
-4.97
-8.07
-11.01
-12.91
-13.25
-11.90
-9.06
-5.08
-0.41
4.47
9.01
12.70
15.17
16.31
16.36
15.73
14.89
13.99
12.92
11.30
8.85
5.73
2.52
0.19
-0.55
0.49
2.69
4.96
6.25
5.89
3.84
0.48
-3.60
-7.78
-11.40
-13.72
-14.01
-11.88
-7.69
-2.59
1.66
3.41
1.79
-2.85
-9.02
-14.67
-17.81
-17.31
-13.05
-5.90
2.71
11.32
18.90
24.95
29.39
32.26
33.40
32.46
29.02
22.91
14.38
4.13
-6.84
-17.50
-26.86
-34.05
-38.32
-39.08
-36.12
-29.92
-21.77
-13.58
-7.38
-4.63
-5.62
-9.41
-14.16
-17.82
-18.84
-16.63
-11.52
-4.55
3.02
9.99
15.39
18.58
19.25
17.49
13.74
8.71
3.19
-2.11
-6.69
-10.25
-12.53
-13.18
-11.80
-8.08
-2.16
5.12
12.20
17.21
18.51
15.48
8.85
0.64
-6.46
-10.02
-8.75
-2.97
5.56
14.28
20.84
23.82
23.12
19.77
15.35
11.44
9.07
8.68
10.11
12.73
15.50
17.07
16.05
11.46
3.32
-7.12
-17.62
-25.71
-29.57
-28.74
-24.13
-17.57
-10.95
-5.54
-1.59
1.43
4.55
8.67
14.25
21.09
28.42
35.16
40.25
42.95
42.95
40.40
35.71
29.46
22.26
14.80
7.79
1.93
-2.35
-5.01
-6.54
-7.85
-9.90
-13.33
-18.09
-23.44
-28.38
-32.13
-34.69
-36.81
-39.66
-44.02
-49.78
-55.82
-60.44
-62.17
-60.29
-55.00
-47.08
-37.41
-26.65
-15.36
-4.30
5.45
12.62
16.38
16.87
15.33
13.69
13.66
16.08
20.49
25.60
29.92
32.55
33.38
33.02
32.24
31.49
30.82
29.92
28.59
26.87
25.14
23.81
23.05
22.68
22.12
20.75
18.16
14.40
9.95
5.61
2.23
0.40
0.36
1.83
4.11
6.25
7.28
6.52
3.68
-1.00
-6.96
-13.46
-19.81
-25.45
-29.97
-33.07
-34.50
-34.12
-31.95
-28.31
-23.74
-19.01
-14.83
-11.74
-9.89
-9.14
-9.12
-9.43
-9.69
-9.57
-8.81
-7.24
-4.84
-1.87
1.17
3.70
5.26
5.64
4.98
3.65
2.04
0.45
-0.87
-1.75
-1.96
-1.30
0.30
2.60
5.06
6.92
7.55
6.71
4.70
2.27
0.19
-1.09
-1.67
-2.07
-2.89
-4.43
-6.51
-8.59
-10.10
-10.70
-10.36
-9.25
-7.54
-5.31
-2.56
0.60
3.89
6.93
9.30
10.72
10.99
10.04
7.82
4.36
-0.14
-5.21
-10.11
-14.01
-16.16
-16.16
-14.05
-10.27
-5.59
-0.79
3.48
6.83
9.14
10.51
11.10
11.11
10.77
10.38
10.33
10.98
12.49
14.66
16.91
18.44
18.61
17.20
14.55
11.33
8.30
5.89
4.14
2.70
1.10
-1.03
-3.75
-6.86
-9.97
-12.61
-14.39
-15.03
-14.42
-12.66
-10.02
-6.86
-3.59
-0.59
1.91
3.77
5.08
6.08
7.14
8.60
10.60
12.96
15.23
16.88
17.50
17.05
15.81
14.28
12.82
11.56
10.36
8.99
7.32
5.39
3.40
1.59
0.13
-0.90
-1.50
-1.79
-1.94
-2.17
-2.65
-3.29
-3.80
-3.68
-2.55
-0.39
2.34
4.97
6.91
8.03
8.67
9.32
10.32
11.62
12.85
13.63
13.75
13.19
11.93
9.82
6.65
2.34
-2.74
-7.83
-12.05
-14.86
-16.29
-16.90
-17.32
-17.88
-18.42
-18.41
-17.39
-15.26
-12.35
-9.26
-6.55
-4.54
-3.24
-2.57
-2.34
-2.38
-2.39
-1.99
-0.72
1.75
5.43
9.96
14.66
18.81
21.86
23.59
24.10
23.71
22.79
21.70
20.68
19.81
19.07
18.28
17.24
15.77
13.81
11.39
8.47
4.98
0.71
-4.45
-10.36
-16.56
-22.24
-26.63
-29.20
-29.87
-28.89
-26.67
-23.54
-19.63
-15.05
-9.89
-4.49
0.71
5.08
8.05
9.19
8.35
5.80
2.15
-1.75
-5.10
-7.40
-8.61
-9.16
-9.67
-10.73
-12.65
-15.51
-19.19
-23.51
-28.12
-32.50
-35.88
-37.38
-36.33
-32.53
-26.45
-19.13
-11.88
-5.78
-1.45
1.07
2.19
2.53
2.75
3.35
4.66
6.78
9.56
12.57
15.13
16.43
15.80
12.96
8.11
1.90
-4.76
-10.96
-15.95
-19.20
-20.33
-19.13
-15.58
-10.11
-3.74
2.10
6.04
7.36
6.43
4.64
3.85
5.50
10.03
16.60
23.52
28.86
31.18
29.87
25.27
18.34
10.35
2.51
-4.29
-9.45
-12.79
-14.45
-15.00
-15.26
-16.07
-17.93
-20.56
-22.87
-23.27
-20.40
-13.90
-4.77
4.93
13.00
18.00
19.93
19.94
19.61
19.98
21.06
22.08
22.16
21.01
19.09
17.30
16.26
15.90
15.54
14.25
11.52
7.52
3.06
-0.83
-3.42
-4.49
-4.40
-3.74
-3.02
-2.35
-1.46
0.18
2.99
6.95
11.62
16.21
20.10
23.00
25.13
26.96
28.89
31.02
33.16
34.98
36.22
36.83
36.86
36.37
35.36
33.70
31.30
28.26
24.92
21.78
19.41
18.14
17.95
18.44
18.99
19.03
18.25
16.70
14.68
12.60
10.80
9.45
8.53
7.86
7.12
5.96
4.12
1.50
-1.81
-5.58
-9.57
-13.54
-17.42
-21.18
-24.92
-28.67
-32.32
-35.62
-38.13
-39.44
-39.37
-38.04
-35.82
-33.24
-30.71
-28.42
-26.40
-24.56
-22.94
-21.64
-20.86
-20.64
-20.87
-21.27
-21.52
-21.46
-21.06
-20.46
-19.84
-19.35
-19.00
-18.63
-18.00
-16.87
-15.14
-12.91
-10.42
-7.99
-5.90
-4.29
-3.17
-2.42
-1.89
-1.46
-1.02
-0.57
-0.14
0.22
0.45
0.54
0.52
0.49
0.54
0.80
1.30
2.01
2.84
3.70
4.49
5.15
5.67
6.04
6.27
6.32
6.18
5.85
5.36
4.78
4.16
3.59
3.07
2.55
1.93
1.11
0.04
-1.29
-2.75
-4.17
-5.40
-6.30
-6.83
-6.99
-6.85
-6.53
-6.12
-5.73
-5.45
-5.28
-5.22
-5.20
-5.12
-4.86
-4.33
-3.47
-2.28
-0.83
0.70
2.12
3.22
3.88
4.08
3.94
3.66
3.47
3.50
3.78
4.26
4.78
5.23
5.46
5.40
4.98
4.23
3.26
2.25
1.40
0.84
0.56
0.36
-0.00
-0.70
-1.74
-2.94
-4.02
-4.72
-4.96
-4.80
-4.44
-4.07
-3.80
-3.64
-3.53
-3.37
-3.11
-2.68
-2.10
-1.40
-0.63
0.13
0.79
1.25
1.43
1.36
1.12
0.83
0.60
0.50
0.48
0.46
0.33
0.03
-0.39
-0.81
-1.08
-1.15
-1.05
-0.93
-0.96
-1.28
-1.88
-2.67
-3.44
-3.99
-4.16
-3.93
-3.38
-2.66
-1.95
-1.35
-0.86
-0.42
0.11
0.83
1.73
2.72
3.64
4.31
4.70
4.83
4.78
4.62
4.38
4.08
3.74
3.41
3.15
3.01
3.00
3.03
3.00
2.84
2.53
2.08
1.55
0.98
0.34
-0.37
-1.15
-1.95
-2.70
-3.31
-3.76
-4.00
-4.09
-4.06
-3.92
-3.62
-3.11
-2.35
-1.34
-0.21
0.88
1.77
2.39
2.75
2.94
3.09
3.26
3.46
3.67
3.82
3.90
3.88
3.80
3.68
3.52
3.29
2.96
2.54
2.05
1.56
1.19
1.01
1.07
1.28
1.48
1.49
1.17
0.50
-0.43
-1.48
-2.50
-3.39
-4.08
-4.52
-4.69
-4.58
-4.31
-4.00
-3.79
-3.71
-3.65
-3.43
-2.84
-1.86
-0.61
0.65
1.64
2.20
2.30
2.05
1.61
1.14
0.75
0.53
0.56
0.87
1.44
2.18
2.92
3.45
3.60
3.24
2.42
1.33
0.22
-0.57
-0.83
-0.49
0.31
1.28
2.10
2.49
2.36
1.76
0.85
-0.23
-1.33
-2.29
-2.99
-3.26
-3.01
-2.28
-1.22
-0.07
0.98
1.85
2.58
3.27
3.97
4.66
5.21
5.53
5.61
5.55
5.49
5.54
5.65
5.70
5.52
5.05
4.36
3.64
3.12
2.89
2.90
2.99
3.01
2.90
2.71
2.56
2.50
2.48
2.32
1.84
0.93
-0.33
-1.78
-3.17
-4.31
-5.10
-5.51
-5.56
-5.26
-4.64
-3.72
-2.53
-1.19
0.14
1.33
2.29
3.03
3.61
4.11
4.49
4.67
4.53
4.03
3.24
2.36
1.65
1.26
1.19
1.31
1.43
1.44
1.34
1.22
1.20
1.29
1.39
1.34
0.96
0.24
-0.73
-1.71
-2.46
-2.82
-2.84
-2.69
-2.62
-2.81
-3.29
-3.94
-4.57
-4.98
-5.08
-4.87
-4.41
-3.72
-2.77
-1.58
-0.20
1.20
2.40
3.19
3.54
3.54
3.42
3.37
3.50
3.81
4.18
4.50
4.67
4.70
4.58
4.34
3.97
3.48
2.92
2.31
1.70
1.07
0.41
-0.36
-1.22
-2.18
-3.15
-4.03
-4.76
-5.30
-5.63
-5.77
-5.74
-5.58
-5.37
-5.18
-5.04
-4.95
-4.83
-4.57
-4.12
-3.47
-2.69
-1.83
-0.91
0.08
1.14
2.24
3.26
4.08
4.60
4.82
4.83
4.73
4.61
4.50
4.37
4.16
3.84
3.43
2.95
2.46
2.01
1.65
1.38
1.18
0.96
0.66
0.22
-0.35
-0.98
-1.57
-1.99
-2.24
-2.37
-2.47
-2.65
-2.94
-3.36
-3.81
-4.23
-4.52
-4.65
-4.60
-4.35
-3.92
-3.31
-2.52
-1.59
-0.58
0.40
1.22
1.80
2.10
2.16
2.08
1.97
1.94
2.02
2.20
2.46
2.76
3.10
3.48
3.91
4.31
4.60
4.66
4.43
3.92
3.20
2.39
1.60
0.90
0.36
-0.01
-0.20
-0.27
-0.29
-0.39
-0.67
-1.22
-2.02
-3.01
-4.09
-5.16
-6.14
-6.93
-7.46
-7.68
-7.64
-7.39
-6.97
-6.43
-5.71
-4.80
-3.70
-2.47
-1.19
0.12
1.47
2.92
4.46
5.96
7.19
7.93
8.06
7.70
7.06
6.42
5.96
5.71
5.63
5.66
5.72
5.78
5.80
5.73
5.50
5.07
4.44
3.62
2.64
1.55
0.37
-0.87
-2.11
-3.30
-4.36
-5.23
-5.87
-6.22
-6.20
-5.76
-4.85
-3.56
-2.06
-0.60
0.61
1.45
1.99
2.36
2.77
3.32
3.98
4.66
5.25
5.66
5.83
5.74
5.34
4.66
3.78
2.92
2.34
2.21
2.58
3.26
3.95
4.36
4.36
3.99
3.38
2.69
2.00
1.30
0.55
-0.25
-1.05
-1.77
-2.33
-2.74
-3.05
-3.34
-3.67
-4.02
-4.35
-4.57
-4.63
-4.46
-4.01
-3.26
-2.24
-1.06
0.13
1.14
1.84
2.20
2.32
2.37
2.52
2.87
3.39
3.96
4.42
4.68
4.76
4.79
4.93
5.27
5.77
6.27
6.55
6.46
5.92
4.99
3.82
2.55
1.28
0.10
-0.99
-1.98
-2.91
-3.82
-4.74
-5.68
-6.55
-7.26
-7.66
-7.70
-7.37
-6.73
-5.85
-4.83
-3.71
-2.53
-1.37
-0.24
0.81
1.81
2.81
3.87
5.00
6.17
7.29
8.28
9.07
9.68
10.19
10.72
11.42
12.41
13.75
15.37
17.07
18.57
19.62
20.10
20.11
19.96
20.10
20.92
22.70
25.51
29.21
33.41
37.52
40.84
42.77
43.11
42.20
40.91
40.32
41.29
44.09
48.30
53.08
57.50
60.92
63.01
63.65
62.71
59.99
55.31
48.66
40.30
30.71
20.48
10.09
-0.10
-9.85
-18.96
-27.21
-34.41
-40.43
-45.27
-49.01
-51.79
-53.76
-55.09
-55.96
-56.60
-57.18
-57.77
-58.28
-58.43
-57.93
-56.57
-54.43
-51.86
-49.33
-47.26
-45.79
-44.73
-43.59
-41.82
-38.97
-34.84
-29.52
-23.27
-16.49
-9.59
-2.95
3.04
8.14
12.23
15.43
18.04
20.38
22.64
24.65
25.91
25.72
23.45
18.88
12.40
4.88
-2.56
-8.90
-13.56
-16.47
-17.91
-18.29
-17.94
-17.01
-15.56
-13.69
-11.66
-9.84
-8.65
-8.42
-9.20
-10.82
-12.85
-14.71
-15.85
-15.88
-14.69
-12.47
-9.68
-6.78
-4.19
-2.10
-0.54
0.53
1.23
1.63
1.85
2.06
2.49
3.35
4.70
6.47
8.37
10.10
11.35
12.03
12.21
12.07
11.89
11.89
12.22
12.86
13.68
14.41
14.75
14.47
13.55
12.18
10.73
9.54
8.75
8.28
7.82
7.02
5.74
4.00
2.09
0.30
-1.14
-2.18
-2.93
-3.50
-3.97
-4.25
-4.24
-3.76
-2.72
-1.14
0.93
3.36
6.06
8.93
11.92
14.98
18.07
21.14
24.09
26.89
29.51
32.02
34.52
37.08
39.67
42.02
43.74
44.36
43.60
41.43
38.16
34.20
29.97
25.72
21.53
17.45
13.54
9.92
6.66
3.71
0.87
-2.14
-5.46
-9.05
-12.65
-15.91
-18.56
-20.53
-21.94
-23.02
-23.98
-24.94
-25.92
-26.89
-27.78
-28.54
-29.16
-29.59
-29.79
-29.73
-29.35
-28.67
-27.69
-26.48
-25.10
-23.61
-22.08
-20.56
-19.14
-17.87
-16.81
-16.01
-15.45
-15.11
-14.89
-14.69
-14.43
-14.07
-13.61
-13.12
-12.62
-12.19
-11.87
-11.72
-11.82
-12.22
-12.90
-13.71
-14.45
-14.90
-14.96
-14.69
-14.34
-14.28
-14.81
-16.08
-17.96
-20.15
-22.37
-24.40
-26.31
-28.25
-30.42
-32.85
-35.37
-37.71
-39.47
-40.25
-39.63
-37.23
-32.79
-26.43
-18.78
-10.98
-4.48
-0.49
0.39
-1.52
-5.23
-9.47
-13.20
-15.88
-17.29
-17.37
-15.85
-12.37
-6.71
0.95
9.86
19.04
27.56
35.01
41.45
47.27
52.71
57.66
61.64
63.99
64.20
62.06
57.76
51.73
44.59
36.88
28.99
21.09
13.05
4.68
-4.20
-13.59
-23.29
-32.91
-41.88
-49.49
-54.84
-57.20
-56.22
-52.22
-46.12
-39.19
-32.58
-27.04
-22.92
-20.25
-19.10
-19.45
-21.18
-23.84
-26.70
-29.08
-30.65
-31.64
-32.61
-34.07
-36.09
-38.18
-39.62
-39.73
-38.22
-35.18
-31.07
-26.37
-21.52
-16.81
-12.40
-8.41
-4.79
-1.46
1.87
5.47
9.58
14.29
19.63
25.73
32.81
41.14
50.56
60.24
68.53
73.39
73.20
67.40
56.93
43.80
30.41
18.66
9.50
3.01
-1.26
-3.90
-5.52
-6.74
-8.24
-10.63
-14.13
-18.37
-22.30
-24.71
-24.65
-22.05
-17.69
-12.93
-9.12
-7.11
-7.05
-8.59
-11.30
-14.83
-18.87
-22.56
-24.21
-21.49
-12.29
3.95
25.57
48.91
69.81
85.27
94.62
99.41
102.14
104.79
107.81
110.36
111.20
109.81
106.76
103.29
100.39
98.06
95.39
91.06
84.15
74.58
63.10
50.83
38.76
27.49
17.10
7.39
-1.90
-10.86
-19.30
-26.84
-33.01
-37.57
-40.56
-42.44
-43.88
-45.52
-47.71
-50.34
-52.97
-54.95
-55.64
-54.41
-50.78
-44.53
-35.90
-25.79
-15.55
-6.69
-0.31
3.21
4.21
3.45
1.76
-0.15
-1.72
-2.51
-2.20
-0.63
2.06
5.43
8.84
11.53
12.75
11.83
8.37
2.38
-5.56
-14.36
-22.68
-29.19
-32.98
-33.65
-31.26
-26.08
-18.43
-8.67
2.64
14.48
25.37
33.66
38.12
38.36
35.08
29.76
24.03
19.01
14.98
11.53
8.02
4.09
-0.17
-4.33
-7.96
-10.81
-12.91
-14.43
-15.66
-17.03
-19.07
-22.32
-27.08
-33.11
-39.54
-45.00
-48.06
-47.69
-43.69
-36.69
-27.97
-19.05
-11.25
-5.54
-2.32
-1.48
-2.44
-4.26
-5.91
-6.59
-6.03
-4.56
-3.03
-2.35
-3.08
-5.08
-7.58
-9.68
-10.71
-10.56
-9.64
-8.52
-7.67
-7.22
-7.09
-7.14
-7.28
-7.52
-7.90
-8.33
-8.65
-8.55
-7.69
-5.75
-2.65
1.30
5.36
8.46
9.57
8.20
4.62
-0.24
-5.14
-9.01
-11.29
-11.85
-10.84
-8.49
-5.13
-1.32
2.13
4.39
4.89
3.59
0.97
-2.26
-5.51
-8.41
-10.68
-11.94
-11.63
-9.30
-4.92
0.86
6.83
11.65
14.48
15.19
14.30
12.63
10.90
9.54
8.62
8.04
7.58
7.01
6.23
5.28
4.43
4.08
4.56
5.90
7.78
9.65
11.04
11.73
11.79
11.43
10.69
9.44
7.35
4.22
0.11
-4.57
-9.22
-13.25
-16.24
-17.97
-18.39
-17.54
-15.61
-12.79
-9.35
-5.52
-1.56
2.29
5.74
8.55
10.52
11.58
11.88
11.69
11.36
11.14
11.11
11.09
10.72
9.63
7.55
4.45
0.49
-4.01
-8.73
-13.29
-17.31
-20.45
-22.42
-23.19
-22.93
-22.02
-20.84
-19.65
-18.57
-17.63
-16.92
-16.52
-16.50
-16.57
-16.19
-14.61
-11.26
-6.11
0.29
6.91
12.69
16.87
19.22
19.87
19.14
17.21
14.09
9.73
4.14
-2.37
-9.21
-15.61
-20.83
-24.40
-26.11
-26.06
-24.56
-22.07
-19.15
-16.32
-13.97
-12.22
-10.85
-9.52
-7.94
-6.04
-4.05
-2.27
-0.85
0.39
1.94
4.34
7.97
12.85
18.63
24.77
30.69
35.96
40.37
43.92
46.74
48.95
50.55
51.35
50.99
49.14
45.63
40.64
34.61
28.14
21.71
15.56
9.60
3.55
-2.84
-9.63
-16.60
-23.27
-29.04
-33.44
-36.23
-37.49
-37.50
-36.65
-35.32
-33.83
-32.43
-31.23
-30.12
-28.66
-26.16
-21.85
-15.31
-6.66
3.31
13.43
22.59
30.02
35.50
39.16
41.26
41.96
41.29
39.26
35.91
31.39
25.88
19.52
12.39
4.63
-3.46
-11.30
-18.17
-23.33
-26.30
-27.04
-25.96
-23.80
-21.38
-19.30
-17.78
-16.61
-15.21
-12.87
-8.97
-3.31
3.74
11.17
17.62
21.79
22.93
21.11
17.15
12.28
7.60
3.75
0.80
-1.57
-3.79
-6.17
-8.85
-11.85
-15.13
-18.66
-22.33
-25.90
-29.06
-31.47
-32.89
-33.29
-32.92
-32.25
-31.87
-32.21
-33.39
-35.10
-36.59
-36.91
-35.24
-31.17
-24.92
-17.23
-9.17
-1.80
4.09
8.13
10.31
10.79
9.79
7.49
4.06
-0.25
-5.01
-9.68
-13.65
-16.39
-17.62
-17.37
-15.99
-13.99
-11.92
-10.13
-8.74
-7.63
-6.58
-5.30
-3.52
-0.92
2.86
8.12
14.96
23.09
31.73
39.73
45.97
49.69
50.85
50.09
48.41
46.70
45.34
44.09
42.26
39.09
34.02
26.92
18.07
8.03
-2.46
-12.56
-21.42
-28.21
-32.39
-33.81
-32.88
-30.40
-27.33
-24.42
-22.05
-20.14
-18.45
-16.70
-14.74
-12.57
-10.18
-7.54
-4.62
-1.44
1.84
4.99
7.79
10.16
12.11
13.72
14.99
15.85
16.23
16.12
15.61
14.72
13.41
11.47
8.74
5.27
1.44
-2.15
-4.87
-6.35
-6.60
-5.93
-4.72
-3.18
-1.32
1.06
4.17
8.06
12.62
17.58
22.57
27.15
30.91
33.46
34.52
33.91
31.63
27.80
22.69
16.64
10.14
3.73
-2.06
-6.85
-10.56
-13.43
-15.91
-18.48
-21.37
-24.43
-27.24
-29.36
-30.54
-30.81
-30.45
-29.66
-28.46
-26.70
-24.18
-20.85
-16.92
-12.71
-8.51
-4.44
-0.54
3.08
6.13
8.18
8.91
8.35
6.94
5.35
4.20
3.75
3.87
4.11
4.00
3.18
1.49
-0.97
-3.99
-7.24
-10.30
-12.73
-14.16
-14.41
-13.53
-11.72
-9.23
-6.21
-2.72
1.29
5.86
10.92
16.31
21.78
27.03
31.71
35.45
37.96
38.99
38.52
36.75
34.00
30.60
26.75
22.50
17.80
12.67
7.20
1.56
-4.08
-9.58
-14.79
-19.52
-23.42
-26.13
-27.34
-27.02
-25.43
-23.08
-20.57
-18.39
-16.85
-16.00
-15.70
-15.64
-15.35
-14.28
-11.92
-7.94
-2.34
4.49
11.88
19.02
25.22
29.99
33.19
34.98
35.73
35.89
35.85
35.73
35.35
34.22
31.79
27.65
21.80
14.59
6.68
-1.34
-9.02
-16.12
-22.45
-27.71
-31.51
-33.40
-33.14
-30.78
-26.66
-21.28
-15.12
-8.58
-1.91
4.59
10.61
15.72
19.50
21.60
21.86
20.28
17.01
12.31
6.57
0.26
-6.04
-11.74
-16.30
-19.45
-21.16
-21.76
-21.71
-21.48
-21.32
-21.30
-21.27
-21.10
-20.78
-20.45
-20.27
-20.32
-20.49
-20.54
-20.12
-18.99
-16.94
-13.83
-9.57
-4.20
1.95
8.20
13.59
17.20
18.47
17.47
14.81
11.42
8.07
5.23
2.95
1.04
-0.70
-2.39
-3.99
-5.36
-6.30
-6.66
-6.37
-5.55
-4.51
-3.72
-3.73
-4.92
-7.31
-10.55
-13.88
-16.45
-17.54
-16.86
-14.58
-11.19
-7.24
-3.06
1.32
6.14
11.67
18.04
25.13
32.60
39.98
46.70
52.11
55.54
56.43
54.51
50.00
43.61
36.34
29.16
22.70
17.17
12.45
8.32
4.56
1.00
-2.56
-6.35
-10.52
-15.03
-19.49
-23.34
-26.08
-27.51
-27.87
-27.69
-27.58
-27.97
-29.09
-30.94
-33.33
-35.77
-37.43
-37.19
-34.12
-27.93
-19.39
-10.16
-2.13
3.31
5.85
6.16
5.32
4.10
2.58
0.30
-3.20
-7.82
-12.84
-17.19
-20.05
-21.31
-21.48
-21.42
-21.76
-22.59
-23.47
-23.69
-22.72
-20.43
-17.14
-13.33
-9.46
-5.73
-2.12
1.50
5.24
9.08
12.97
16.85
20.70
24.54
28.31
31.82
34.77
36.73
37.33
36.31
33.70
29.80
25.21
20.61
16.59
13.43
11.04
9.03
6.92
4.38
1.40
-1.73
-4.60
-6.81
-8.05
-8.23
-7.32
-5.47
-2.96
-0.32
1.83
2.89
2.58
1.07
-1.01
-2.84
-3.73
-3.39
-2.00
-0.08
1.83
3.32
4.27
4.70
4.64
4.05
2.88
1.13
-1.01
-3.32
-5.73
-8.50
-12.19
-17.22
-23.44
-29.93
-35.31
-38.41
-38.91
-37.42
-34.96
-32.10
-28.46
-22.95
-14.60
-3.45
9.16
21.16
30.82
37.57
41.97
44.97
46.99
47.48
45.31
39.62
30.50
19.04
6.73
-5.32
-16.76
-27.80
-38.51
-48.32
-55.93
-59.90
-59.42
-54.81
-47.48
-39.28
-31.77
-25.76
-21.18
-17.48
-14.04
-10.58
-7.15
-3.99
-1.29
0.90
2.64
4.05
5.27
6.53
8.15
10.44
13.48
16.96
20.15
22.10
22.10
20.04
16.48
12.49
9.15
7.17
6.68
7.38
8.84
10.79
13.28
16.61
21.14
27.09
34.53
43.25
52.85
62.67
71.81
79.23
83.93
85.28
83.08
77.64
69.48
59.25
47.51
34.90
22.22
10.41
0.41
-7.23
-12.45
-15.69
-17.52
-18.33
-18.25
-17.29
-15.61
-13.67
-12.10
-11.42
-11.84
-13.23
-15.31
-17.87
-20.81
-24.04
-27.31
-30.11
-31.91
-32.35
-31.60
-30.22
-28.99
-28.43
-28.60
-29.05
-29.12
-28.30
-26.33
-23.18
-18.83
-13.18
-6.15
2.09
10.88
19.12
25.58
29.36
30.18
28.37
24.69
19.96
14.77
9.49
4.29
-0.72
-5.36
-9.37
-12.50
-14.51
-15.43
-15.40
-14.78
-13.85
-12.62
-10.78
-7.70
-2.80
4.13
12.62
21.65
29.89
36.23
40.11
41.66
41.56
40.66
39.68
39.02
38.78
38.89
39.25
39.75
40.09
39.81
38.26
34.83
29.13
21.27
11.77
1.44
-8.83
-18.26
-26.25
-32.36
-36.34
-38.23
-38.34
-37.30
-35.90
-34.88
-34.67
-35.26
-36.22
-36.93
-36.83
-35.67
-33.53
-30.81
-27.94
-25.17
-22.52
-19.77
-16.70
-13.21
-9.45
-5.75
-2.53
-0.13
1.24
1.52
0.80
-0.74
-2.77
-4.93
-6.87
-8.34
-9.20
-9.50
-9.39
-9.09
-8.86
-8.91
-9.29
-9.95
-10.66
-11.09
-10.89
-9.78
-7.65
-4.60
-0.92
2.99
6.79
10.33
13.76
17.41
21.53
25.98
30.15
33.07
33.87
32.15
28.32
23.39
18.66
15.14
13.26
12.80
13.12
13.45
13.20
12.09
10.05
7.23
3.85
0.27
-3.11
-5.85
-7.57
-8.15
-7.69
-6.56
-5.21
-4.06
-3.41
-3.47
-4.45
-6.53
-9.76
-13.91
-18.36
-22.27
-24.79
-25.45
-24.27
-21.68
-18.25
-14.37
-10.25
-5.99
-1.83
1.78
4.30
5.44
5.36
4.66
4.11
4.22
4.98
5.88
6.27
5.71
4.20
2.13
0.02
-1.80
-3.25
-4.45
-5.49
-6.34
-6.89
-7.02
-6.84
-6.64
-6.78
-7.49
-8.72
-10.15
-11.32
-11.85
-11.58
-10.62
-9.28
-7.90
-6.75
-5.83
-4.96
-3.80
-2.08
0.20
2.74
4.98
6.37
6.65
5.98
4.87
3.95
3.66
4.04
4.80
5.52
5.93
6.09
6.32
7.00
8.30
10.12
12.11
13.87
15.13
15.80
15.94
15.61
14.83
13.55
11.78
9.51
6.86
4.01
1.11
-1.67
-4.24
-6.53
-8.50
-10.13
-11.41
-12.36
-13.01
-13.53
-14.03
-14.62
-15.21
-15.58
-15.42
-14.46
-12.68
-10.31
-7.80
-5.57
-3.95
-3.01
-2.69
-2.86
-3.32
-3.90
-4.29
-4.19
-3.33
-1.61
0.79
3.49
6.03
8.06
9.41
10.09
10.21
9.91
9.27
8.34
7.20
5.96
4.71
3.58
2.67
2.12
2.05
2.57
3.62
4.96
6.13
6.67
6.22
4.74
2.53
0.08
-2.07
-3.61
-4.45
-4.72
-4.63
-4.30
-3.79
-3.01
-1.91
-0.49
1.14
2.74
4.06
4.89
5.13
4.80
4.12
3.42
3.07
3.35
4.37
6.01
7.91
9.63
10.78
11.14
10.71
9.59
7.96
5.88
3.39
0.56
-2.36
-5.00
-6.89
-7.68
-7.33
-6.03
-4.15
-2.01
0.25
2.67
5.31
8.14
10.97
13.53
15.62
17.13
18.08
18.52
18.43
17.73
16.31
14.25
11.72
9.06
6.60
4.59
3.12
2.09
1.30
0.49
-0.55
-1.93
-3.65
-5.59
-7.63
-9.60
-11.38
-12.89
-14.06
-14.85
-15.25
-15.27
-14.93
-14.33
-13.53
-12.64
-11.71
-10.82
-10.03
-9.33
-8.71
-8.05
-7.24
-6.14
-4.70
-2.93
-0.89
1.25
3.37
5.30
6.88
7.96
8.43
8.23
7.42
6.16
4.62
3.01
1.43
-0.04
-1.38
-2.55
-3.45
-4.07
-4.39
-4.51
-4.60
-4.79
-5.14
-5.59
-6.02
-6.32
-6.52
-6.70
-7.00
-7.50
-8.19
-8.99
-9.73
-10.32
-10.68
-10.80
-10.71
-10.46
-10.09
-9.67
-9.19
-8.62
-7.92
-7.06
-6.07
-5.01
-3.98
-2.99
-1.98
-0.91
0.29
1.57
2.80
3.77
4.35
4.52
4.36
4.13
4.10
4.59
5.77
7.72
10.33
13.36
16.46
19.21
21.30
22.44
22.56
21.67
19.91
17.50
14.61
11.45
8.20
5.09
2.39
0.33
-0.99
-1.70
-2.06
-2.45
-3.10
-4.07
-5.17
-6.17
-6.90
-7.40
-7.90
-8.62
-9.69
-10.96
-12.11
-12.78
-12.76
-12.16
-11.27
-10.48
-10.05
-10.00
-10.14
-10.24
-10.17
-9.95
-9.73
-9.60
-9.54
-9.41
-8.99
-8.15
-6.94
-5.56
-4.26
-3.25
-2.57
-2.15
-1.83
-1.46
-0.90
-0.03
1.26
3.09
5.47
8.29
11.27
13.98
16.02
17.09
17.11
16.18
14.48
12.15
9.30
5.95
2.16
-1.94
-6.12
-10.05
-13.43
-16.04
-17.88
-19.18
-20.35
-21.84
-23.92
-26.58
-29.48
-32.08
-33.89
-34.68
-34.61
-34.22
-34.17
-34.98
-36.75
-39.09
-41.25
-42.38
-41.78
-39.12
-34.47
-28.28
-21.26
-14.21
-7.78
-2.13
3.28
9.70
18.65
31.32
47.80
66.75
85.62
101.48
111.97
116.07
114.30
108.22
99.72
90.35
80.93
71.71
62.61
53.59
44.80
36.52
28.97
22.17
15.88
9.70
3.34
-3.24
-9.71
-15.50
-20.06
-23.14
-24.99
-26.26
-27.79
-30.15
-33.45
-37.24
-40.72
-43.12
-44.06
-43.63
-42.25
-40.39
-38.35
-36.10
-33.51
-30.42
-26.94
-23.37
-20.09
-17.32
-15.01
-12.95
-10.83
-8.53
-6.09
-3.70
-1.55
0.23
1.59
2.48
2.83
2.57
1.68
0.30
-1.30
-2.81
-3.96
-4.55
-4.52
-3.90
-2.81
-1.48
-0.21
0.73
1.16
1.15
0.87
0.56
0.38
0.32
0.29
0.15
-0.14
-0.57
-1.02
-1.39
-1.59
-1.55
-1.25
-0.73
-0.19
0.05
-0.35
-1.63
-3.77
-6.42
-9.06
-11.16
-12.38
-12.69
-12.27
-11.47
-10.60
-9.87
-9.36
-9.05
-8.82
-8.49
-7.89
-6.82
-5.20
-3.09
-0.69
1.66
3.67
5.10
5.95
6.37
6.70
7.30
8.49
10.36
12.70
15.03
16.71
17.17
16.14
13.74
10.46
6.91
3.66
0.97
-1.15
-2.90
-4.48
-6.08
-7.76
-9.51
-11.24
-12.76
-13.83
-14.13
-13.46
-11.73
-9.12
-6.02
-2.92
-0.30
1.57
2.64
3.13
3.37
3.64
4.03
4.50
4.92
5.21
5.42
5.65
5.92
6.07
5.74
4.58
2.46
-0.37
-3.33
-5.69
-6.88
-6.69
-5.29
-3.18
-0.90
1.07
2.51
3.40
3.88
4.10
4.21
4.26
4.22
4.05
3.70
3.21
2.69
2.30
2.25
2.67
3.59
4.83
6.10
7.05
7.38
7.06
6.25
5.24
4.34
3.77
3.55
3.55
3.63
3.66
3.63
3.57
3.57
3.70
4.01
4.51
5.21
6.14
7.30
8.65
10.09
11.40
12.28
12.48
11.85
10.46
8.64
6.76
5.14
3.86
2.74
1.53
0.08
-1.51
-2.85
-3.48
-3.12
-1.77
0.21
2.34
4.25
5.71
6.73
7.26
7.20
6.35
4.56
1.95
-1.04
-3.70
-5.29
-5.32
-3.70
-0.80
2.71
5.99
8.28
9.05
8.14
5.76
2.46
-1.10
-4.31
-6.81
-8.52
-9.57
-10.09
-10.10
-9.53
-8.35
-6.68
-4.91
-3.53
-3.00
-3.42
-4.52
-5.76
-6.56
-6.54
-5.68
-4.23
-2.58
-1.04
0.20
1.09
1.63
1.80
1.55
0.83
-0.38
-1.97
-3.81
-5.66
-7.31
-8.58
-9.33
-9.47
-8.99
-7.92
-6.42
-4.73
-3.15
-1.95
-1.29
-1.17
-1.47
-1.99
-2.56
-3.07
-3.47
-3.82
-4.06
-4.19
-4.07
-3.64
-2.81
-1.62
-0.19
1.26
2.47
3.22
3.43
3.13
2.52
1.82
1.22
0.80
0.56
0.41
0.34
0.36
0.62
1.21
2.12
3.13
3.91
4.23
4.01
3.45
2.92
2.77
3.17
4.03
5.15
6.34
7.59
8.90
10.30
11.62
12.57
12.87
12.40
11.29
9.83
8.34
7.03
5.96
5.08
4.35
3.80
3.46
3.38
3.51
3.72
3.81
3.56
2.87
1.74
0.35
-1.06
-2.21
-2.88
-2.99
-2.54
-1.62
-0.33
1.22
2.93
4.67
6.29
7.69
8.76
9.51
9.96
10.18
10.23
10.11
9.84
9.37
8.65
7.62
6.22
4.45
2.37
0.10
-2.24
-4.50
-6.64
-8.67
-10.70
-12.83
-15.05
-17.22
-19.03
-20.13
-20.16
-18.99
-16.69
-13.62
-10.27
-7.14
-4.65
-2.99
-2.14
-1.85
-1.84
-1.79
-1.54
-1.13
-0.70
-0.47
-0.54
-0.92
-1.45
-1.98
-2.40
-2.70
-2.91
-3.07
-3.17
-3.18
-3.11
-3.02
-3.04
-3.23
-3.52
-3.79
-3.80
-3.43
-2.65
-1.60
-0.43
0.74
1.84
2.89
3.86
4.75
5.48
6.05
6.53
7.09
7.89
9.03
10.49
12.06
13.49
14.55
15.14
15.31
15.15
14.81
14.39
13.94
13.46
12.98
12.51
12.06
11.66
11.30
10.97
10.65
10.36
10.15
10.07
10.24
10.69
11.46
12.42
13.41
14.23
14.75
14.96
14.95
14.85
14.67
14.25
13.36
11.84
9.71
7.20
4.67
2.37
0.37
-1.45
-3.26
-5.17
-7.13
-9.01
-10.69
-12.09
-13.24
-14.14
-14.83
-15.30
-15.59
-15.74
-15.75
-15.58
-15.06
-14.11
-12.70
-11.01
-9.27
-7.66
-6.27
-5.06
-4.00
-3.11
-2.47
-2.15
-2.02
-1.84
-1.29
-0.28
1.08
2.41
3.31
3.52
3.00
1.99
0.80
-0.22
-0.87
-1.00
-0.57
0.41
1.89
3.76
5.88
8.01
9.90
11.27
11.97
11.99
11.53
10.89
10.31
9.95
9.69
9.37
8.79
7.92
6.84
5.68
4.51
3.27
1.88
0.23
-1.61
-3.53
-5.37
-7.01
-8.46
-9.76
-10.97
-12.02
-12.80
-13.11
-12.84
-11.98
-10.66
-9.09
-7.47
-5.97
-4.67
-3.54
-2.49
-1.45
-0.37
0.75
1.80
2.67
3.21
3.38
3.23
2.93
2.71
2.76
3.16
3.83
4.61
5.28
5.71
5.83
5.63
5.17
4.50
3.70
2.89
2.18
1.70
1.48
1.49
1.54
1.49
1.16
0.53
-0.38
-1.43
-2.49
-3.47
-4.32
-5.07
-5.69
-6.22
-6.60
-6.80
-6.82
-6.63
-6.31
-5.92
-5.58
-5.35
-5.24
-5.19
-5.07
-4.79
-4.33
-3.83
-3.48
-3.44
-3.72
-4.13
-4.40
-4.26
-3.63
-2.58
-1.33
-0.11
0.94
1.74
2.24
2.41
2.22
1.68
0.91
0.11
-0.52
-0.85
-0.89
-0.76
-0.63
-0.64
-0.87
-1.27
-1.73
-2.16
-2.48
-2.76
-3.09
-3.67
-4.62
-5.93
-7.49
-9.02
-10.29
-11.10
-11.45
-11.44
-11.27
-11.12
-11.08
-11.22
-11.39
-11.35
-10.69
-8.92
-5.66
-0.86
5.07
11.27
16.57
19.96
20.86
19.31
15.87
11.40
6.70
2.33
-1.44
-4.59
-7.14
-9.09
-10.41
-11.01
-10.92
-10.26
-9.33
-8.54
-8.32
-8.97
-10.56
-12.86
-15.44
-17.79
-19.45
-20.18
-19.97
-18.99
-17.49
-15.76
-14.06
-12.55
-11.41
-10.69
-10.41
-10.52
-10.93
-11.49
-11.99
-12.27
-12.16
-11.66
-10.89
-10.16
-9.80
-10.10
-11.23
-13.16
-15.79
-18.92
-22.39
-25.94
-29.31
-32.15
-34.09
-34.91
-34.41
-32.49
-28.98
-23.67
-16.33
-6.95
4.10
16.03
27.64
37.70
45.12
49.32
50.25
48.40
44.70
40.21
35.98
32.70
30.59
29.38
28.48
27.26
25.26
22.41
18.85
14.95
11.10
7.68
4.97
3.12
2.06
1.46
0.85
-0.26
-2.12
-4.62
-7.32
-9.58
-10.86
-10.80
-9.31
-6.42
-2.26
3.05
9.29
16.17
23.33
30.36
36.92
42.69
47.43
50.90
52.93
53.45
52.57
50.62
48.00
45.12
42.18
39.19
35.98
32.35
28.18
23.46
18.30
12.82
7.20
1.72
-3.25
-7.27
-10.02
-11.52
-12.23
-12.92
-14.40
-17.06
-20.70
-24.53
-27.57
-29.10
-28.95
-27.57
-25.68
-23.94
-22.61
-21.59
-20.56
-19.31
-17.84
-16.42
-15.35
-14.80
-14.64
-14.58
-14.23
-13.42
-12.14
-10.62
-9.10
-7.75
-6.64
-5.78
-5.21
-5.05
-5.40
-6.22
-7.26
-8.07
-8.18
-7.28
-5.42
-2.91
-0.23
2.16
3.95
5.00
5.29
4.92
4.10
3.14
2.38
2.09
2.28
2.74
3.12
3.16
2.85
2.44
2.30
2.67
3.59
4.88
6.33
7.82
9.39
11.11
12.96
14.79
16.33
17.37
17.93
18.19
18.43
18.77
19.05
18.86
17.64
15.08
11.19
6.44
1.57
-2.65
-5.68
-7.28
-7.56
-6.86
-5.59
-4.16
-2.83
-1.71
-0.73
0.30
1.57
3.13
4.81
6.26
7.02
6.80
5.58
3.63
1.37
-0.85
-2.86
-4.71
-6.57
-8.51
-10.48
-12.29
-13.69
-14.48
-14.58
-14.06
-13.11
-11.99
-10.97
-10.21
-9.64
-8.98
-7.81
-5.84
-3.02
0.30
3.64
6.58
8.99
10.93
12.47
13.48
13.64
12.64
10.54
7.81
5.22
3.43
2.68
2.76
3.23
3.77
4.24
4.57
4.48
3.43
0.84
-3.47
-9.00
-14.67
-19.32
-22.34
-23.94
-25.01
-26.46
-28.75
-31.49
-33.76
-34.57
-33.41
-30.41
-26.12
-21.28
-16.37
-11.62
-7.03
-2.57
1.80
6.12
10.48
14.99
19.72
24.57
29.22
33.25
36.29
38.21
39.20
39.57
39.63
39.39
38.52
36.44
32.68
27.25
20.79
14.42
9.27
6.01
4.61
4.47
4.81
5.01
4.91
4.60
4.30
4.19
4.36
4.96
6.13
7.93
10.12
12.15
13.33
13.19
11.72
9.35
6.81
4.70
3.43
3.12
3.76
5.24
7.42
10.00
12.63
15.01
17.00
18.78
20.69
23.06
25.99
29.21
32.17
34.26
34.99
34.15
31.85
28.42
24.42
20.39
16.87
14.15
12.29
11.10
10.15
9.05
7.49
5.38
2.86
0.15
-2.56
-5.22
-7.87
-10.65
-13.64
-16.84
-20.14
-23.32
-26.19
-28.57
-30.43
-31.79
-32.77
-33.48
-33.98
-34.32
-34.57
-34.88
-35.42
-36.32
-37.57
-38.99
-40.36
-41.57
-42.68
-43.90
-45.47
-47.44
-49.64
-51.73
-53.41
-54.51
-54.93
-54.60
-53.32
-50.85
-47.09
-42.28
-37.03
-32.03
-27.80
-24.39
-21.46
-18.56
-15.50
-12.58
-10.40
-9.59
-10.37
-12.48
-15.28
-18.10
-20.50
-22.37
-23.89
-25.30
-26.80
-28.43
-30.15
-31.85
-33.42
-34.74
-35.68
-36.07
-35.67
-34.36
-32.10
-29.13
-25.92
-22.96
-20.63
-18.95
-17.58
-15.94
-13.49
-10.05
-5.85
-1.50
2.32
5.08
6.67
7.30
7.43
7.52
7.85
8.56
9.63
11.03
12.67
14.41
15.96
17.01
17.30
16.78
15.69
14.47
13.53
13.10
13.16
13.53
14.01
14.54
15.11
15.87
16.88
18.11
19.44
20.60
21.32
21.40
20.87
20.01
19.28
19.14
19.92
21.72
24.36
27.59
31.10
34.58
37.78
40.49
42.65
44.42
46.17
48.32
51.22
54.85
58.84
62.59
65.46
67.00
67.03
65.69
63.32
60.47
57.69
55.51
54.07
52.92
50.96
46.75
39.13
27.89
14.08
-0.22
-12.69
-21.57
-26.28
-27.35
-25.96
-23.29
-20.20
-17.08
-14.10
-11.43
-9.21
-7.53
-6.36
-5.62
-5.22
-5.26
-5.84
-7.05
-8.76
-10.73
-12.69
-14.48
-16.18
-17.98
-19.97
-22.08
-24.07
-25.70
-26.84
-27.66
-28.45
-29.52
-30.96
-32.62
-34.13
-35.09
-35.23
-34.48
-33.01
-31.10
-29.08
-27.23
-25.72
-24.59
-23.73
-22.98
-22.13
-21.04
-19.69
-18.17
-16.63
-15.18
-13.90
-12.77
-11.80
-11.03
-10.49
-10.22
-10.13
-10.06
-9.73
-9.01
-7.90
-6.63
-5.59
-5.10
-5.36
-6.25
-7.48
-8.65
-9.43
-9.65
-9.36
-8.76
-8.12
-7.72
-7.72
-8.18
-9.00
-9.99
-10.87
-11.37
-11.23
-10.28
-8.48
-5.89
-2.80
0.33
3.09
5.17
6.58
7.60
8.63
9.93
11.50
13.11
14.45
15.33
15.81
16.09
16.39
16.80
17.22
17.48
17.42
16.92
16.02
14.74
13.21
11.50
9.77
8.17
6.86
5.97
5.52
5.49
5.75
6.15
6.53
6.78
6.87
6.79
6.62
6.40
6.18
5.96
5.78
5.62
5.48
5.34
5.17
4.96
4.69
4.43
4.21
4.08
4.02
3.95
3.77
3.42
2.88
2.17
1.39
0.55
-0.27
-1.03
-1.67
-2.04
-2.04
-1.57
-0.66
0.59
1.98
3.31
4.46
5.33
5.92
6.28
6.47
6.53
6.45
6.20
5.74
5.12
4.45
3.89
3.53
3.38
3.30
3.11
2.68
1.97
1.10
0.17
-0.70
-1.55
-2.45
-3.51
-4.74
-5.99
-7.08
-7.80
-8.03
-7.83
-7.33
-6.79
-6.32
-5.95
-5.55
-4.92
-3.91
-2.52
-0.93
0.61
1.79
2.46
2.59
2.34
1.94
1.57
1.33
1.15
0.93
0.52
-0.10
-0.85
-1.57
-2.12
-2.46
-2.62
-2.69
-2.71
-2.72
-2.69
-2.65
-2.72
-2.98
-3.47
-4.03
-4.39
-4.27
-3.53
-2.25
-0.67
0.91
2.29
3.45
4.46
5.37
6.13
6.62
6.72
6.44
5.95
5.53
5.45
5.78
6.46
7.23
7.84
8.13
8.10
7.87
7.57
7.32
7.14
7.03
6.92
6.79
6.56
6.16
5.47
4.46
3.16
1.73
0.40
-0.64
-1.34
-1.89
-2.59
-3.73
-5.25
-6.66
-7.19
-6.08
-3.08
1.37
6.21
10.20
12.42
12.48
10.51
6.93
2.20
-3.16
-8.44
-12.61
-14.57
-13.51
-9.45
-3.31
3.36
9.06
12.84
14.51
14.47
13.32
11.50
9.19
6.54
3.71
1.07
-0.93
-1.87
-1.51
0.14
2.86
6.25
9.93
13.53
16.80
19.59
21.65
22.75
22.57
20.93
17.85
13.65
8.86
4.09
-0.13
-3.45
-5.70
-6.89
-7.14
-6.64
-5.61
-4.20
-2.47
-0.40
2.03
4.74
7.50
9.94
11.76
12.88
13.49
13.90
14.36
14.81
14.90
14.01
11.62
7.49
1.84
-4.68
-11.28
-17.22
-22.10
-25.81
-28.46
-30.23
-31.22
-31.44
-30.87
-29.56
-27.60
-25.17
-22.31
-18.99
-15.10
-10.64
-5.90
-1.44
2.13
4.49
5.88
7.11
9.12
12.52
17.20
22.40
27.06
30.34
31.93
31.93
30.60
28.02
24.16
19.19
13.72
8.82
5.67
4.99
6.67
9.80
13.21
16.12
18.57
21.53
26.46
34.70
46.77
61.99
78.42
93.41
104.38
109.75
109.46
105.04
98.88
93.30
89.61
87.53
85.42
80.86
71.51
55.83
33.53
5.86
-24.46
-53.55
-76.98
-90.90
-93.20
-84.55
-68.48
-50.54
-36.39
-29.94
-32.13
-40.89
-52.48
-63.19
-70.72
-74.53
-75.39
-74.29
-71.66
-67.14
-60.07
-50.29
-38.67
-27.08
-17.64
-11.71
-9.14
-8.23
-6.49
-1.87
6.14
16.27
26.06
33.15
36.42
36.55
35.57
35.84
39.04
45.43
53.98
62.86
70.25
74.92
76.53
75.40
72.19
67.58
62.23
56.85
52.20
48.89
46.87
45.13
41.87
35.17
23.94
8.61
-8.95
-26.08
-40.41
-50.70
-57.03
-60.45
-62.34
-63.83
-65.52
-67.62
-70.11
-73.02
-76.44
-80.54
-85.46
-91.14
-97.17
-102.72
-106.69
-108.07
-106.33
-101.64
-94.86
-86.96
-78.60
-69.63
-59.22
-46.71
-32.56
-18.85
-8.79
-5.25
-9.21
-19.03
-31.04
-41.20
-46.75
-46.91
-42.47
-34.82
-25.16
-14.34
-3.35
6.34
13.07
15.64
14.08
9.67
4.34
-0.34
-3.76
-6.17
-8.07
-9.62
-10.52
-10.41
-9.39
-8.27
-8.12
-9.61
-12.45
-15.49
-17.39
-17.49
-16.25
-14.94
-14.82
-16.26
-18.61
-20.66
-21.57
-21.46
-21.37
-22.45
-24.92
-27.71
-28.81
-26.46
-20.27
-11.54
-2.67
4.20
8.17
9.99
11.29
13.57
17.26
21.73
25.74
28.33
29.32
29.13
28.38
27.38
26.08
24.34
22.23
20.10
18.46
17.70
17.86
18.66
19.63
20.36
20.54
20.08
19.04
17.59
15.97
14.42
13.10
12.07
11.29
10.66
10.04
9.34
8.53
7.67
6.84
6.06
5.33
4.55
3.61
2.39
0.86
-0.94
-2.84
-4.60
-5.94
-6.64
-6.60
-5.89
-4.75
-3.51
-2.47
-1.81
-1.50
-1.39
-1.27
-0.99
-0.55
-0.05
0.38
0.67
0.85
0.99
1.10
1.17
1.14
0.98
0.79
0.71
0.87
1.24
1.64
1.77
1.42
0.51
-0.83
-2.35
-3.77
-4.93
-5.80
-6.45
-6.96
-7.37
-7.64
-7.63
-7.21
-6.28
-4.88
-3.09
-1.08
0.96
2.87
4.53
5.87
6.85
7.49
7.85
8.00
8.01
7.92
7.71
7.35
6.81
6.10
5.24
4.30
3.30
2.31
1.39
0.59
0.03
-0.27
-0.32
-0.27
-0.30
-0.61
-1.30
-2.31
-3.42
-4.29
-4.60
-4.18
-3.04
-1.41
0.40
2.07
3.45
4.49
5.29
5.94
6.52
7.03
7.45
7.75
7.89
7.90
7.79
7.64
7.51
7.48
7.56
7.70
7.77
7.55
6.95
5.92
4.62
3.34
2.39
2.01
2.20
2.75
3.20
3.13
2.22
0.51
-1.59
-3.41
-4.18
-3.34
-0.69
3.40
7.99
11.74
13.29
11.93
8.18
3.93
1.86
4.31
12.07
23.81
36.47
46.40
50.63
47.81
38.31
23.68
6.01
-12.51
-29.73
-43.70
-52.89
-56.69
-55.68
-51.41
-45.75
-40.03
-34.62
-29.11
-22.99
-16.38
-10.10
-5.24
-2.37
-0.98
0.35
3.23
8.47
15.66
23.49
30.68
36.91
43.18
51.36
63.17
79.23
98.55
119.01
138.19
154.33
166.96
176.77
185.01
192.64
199.80
205.77
209.44
209.73
205.61
195.81
178.54
152.13
116.33
73.63
29.42
-9.53
-37.71
-53.25
-58.46
-58.33
-57.75
-59.29
-62.75
-66.53
-69.45
-71.63
-74.17
-77.90
-82.65
-87.23
-90.25
-90.98
-89.66
-87.20
-84.62
-82.64
-81.42
-80.51
-78.94
-75.53
-69.41
-60.56
-50.06
-39.74
-31.48
-26.24
-23.71
-22.48
-20.84
-17.67
-12.79
-6.95
-1.33
2.99
5.59
6.71
7.05
7.23
7.29
6.68
4.54
0.30
-5.92
-13.44
-21.35
-28.96
-35.92
-42.01
-46.65
-48.91
-47.69
-42.33
-33.05
-20.99
-7.83
4.70
15.03
21.90
24.27
21.69
14.74
5.24
-4.08
-10.50
-12.28
-9.39
-3.22
4.15
10.99
16.71
21.81
27.32
34.01
41.95
50.56
59.02
66.74
73.57
79.73
85.56
91.33
97.03
102.14
105.58
105.69
100.58
88.67
69.39
43.63
13.73
-17.09
-45.63
-69.39
-87.04
-98.20
-103.19
-102.63
-97.61
-89.62
-80.60
-72.57
-67.00
-64.32
-63.76
-63.82
-62.89
-59.97
-54.82
-47.81
-39.50
-30.50
-21.60
-14.16
-10.09
-11.29
-18.63
-31.12
-45.85
-58.93
-66.97
-68.35
-63.58
-54.75
-44.42
-34.58
-26.26
-19.67
-14.66
-10.93
-8.08
-5.45
-2.14
2.72
9.56
17.92
26.50
33.53
37.49
37.64
34.40
29.16
23.67
19.40
16.94
15.91
15.30
14.03
11.38
7.14
1.71
-4.21
-9.58
-13.40
-14.79
-13.30
-9.27
-3.75
1.60
4.97
4.86
0.56
-7.73
-18.99
-31.70
-44.24
-55.28
-64.00
-70.00
-73.24
-73.75
-71.59
-67.07
-61.05
-55.05
-50.87
-49.94
-52.58
-57.93
-64.36
-70.36
-75.07
-78.34
-80.40
-81.45
-81.65
-81.31
-80.94
-80.96
-81.20
-80.63
-77.77
-71.57
-62.23
-51.36
-41.12
-33.12
-27.56
-23.24
-18.45
-11.90
-3.40
6.31
16.06
24.71
31.47
36.01
38.39
39.13
39.14
39.45
40.83
43.49
47.00
50.58
53.45
55.29
56.15
56.30
55.89
54.78
52.73
49.63
45.82
41.99
38.94
37.14
36.50
36.43
36.13
34.99
32.80
29.78
26.38
23.04
20.07
17.53
15.39
13.49
11.73
10.01
8.37
6.85
5.52
4.36
3.29
2.18
0.92
-0.42
-1.69
-2.62
-3.03
-2.87
-2.25
-1.40
-0.49
0.35
1.08
1.69
2.15
2.48
2.69
2.85
2.99
3.13
3.21
3.18
3.03
2.80
2.59
2.46
2.43
2.40
2.24
1.89
1.33
0.65
-0.11
-0.86
-1.64
-2.43
-3.24
-4.03
-4.77
-5.49
-6.21
-7.00
-7.79
-8.47
-8.83
-8.63
-7.74
-6.14
-4.04
-1.70
0.54
2.48
4.01
5.19
6.17
7.07
7.94
8.78
9.54
10.20
10.74
11.17
11.40
11.29
10.67
9.44
7.65
5.54
3.49
1.80
0.66
-0.00
-0.40
-0.79
-1.27
-1.83
-2.34
-2.69
-2.97
-3.36
-4.13
-5.38
-6.99
-8.56
-9.65
-9.86
-9.05
-7.33
-4.97
-2.33
0.31
2.74
4.82
6.45
7.56
8.19
8.44
8.51
8.59
8.75
9.00
9.16
9.10
8.71
8.05
7.29
6.62
6.19
6.01
5.98
5.89
5.61
5.08
4.40
3.70
3.06
2.48
1.87
1.15
0.28
-0.64
-1.49
-2.20
-2.76
-3.26
-3.77
-4.26
-4.56
-4.48
-3.84
-2.63
-0.98
0.87
2.67
4.28
5.66
6.87
7.97
8.97
9.74
10.14
10.08
9.57
8.83
8.14
7.73
7.68
7.93
8.29
8.58
8.71
8.63
8.36
7.89
7.19
6.23
5.04
3.73
2.44
1.36
0.60
0.21
0.07
-0.04
-0.40
-1.21
-2.52
-4.21
-5.93
-7.33
-8.07
-7.98
-7.11
-5.60
-3.70
-1.63
0.44
2.36
4.06
5.50
6.70
7.72
8.63
9.42
10.05
10.43
10.51
10.29
9.87
9.37
8.92
8.56
8.26
7.97
7.63
7.20
6.67
6.00
5.22
4.33
3.38
2.49
1.76
1.29
1.03
0.88
0.66
0.23
-0.45
-1.34
-2.27
-3.11
-3.71
-4.01
-3.98
-3.63
-2.99
-2.12
-1.07
0.11
1.35
2.65
3.92
5.09
6.03
6.63
6.89
6.88
6.79
6.80
6.98
7.26
7.51
7.61
7.50
7.28
7.04
6.86
6.65
6.30
5.66
4.72
3.59
2.48
1.55
0.87
0.36
-0.12
-0.70
-1.43
-2.34
-3.36
-4.46
-5.54
-6.49
-7.11
-7.23
-6.73
-5.63
-4.11
-2.42
-0.83
0.55
1.69
2.67
3.65
4.64
5.63
6.52
7.21
7.65
7.89
8.01
8.06
8.03
7.85
7.46
6.82
6.04
5.27
4.64
4.19
3.81
3.36
2.66
1.68
0.54
-0.54
-1.34
-1.72
-1.73
-1.55
-1.38
-1.42
-1.70
-2.20
-2.87
-3.68
-4.59
-5.53
-6.32
-6.70
-6.47
-5.57
-4.14
-2.49
-0.91
0.43
1.61
2.75
4.01
5.38
6.74
7.87
8.63
8.99
9.02
8.92
8.84
8.88
8.96
8.96
8.75
8.25
7.54
6.76
6.06
5.54
5.15
4.80
4.41
3.99
3.59
3.30
3.14
3.04
2.86
2.48
1.86
1.00
-0.04
-1.19
-2.42
-3.69
-4.92
-6.02
-6.80
-7.11
-6.82
-5.94
-4.59
-3.00
-1.41
-0.01
1.16
2.16
3.10
4.04
4.94
5.69
6.15
6.25
6.00
5.54
5.03
4.57
4.22
3.91
3.59
3.12
2.50
1.74
0.96
0.24
-0.36
-0.87
-1.38
-1.98
-2.68
-3.38
-3.95
-4.31
-4.44
-4.47
-4.53
-4.75
-5.13
-5.64
-6.19
-6.67
-7.02
-7.12
-6.83
-6.00
-4.58
-2.62
-0.34
1.97
4.05
5.76
7.14
8.27
9.30
10.27
11.15
11.84
12.16
12.02
11.39
10.37
9.10
7.69
6.24
4.78
3.33
1.93
0.71
-0.20
-0.72
-0.92
-0.99
-1.17
-1.58
-2.16
-2.69
-2.86
-2.51
-1.66
-0.56
0.46
1.06
1.07
0.53
-0.40
-1.44
-2.35
-2.95
-3.16
-2.94
-2.33
-1.39
-0.21
1.06
2.28
3.32
4.09
4.59
4.86
4.95
4.92
4.81
4.67
4.54
4.44
4.34
4.20
4.00
3.76
3.57
3.52
3.64
3.86
4.03
4.03
3.81
3.45
3.09
2.88
2.89
3.08
3.37
3.68
3.91
4.05
4.09
4.00
3.76
3.33
2.74
1.98
1.15
0.38
-0.20
-0.39
-0.12
0.66
1.76
2.99
4.09
4.96
5.57
6.07
6.57
7.08
7.55
7.83
7.83
7.54
7.02
6.35
5.60
4.78
3.89
3.02
2.31
1.98
2.23
3.16
4.69
6.57
8.47
10.03
11.05
11.44
11.30
10.75
9.85
8.62
6.96
4.86
2.40
-0.21
-2.74
-4.99
-6.90
-8.53
-9.95
-11.20
-12.21
-12.82
-12.88
-12.31
-11.18
-9.65
-7.93
-6.19
-4.51
-2.92
-1.49
-0.28
0.60
1.08
1.19
1.06
0.83
0.63
0.48
0.34
0.14
-0.12
-0.39
-0.61
-0.73
-0.72
-0.55
-0.22
0.32
1.06
1.97
2.91
3.76
4.41
4.81
4.99
5.00
4.89
4.69
4.41
4.02
3.51
2.88
2.13
1.33
0.57
-0.08
-0.54
-0.77
-0.73
-0.42
0.19
1.08
2.20
3.44
4.71
5.88
6.90
7.73
8.32
8.62
8.53
8.02
7.13
6.01
4.89
3.93
3.26
2.83
2.60
2.51
2.60
2.91
3.45
4.17
4.93
5.58
5.94
5.92
5.44
4.51
3.20
1.66
0.09
-1.38
-2.64
-3.77
-4.90
-6.13
-7.50
-8.89
-10.12
-10.94
-11.23
-10.90
-10.03
-8.77
-7.27
-5.73
-4.26
-2.94
-1.81
-0.92
-0.28
0.07
0.18
0.13
0.08
0.13
0.32
0.59
0.81
0.88
0.75
0.44
0.05
-0.32
-0.57
-0.68
-0.68
-0.65
-0.70
-0.90
-1.24
-1.66
-2.03
-2.27
-2.33
-2.26
-2.14
-2.06
-2.07
-2.21
-2.45
-2.83
-3.36
-4.08
-4.96
-5.84
-6.52
-6.75
-6.37
-5.41
-4.08
-2.69
-1.51
-0.65
-0.01
0.63
1.47
2.57
3.79
4.90
5.69
6.12
6.29
6.46
6.83
7.51
8.43
9.41
10.27
10.86
11.20
11.43
11.78
12.47
13.60
15.10
16.68
18.00
18.77
18.93
18.75
18.76
19.54
21.45
24.48
28.18
31.84
34.74
36.36
36.55
35.57
34.06
32.90
33.04
35.11
39.12
44.26
48.99
51.51
50.51
45.74
38.19
29.72
22.29
17.19
14.62
13.73
13.19
11.81
8.99
4.80
-0.23
-5.46
-10.41
-14.73
-18.19
-20.55
-21.60
-21.24
-19.69
-17.47
-15.30
-13.87
-13.50
-14.11
-15.21
-16.19
-16.56
-16.06
-14.69
-12.54
-9.80
-6.71
-3.60
-0.91
0.96
1.77
1.55
0.59
-0.68
-1.94
-3.03
-3.90
-4.52
-4.72
-4.35
-3.26
-1.58
0.34
2.01
3.03
3.27
2.81
1.91
0.71
-0.95
-3.50
-7.40
-12.82
-19.40
-26.16
-31.89
-35.56
-36.84
-36.28
-35.02
-34.29
-34.80
-36.53
-38.92
-41.32
-43.41
-45.33
-47.46
-50.13
-53.49
-57.51
-62.21
-67.68
-73.90
-80.51
-86.66
-91.25
-93.26
-92.11
-87.70
-80.28
-70.15
-57.80
-43.84
-29.23
-15.10
-2.42
8.43
17.83
26.64
35.65
45.02
54.06
61.62
66.56
68.45
67.62
65.17
62.40
60.38
59.73
60.46
62.25
64.59
66.95
68.72
69.24
67.83
64.02
57.84
49.93
41.38
33.34
26.58
21.23
16.83
12.67
8.16
3.13
-2.27
-7.71
-12.91
-17.80
-22.42
-26.84
-30.97
-34.61
-37.35
-38.66
-38.00
-34.96
-29.45
-21.83
-12.97
-3.96
4.14
10.67
15.31
18.03
18.79
17.45
13.91
8.32
1.37
-5.84
-12.04
-16.28
-18.17
-17.92
-16.15
-13.52
-10.44
-7.07
-3.36
0.77
5.32
10.13
14.96
19.45
23.32
26.33
28.39
29.51
29.80
29.40
28.41
27.00
25.32
23.73
22.61
22.37
23.25
25.20
27.94
30.93
33.67
35.73
36.87
37.09
36.50
35.33
33.77
31.91
29.68
26.89
23.28
18.70
13.17
6.92
0.34
-6.16
-12.23
-17.73
-22.76
-27.68
-32.99
-39.08
-45.91
-52.82
-58.75
-62.59
-63.75
-62.48
-59.77
-56.99
-55.24
-55.14
-56.56
-58.82
-60.77
-61.09
-58.67
-53.12
-45.12
-36.39
-29.07
-24.83
-24.08
-25.81
-28.16
-29.40
-28.57
-25.81
-21.87
-17.62
-13.59
-9.98
-6.84
-4.32
-2.67
-2.04
-2.34
-3.15
-3.84
-3.86
-2.91
-1.14
0.97
2.76
3.63
3.28
1.76
-0.56
-3.16
-5.48
-7.16
-7.97
-7.95
-7.28
-6.23
-5.04
-3.79
-2.48
-1.02
0.53
1.88
2.58
2.16
0.38
-2.62
-6.33
-10.05
-13.10
-15.05
-15.79
-15.41
-14.17
-12.36
-10.21
-7.91
-5.59
-3.31
-1.10
1.03
3.16
5.28
7.40
9.43
11.25
12.75
13.86
14.58
14.91
14.94
14.65
14.04
13.11
11.87
10.43
8.89
7.41
6.05
4.84
3.77
2.83
2.02
1.33
0.73
0.23
-0.12
-0.27
-0.17
0.16
0.53
0.70
0.49
-0.10
-0.91
-1.60
-1.94
-1.89
-1.62
-1.46
-1.70
-2.53
-3.94
-5.80
-7.86
-9.84
-11.45
-12.43
-12.60
-11.88
-10.32
-8.07
-5.34
-2.41
0.50
3.11
5.22
6.63
7.20
6.85
5.62
3.66
1.24
-1.33
-3.74
-5.78
-7.35
-8.44
-9.13
-9.48
-9.50
-9.24
-8.74
-8.16
-7.58
-7.11
-6.67
-6.13
-5.28
-3.95
-2.15
-0.04
2.05
3.78
4.88
5.28
5.10
4.56
3.91
3.32
2.86
2.54
2.35
2.33
2.52
2.94
3.57
4.30
5.02
5.61
6.08
6.43
6.70
6.81
6.69
6.24
5.46
4.44
3.30
2.17
1.07
-0.03
-1.11
-2.11
-2.93
-3.48
-3.75
-3.90
-4.05
-4.25
-4.41
-4.32
-3.83
-2.96
-1.87
-0.80
0.05
0.65
1.10
1.54
2.04
2.53
2.90
3.09
3.10
3.02
2.99
3.08
3.28
3.51
3.63
3.62
3.46
3.26
3.07
2.96
2.95
3.01
3.11
3.17
3.11
2.90
2.55
2.10
1.65
1.26
0.95
0.66
0.27
-0.26
-0.94
-1.65
-2.19
-2.41
-2.23
-1.70
-0.93
-0.07
0.79
1.64
2.51
3.40
4.28
5.03
5.57
5.83
5.83
5.65
5.39
5.14
4.92
4.76
4.65
4.59
4.62
4.73
4.87
4.94
4.77
4.25
3.26
1.82
0.08
-1.69
-3.21
-4.21
-4.61
-4.44
-3.83
-2.93
-1.82
-0.58
0.71
1.90
2.75
3.08
2.78
1.95
0.85
-0.25
-1.10
-1.64
-1.93
-2.11
-2.26
-2.42
-2.54
-2.58
-2.57
-2.55
-2.60
-2.75
-2.99
-3.21
-3.31
-3.18
-2.82
-2.29
-1.69
-1.19
-0.90
-0.91
-1.20
-1.64
-2.09
-2.37
-2.44
-2.33
-2.18
-2.12
-2.21
-2.44
-2.71
-2.96
-3.13
-3.21
-3.21
-3.11
-2.86
-2.41
-1.77
-0.97
-0.13
0.67
1.37
1.99
2.60
3.24
3.91
4.52
4.97
5.16
5.11
4.95
4.86
4.99
5.34
5.80
6.17
6.33
6.27
6.12
6.03
6.11
6.34
6.59
6.78
6.85
6.89
6.96
7.08
7.17
7.04
6.52
5.54
4.21
2.72
1.31
0.22
-0.47
-0.75
-0.74
-0.58
-0.50
-0.63
-1.04
-1.64
-2.25
-2.69
-2.83
-2.68
-2.35
-2.01
-1.73
-1.54
-1.36
-1.10
-0.73
-0.27
0.16
0.44
0.49
0.32
0.03
-0.21
-0.28
-0.17
0.07
0.29
0.36
0.25
-0.02
-0.35
-0.68
-0.98
-1.31
-1.69
-2.06
-2.31
-2.25
-1.77
-0.91
0.15
1.10
1.68
1.73
1.28
0.49
-0.42
-1.29
-2.00
-2.50
-2.74
-2.71
-2.41
-1.89
-1.26
-0.63
-0.12
0.26
0.54
0.80
1.09
1.40
1.69
1.85
1.85
1.73
1.59
1.58
1.73
2.03
2.36
2.61
2.72
2.70
2.63
2.52
2.39
2.18
1.88
1.51
1.15
0.89
0.74
0.65
0.52
0.30
-0.07
-0.52
-1.01
-1.50
-2.02
-2.59
-3.19
-3.73
-4.03
-3.97
-3.48
-2.66
-1.66
-0.66
0.25
1.07
1.86
2.66
3.43
4.05
4.40
4.42
4.18
3.78
3.36
2.99
2.69
2.45
2.30
2.26
2.33
2.45
2.53
2.46
2.21
1.81
1.37
0.99
0.73
0.58
0.49
0.42
0.33
0.17
-0.08
-0.47
-1.01
-1.70
-2.43
-3.07
-3.51
-3.66
-3.53
-3.15
-2.59
-1.92
-1.14
-0.33
0.50
1.26
1.90
2.35
2.61
2.77
2.91
3.14
3.48
3.83
4.04
3.98
3.64
3.15
2.72
2.54
2.60
2.75
2.73
2.34
1.57
0.59
-0.35
-1.01
-1.36
-1.48
-1.54
-1.70
-1.99
-2.34
-2.67
-2.91
-3.08
-3.22
-3.39
-3.52
-3.46
-3.05
-2.22
-1.03
0.30
1.46
2.21
2.45
2.32
2.03
1.81
1.74
1.74
1.67
1.40
0.97
0.49
0.16
0.08
0.23
0.47
0.63
0.60
0.37
0.05
-0.22
-0.32
-0.24
-0.04
0.15
0.16
-0.07
-0.60
-1.36
-2.22
-3.06
-3.80
-4.39
-4.80
-5.01
-4.95
-4.53
-3.66
-2.37
-0.82
0.71
1.93
2.66
2.87
2.72
2.42
2.18
2.05
2.01
1.98
1.89
1.77
1.69
1.74
1.95
2.28
2.61
2.81
2.82
2.64
2.33
2.01
1.73
1.51
1.27
0.95
0.50
-0.06
-0.64
-1.11
-1.39
-1.47
-1.40
-1.34
-1.42
-1.77
-2.38
-3.15
-3.91
-4.44
-4.58
-4.24
-3.46
-2.40
-1.28
-0.30
0.43
0.90
1.19
1.37
1.48
1.47
1.33
1.09
0.79
0.53
0.35
0.27
0.25
0.24
0.24
0.28
0.39
0.54
0.70
0.81
0.84
0.79
0.72
0.64
0.56
0.45
0.26
-0.06
-0.56
-1.24
-2.10
-3.06
-4.03
-4.92
-5.63
-6.12
-6.35
-6.28
-5.86
-5.03
-3.77
-2.18
-0.46
1.15
2.37
3.05
3.18
2.86
2.29
1.67
1.20
0.96
0.97
1.16
1.45
1.69
1.76
1.60
1.18
0.59
-0.06
-0.63
-1.01
-1.11
-0.89
-0.36
0.39
1.22
1.94
2.40
2.46
2.13
1.48
0.65
-0.19
-0.90
-1.46
-1.85
-2.15
-2.42
-2.70
-3.02
-3.35
-3.66
-3.88
-3.97
-3.84
-3.42
-2.70
-1.70
-0.57
0.53
1.43
2.04
2.40
2.59
2.77
3.01
3.34
3.72
4.05
4.29
4.39
4.37
4.26
4.10
3.91
3.68
3.41
3.08
2.70
2.29
1.89
1.54
1.26
1.04
0.86
0.66
0.38
0.04
-0.35
-0.71
-1.01
-1.24
-1.48
-1.88
-2.54
-3.45
-4.45
-5.31
-5.78
-5.76
-5.27
-4.49
-3.60
-2.72
-1.88
-1.05
-0.24
0.58
1.35
2.06
2.70
3.23
3.57
3.63
3.35
2.75
1.98
1.25
0.72
0.47
0.42
0.45
0.44
0.36
0.28
0.25
0.29
0.37
0.45
0.50
0.52
0.50
0.41
0.18
-0.29
-0.96
-1.69
-2.25
-2.47
-2.31
-1.92
-1.55
-1.44
-1.67
-2.13
-2.62
-2.93
-2.98
-2.83
-2.57
-2.28
-1.94
-1.50
-0.93
-0.25
0.41
0.93
1.22
1.31
1.28
1.20
1.14
1.09
1.01
0.88
0.70
0.48
0.25
-0.04
-0.39
-0.83
-1.32
-1.76
-2.11
-2.32
-2.45
-2.58
-2.79
-3.10
-3.47
-3.83
-4.11
-4.38
-4.74
-5.34
-6.24
-7.38
-8.62
-9.77
-10.77
-11.65
-12.57
-13.63
-14.87
-16.06
-16.87
-17.01
-16.35
-15.01
-13.33
-11.74
-10.54
-9.87
-9.63
-9.60
-9.58
-9.45
-9.27
-9.16
-9.32
-9.87
-10.76
-11.74
-12.42
-12.46
-11.76
-10.64
-9.70
-9.61
-10.71
-12.66
-14.36
-13.99
-9.32
1.86
21.26
49.56
85.95
127.90
171.31
211.20
242.89
263.05
270.60
266.66
254.03
236.13
216.14
196.46
178.58
163.33
151.01
141.44
133.89
127.10
119.46
109.50
96.31
79.87
61.02
41.18
21.78
3.87
-12.19
-26.63
-39.89
-52.12
-62.98
-71.62
-77.03
-78.44
-75.80
-69.87
-62.22
-54.92
-50.07
-49.36
-53.54
-62.22
-73.93
-86.46
-97.69
-106.19
-111.57
-114.36
-115.42
-115.48
-114.76
-113.20
-110.71
-107.51
-104.05
-100.81
-98.03
-95.53
-92.95
-89.92
-86.42
-82.78
-79.50
-77.01
-75.34
-74.25
-73.22
-71.84
-69.86
-67.31
-64.30
-60.96
-57.30
-53.23
-48.65
-43.47
-37.67
-31.20
-24.01
-16.08
-7.43
1.68
10.89
19.71
27.73
34.59
40.05
43.95
46.18
46.82
46.05
44.22
41.73
38.92
35.99
32.96
29.83
26.56
23.19
19.77
16.33
12.93
9.70
6.83
4.52
2.87
1.75
0.87
-0.12
-1.42
-2.92
-4.28
-5.07
-4.94
-3.77
-1.71
0.92
3.75
6.37
8.41
9.58
9.73
8.80
6.91
4.23
0.97
-2.65
-6.46
-10.24
-13.84
-17.12
-20.07
-22.70
-25.04
-27.03
-28.54
-29.39
-29.47
-28.82
-27.56
-25.86
-23.83
-21.49
-18.88
-16.10
-13.39
-11.05
-9.31
-8.18
-7.49
-6.95
-6.34
-5.60
-4.81
-4.14
-3.64
-3.25
-2.87
-2.38
-1.77
-1.11
-0.51
-0.02
0.41
0.87
1.42
2.02
2.56
2.93
3.07
3.05
3.03
3.14
3.48
3.96
4.41
4.61
4.41
3.80
2.87
1.81
0.77
-0.08
-0.67
-1.00
-1.08
-1.01
-0.93
-0.96
-1.23
-1.76
-2.51
-3.37
-4.24
-5.08
-5.90
-6.74
-7.60
-8.46
-9.17
-9.64
-9.78
-9.55
-9.03
-8.33
-7.61
-6.99
-6.58
-6.35
-6.22
-6.02
-5.61
-4.90
-3.94
-2.92
-2.00
-1.31
-0.83
-0.41
0.08
0.71
1.39
1.95
2.24
2.24
2.07
1.93
1.98
2.25
2.69
3.17
3.61
4.03
4.45
4.89
5.33
5.74
6.07
6.42
6.83
7.38
8.02
8.62
8.99
9.02
8.68
8.03
7.24
6.42
5.72
5.23
5.02
5.17
5.76
6.88
8.54
10.75
13.35
16.07
18.55
20.38
21.35
21.45
20.97
20.33
20.00
20.25
21.10
22.32
23.48
24.16
24.08
23.26
21.95
20.55
19.49
19.00
19.19
19.94
21.13
22.61
24.33
26.22
28.18
30.02
31.49
32.38
32.48
31.64
29.63
26.12
20.71
13.04
3.12
-8.44
-20.33
-30.91
-38.69
-43.00
-44.17
-43.18
-40.99
-38.02
-34.23
-29.59
-24.76
-21.05
-19.78
-21.31
-24.40
-26.64
-25.70
-20.69
-12.80
-4.79
0.41
1.10
-2.45
-8.36
-14.26
-18.37
-20.20
-20.36
-19.94
-19.91
-20.54
-21.50
-22.02
-21.47
-19.60
-16.73
-13.57
-10.90
-9.27
-8.76
-9.07
-9.66
-10.10
-10.32
-10.69
-11.89
-14.39
-18.17
-22.50
-26.31
-28.64
-29.14
-28.18
-26.52
-24.86
-23.31
-21.37
-18.16
-12.94
-5.56
3.55
13.51
23.44
32.69
41.01
48.23
54.11
58.17
59.77
58.56
54.71
49.20
43.45
38.89
36.35
35.73
36.25
36.82
36.56
35.01
32.08
27.90
22.77
17.12
11.56
6.86
3.66
2.40
3.02
5.16
8.21
11.46
14.24
15.88
15.90
14.05
10.55
5.98
1.05
-3.78
-8.52
-13.60
-19.52
-26.37
-33.64
-40.36
-45.52
-48.59
-49.61
-49.05
-47.50
-45.39
-42.94
-40.41
-38.19
-36.73
-36.32
-36.74
-37.17
-36.51
-33.80
-28.64
-21.27
-12.48
-3.15
5.94
14.25
21.41
27.12
31.15
33.44
34.21
33.94
33.27
32.72
32.55
32.63
32.53
31.71
29.81
26.84
23.17
19.45
16.30
14.09
12.89
12.44
12.38
12.33
12.12
11.70
11.19
10.74
10.49
10.61
11.12
12.07
13.36
14.79
16.06
16.85
16.88
15.99
14.18
11.54
8.29
4.61
0.70
-3.24
-7.02
-10.38
-13.07
-14.75
-15.17
-14.16
-11.82
-8.62
-5.29
-2.78
-1.86
-2.93
-5.75
-9.64
-13.71
-17.27
-20.02
-21.93
-23.09
-23.43
-22.76
-20.94
-18.19
-15.17
-12.80
-11.86
-12.54
-14.33
-16.30
-17.63
-18.12
-18.22
-18.71
-20.07
-22.15
-24.14
-25.03
-24.08
-21.34
-17.56
-13.89
-11.37
-10.44
-10.92
-12.20
-13.62
-14.73
-15.36
-15.47
-14.86
-13.20
-10.16
-5.80
-0.76
3.77
6.58
7.01
5.30
2.53
0.02
-1.30
-1.39
-1.09
-1.63
-4.01
-8.48
-14.31
-20.06
-24.11
-25.25
-23.17
-18.55
-12.63
-6.73
-1.68
2.25
5.11
6.91
7.37
6.14
3.24
-0.58
-4.05
-5.85
-5.36
-3.02
-0.10
1.98
2.42
1.31
-0.56
-2.37
-3.65
-4.49
-5.23
-6.11
-7.08
-7.88
-8.32
-8.42
-8.35
-8.26
-8.08
-7.50
-6.10
-3.72
-0.65
2.31
4.12
3.96
1.75
-1.74
-5.08
-6.78
-6.01
-2.88
1.44
5.30
7.13
5.84
1.08
-6.64
-15.87
-24.31
-29.30
-28.72
-21.98
-10.55
2.53
13.86
21.13
23.96
23.59
21.81
19.93
18.20
16.28
14.03
12.02
11.35
12.83
16.17
19.82
21.61
19.84
14.15
5.74
-3.28
-10.94
-16.27
-19.61
-22.11
-24.98
-28.70
-32.70
-35.58
-35.87
-32.81
-26.78
-19.26
-12.08
-6.69
-3.61
-2.41
-2.32
-2.87
-4.31
-7.29
-12.20
-18.46
-24.49
-28.44
-29.18
-26.92
-22.95
-18.76
-15.11
-11.76
-7.96
-3.23
2.05
6.94
10.50
12.51
13.56
14.66
16.47
19.03
21.80
24.18
25.94
27.34
28.87
30.89
33.35
35.79
37.43
37.47
35.43
31.36
25.94
20.28
15.54
12.42
11.01
10.77
10.93
10.80
9.86
7.77
4.32
-0.38
-5.75
-10.61
-13.50
-13.38
-10.25
-5.40
-1.03
0.73
-1.22
-6.42
-13.13
-19.01
-22.08
-21.43
-17.41
-11.45
-5.37
-0.81
1.46
1.60
0.52
-0.76
-1.60
-2.05
-2.63
-3.88
-5.92
-8.28
-10.30
-11.49
-11.89
-11.86
-11.70
-11.27
-10.00
-7.47
-3.83
-0.12
2.22
2.13
-0.43
-4.31
-7.76
-9.18
-7.86
-4.03
1.37
7.31
12.92
17.69
21.43
24.17
26.14
27.64
28.99
30.45
32.11
33.96
35.83
37.49
38.66
39.03
38.43
37.05
35.42
34.25
34.01
34.61
35.35
35.27
33.66
30.33
25.58
19.80
13.13
5.58
-2.79
-11.38
-19.09
-24.56
-26.80
-25.71
-22.22
-18.08
-15.13
-14.76
-17.41
-22.51
-28.79
-34.77
-39.28
-41.82
-42.69
-42.79
-43.21
-44.71
-47.31
-50.26
-52.27
-52.08
-48.89
-42.87
-35.18
-27.68
-22.41
-20.73
-22.84
-27.62
-33.06
-37.05
-38.14
-35.97
-31.15
-24.81
-18.05
-11.72
-6.41
-2.74
-1.30
-2.55
-6.42
-11.98
-17.60
-21.33
-21.73
-18.28
-11.70
-3.56
4.22
10.05
13.15
13.63
12.42
10.82
10.11
11.21
14.46
19.70
26.24
33.06
38.86
42.34
42.39
38.52
31.14
21.63
11.99
4.24
-0.13
-0.71
1.84
6.16
10.58
13.72
14.62
12.92
8.75
2.74
-4.14
-10.64
-15.40
-17.29
-15.65
-10.44
-2.36
7.36
17.24
25.92
32.43
36.34
37.68
36.79
34.15
30.35
26.05
21.95
18.75
17.00
17.01
18.86
22.44
27.66
34.51
42.97
52.89
63.95
75.65
87.59
99.45
110.74
120.24
126.06
126.38
120.28
108.32
91.87
71.88
47.66
17.31
-20.40
-63.63
-106.70
-141.86
-162.93
-168.63
-163.21
-154.09
-147.76
-146.78
-149.54
-152.49
-153.08
-151.05
-147.79
-144.50
-140.92
-135.40
-126.04
-112.21
-95.10
-77.26
-61.60
-50.44
-44.78
-44.01
-46.10
-48.05
-46.92
-40.73
-29.04
-12.74
6.42
26.15
43.79
56.35
61.09
56.52
43.62
26.08
9.27
-1.79
-4.49
0.54
10.18
20.71
29.54
35.91
40.35
43.55
45.57
45.74
43.39
38.51
32.01
25.36
20.00
16.64
14.83
13.35
10.77
6.22
-0.11
-7.07
-12.96
-16.36
-16.63
-14.16
-10.03
-5.56
-1.68
1.29
3.54
5.56
7.68
9.95
12.05
13.57
14.17
13.84
12.80
11.44
10.17
9.25
8.81
8.83
9.23
9.88
10.66
11.43
12.09
12.56
12.78
12.70
12.30
11.57
10.53
9.22
7.68
5.96
4.14
2.31
0.59
-0.89
-2.12
-3.20
-4.35
-5.82
-7.75
-10.08
-12.54
-14.75
-16.31
-17.00
-16.73
-15.60
-13.79
-11.49
-8.89
-6.16
-3.48
-0.99
1.20
3.04
4.50
5.66
6.60
7.39
8.09
8.73
9.33
9.87
10.41
10.96
11.48
11.98
12.32
12.51
12.55
12.55
12.65
12.90
13.19
13.20
12.56
11.02
8.57
5.53
2.39
-0.36
-2.48
-3.96
-5.09
-6.17
-7.46
-9.02
-10.83
-12.81
-14.92
-17.12
-19.31
-21.28
-22.68
-23.18
-22.55
-20.72
-17.91
-14.43
-10.71
-7.06
-3.67
-0.60
2.20
4.77
7.14
9.23
10.99
12.30
13.13
13.51
13.54
13.44
13.37
13.54
13.98
14.64
15.36
15.94
16.27
16.30
16.15
15.91
15.66
15.33
14.82
13.98
12.77
11.25
9.55
7.89
6.43
5.31
4.53
4.05
3.69
3.21
2.41
1.11
-0.70
-2.99
-5.58
-8.28
-10.81
-12.85
-14.12
-14.38
-13.60
-11.89
-9.56
-6.90
-4.19
-1.55
1.01
3.45
5.75
7.80
9.53
10.93
12.07
13.04
13.93
14.77
15.55
16.24
16.72
16.94
16.85
16.47
15.89
15.17
14.43
13.68
12.92
12.10
11.26
10.48
9.80
9.30
8.87
8.38
7.66
6.70
5.59
4.50
3.60
2.93
2.44
1.96
1.29
0.25
-1.27
-3.28
-5.67
-8.17
-10.45
-12.11
-12.87
-12.60
-11.35
-9.39
-6.99
-4.45
-1.94
0.43
2.63
4.65
6.43
7.99
9.27
10.32
11.13
11.78
12.28
12.66
12.95
13.16
13.33
13.50
13.75
14.11
14.63
15.26
15.91
16.46
16.75
16.69
16.23
15.45
14.48
13.46
12.51
11.61
10.70
9.63
8.32
6.76
5.06
3.40
1.91
0.63
-0.53
-1.73
-3.11
-4.73
-6.56
-8.53
-10.55
-12.52
-14.28
-15.60
-16.18
-15.83
-14.49
-12.26
-9.43
-6.34
-3.26
-0.38
2.22
4.52
6.50
8.21
9.68
10.95
12.05
12.96
13.65
14.11
14.33
14.37
14.27
14.09
13.82
13.52
13.24
13.09
13.23
13.77
14.73
15.94
17.04
17.61
17.33
16.09
14.07
11.69
9.33
7.31
5.70
4.44
3.42
2.61
1.99
1.59
1.31
0.96
0.31
-0.82
-2.48
-4.53
-6.74
-8.85
-10.67
-12.03
-12.83
-12.97
-12.36
-10.95
-8.81
-6.15
-3.29
-0.59
1.74
3.61
5.12
6.46
7.77
9.13
10.46
11.63
12.49
13.00
13.18
13.15
13.05
12.94
12.85
12.74
12.58
12.36
12.15
11.97
11.86
11.77
11.59
11.30
10.90
10.51
10.22
10.08
10.04
9.97
9.76
9.32
8.71
7.94
7.07
6.05
4.82
3.30
1.48
-0.56
-2.68
-4.65
-6.30
-7.48
-8.10
-8.16
-7.72
-6.82
-5.58
-4.05
-2.32
-0.45
1.50
3.53
5.59
7.62
9.54
11.26
12.71
13.88
14.77
15.40
15.74
15.70
15.22
14.26
12.97
11.56
10.29
9.31
8.66
8.22
7.84
7.41
6.87
6.19
5.37
4.39
3.31
2.14
1.03
0.06
-0.69
-1.21
-1.59
-1.91
-2.28
-2.74
-3.32
-4.00
-4.76
-5.59
-6.52
-7.59
-8.84
-10.22
-11.54
-12.57
-13.05
-12.90
-12.15
-11.00
-9.68
-8.32
-6.94
-5.51
-4.00
-2.46
-0.97
0.35
1.54
2.62
3.68
4.74
5.73
6.56
7.16
7.61
8.03
8.59
9.35
10.24
11.05
11.54
11.58
11.14
10.37
9.46
8.59
7.85
7.29
6.93
6.71
6.60
6.48
6.22
5.72
4.94
3.97
2.97
2.17
1.63
1.31
1.01
0.44
-0.58
-2.09
-3.97
-5.96
-7.74
-9.03
-9.63
-9.47
-8.58
-7.14
-5.35
-3.44
-1.61
0.06
1.57
2.92
4.11
5.09
5.78
6.09
6.04
5.70
5.26
4.96
4.96
5.31
5.93
6.65
7.27
7.68
7.78
7.62
7.21
6.58
5.76
4.77
3.69
2.59
1.53
0.54
-0.44
-1.47
-2.56
-3.63
-4.56
-5.19
-5.48
-5.47
-5.34
-5.30
-5.54
-6.17
-7.17
-8.38
-9.55
-10.32
-10.44
-9.74
-8.32
-6.41
-4.35
-2.42
-0.77
0.58
1.72
2.72
3.65
4.51
5.30
5.97
6.48
6.79
6.87
6.77
6.57
6.42
6.38
6.45
6.55
6.55
6.39
6.02
5.53
4.99
4.45
3.90
3.31
2.62
1.80
0.88
-0.15
-1.17
-2.13
-2.95
-3.59
-4.06
-4.46
-4.93
-5.61
-6.58
-7.81
-9.17
-10.49
-11.58
-12.31
-12.53
-12.16
-11.17
-9.63
-7.72
-5.69
-3.82
-2.23
-0.92
0.27
1.48
2.77
4.03
5.09
5.81
6.16
6.26
6.29
6.40
6.62
6.88
7.05
7.06
6.84
6.41
5.84
5.19
4.56
3.96
3.39
2.77
2.03
1.14
0.17
-0.74
-1.49
-2.04
-2.42
-2.75
-3.08
-3.44
-3.80
-4.17
-4.63
-5.30
-6.24
-7.42
-8.64
-9.63
-10.11
-9.93
-9.10
-7.75
-6.07
-4.26
-2.46
-0.79
0.71
2.00
3.06
3.88
4.46
4.84
5.08
5.27
5.49
5.78
6.10
6.41
6.68
6.87
7.02
7.11
7.17
7.16
7.04
6.81
6.45
5.98
5.36
4.62
3.72
2.71
1.69
0.75
-0.04
-0.71
-1.34
-2.05
-2.88
-3.82
-4.80
-5.76
-6.69
-7.60
-8.47
-9.26
-9.84
-10.03
-9.74
-8.95
-7.73
-6.23
-4.56
-2.85
-1.16
0.44
1.87
3.07
3.93
4.47
4.70
4.73
4.70
4.72
4.84
5.09
5.41
5.74
6.03
6.26
6.45
6.61
6.71
6.72
6.53
6.11
5.51
4.84
4.24
3.79
3.48
3.20
2.85
2.38
1.88
1.44
1.16
1.00
0.79
0.33
-0.52
-1.72
-3.11
-4.38
-5.26
-5.54
-5.16
-4.17
-2.69
-0.94
0.91
2.64
4.12
5.34
6.37
7.38
8.47
9.67
10.86
11.90
12.71
13.36
14.05
14.98
16.21
17.60
18.87
19.77
20.23
20.42
20.68
21.34
22.51
24.08
25.74
27.21
28.34
29.18
29.85
30.38
30.64
30.28
29.01
26.75
23.75
20.50
17.40
14.41
10.82
5.61
-2.07
-12.30
-24.31
-36.94
-49.20
-60.67
-71.23
-80.52
-87.44
-90.43
-88.33
-81.42
-71.74
-62.28
-55.58
-52.34
-51.20
-49.53
-44.88
-36.16
-23.75
-9.01
6.58
21.99
36.74
50.70
63.79
75.91
86.83
96.34
104.23
110.43
115.04
118.39
120.83
122.38
122.57
120.54
115.54
107.44
97.11
86.12
76.11
68.09
62.09
57.29
52.62
47.34
41.33
35.00
28.88
23.26
18.07
12.94
7.55
1.81
-4.03
-9.48
-14.08
-17.54
-19.90
-21.34
-22.10
-22.35
-22.12
-21.44
-20.39
-19.15
-17.94
-16.92
-16.06
-15.13
-13.77
-11.61
-8.49
-4.59
-0.42
3.37
6.21
7.94
8.81
9.32
10.00
11.17
12.96
15.38
18.50
22.42
27.09
32.21
37.25
41.70
45.40
48.70
52.20
56.28
60.69
64.43
66.22
65.06
60.82
54.19
46.30
38.00
29.45
20.21
9.71
-2.12
-14.77
-27.36
-39.21
-49.98
-59.44
-67.02
-71.76
-72.96
-71.21
-68.98
-70.00
-77.41
-91.98
-111.28
-130.62
-145.21
-152.08
-150.90
-143.45
-132.45
-120.65
-110.42
-103.64
-101.41
-103.38
-107.47
-110.34
-108.72
-100.95
-87.71
-71.62
-55.83
-42.68
-33.01
-26.49
-22.28
-19.49
-17.07
-13.53
-7.12
3.63
18.71
36.11
52.12
62.68
65.29
60.10
49.99
39.06
30.76
26.49
25.33
25.19
24.13
21.47
17.71
13.83
10.40
7.26
3.77
-0.57
-5.59
-10.51
-14.29
-16.29
-16.56
-15.88
-15.34
-15.84
-17.68
-20.44
-23.30
-25.41
-26.34
-26.19
-25.54
-25.09
-25.29
-26.16
-27.36
-28.35
-28.75
-28.42
-27.59
-26.56
-25.65
-24.98
-24.56
-24.29
-24.12
-24.00
-23.90
-23.80
-23.58
-23.17
-22.53
-21.77
-21.08
-20.63
-20.57
-20.87
-21.43
-22.06
-22.65
-23.16
-23.67
-24.34
-25.28
-26.57
-28.17
-29.99
-31.90
-33.77
-35.53
-37.10
-38.50
-39.71
-40.78
-41.70
-42.50
-43.13
-43.43
-43.14
-41.76
-38.83
-33.83
-26.51
-16.90
-5.46
7.07
19.73
31.48
41.51
49.24
54.51
57.56
58.95
59.48
59.88
60.74
62.20
63.94
65.23
65.31
63.73
60.77
57.48
55.35
55.74
59.21
65.32
72.78
79.98
85.65
89.07
90.12
88.94
85.68
80.43
73.41
65.06
