1513730172.00
64.000000
-0.00
-0.00
-0.00
-0.00
-0.00
-0.00
-0.00
-0.00
-0.00
-0.00
0.00
0.01
0.01
-0.00
-0.03
-0.05
-0.05
0.00
0.13
0.36
0.66
1.01
1.37
1.72
2.06
2.40
2.79
3.24
3.80
4.42
5.06
5.66
6.20
6.68
7.15
7.68
8.31
9.14
10.09
11.04
11.88
12.56
13.14
13.76
14.65
15.96
17.91
20.32
22.90
25.38
27.58
29.57
31.68
34.32
37.81
42.54
48.15
54.10
59.83
64.97
69.58
74.14
79.34
85.71
93.76
103.00
112.62
121.73
129.77
136.75
143.30
150.75
157.77
166.64
177.95
191.79
206.97
220.57
228.25
225.36
208.53
176.87
132.76
80.05
23.07
-34.94
-92.44
-149.16
-205.23
-260.37
-313.74
-363.87
-409.84
-450.91
-486.51
-515.74
-537.21
-549.19
-549.92
-538.35
-514.24
-478.80
-434.12
-382.79
-327.43
-270.27
-213.06
-157.07
-103.36
-52.82
-6.44
34.94
70.69
100.56
124.71
143.62
157.96
168.38
175.46
179.61
181.15
180.41
177.73
173.49
168.02
161.63
154.51
146.82
138.70
130.36
122.03
113.96
106.27
98.93
91.74
84.46
76.91
69.12
61.34
54.00
47.48
41.91
37.14
32.70
28.05
22.85
17.10
11.22
5.84
1.47
-1.67
-3.83
-5.53
-7.40
-9.88
-13.26
-17.64
-22.79
-27.99
-31.87
-32.61
-28.59
-19.19
-5.37
10.38
24.97
35.80
41.70
43.15
41.63
38.79
35.69
32.69
29.66
26.51
23.51
21.30
20.56
21.56
23.91
26.51
28.02
27.40
24.47
19.96
15.19
11.35
8.95
7.68
6.76
5.56
3.98
2.45
1.58
1.64
2.41
3.25
3.54
2.96
1.59
-0.10
-1.57
-2.46
-2.72
-2.53
-2.24
-2.10
-2.23
-2.55
-2.86
-2.95
-2.68
-2.06
-1.18
-0.26
0.48
0.85
0.78
0.39
-0.07
-0.32
-0.17
0.44
1.34
2.36
3.38
4.38
5.42
6.56
7.79
9.03
10.20
11.25
12.18
12.96
13.48
13.55
13.00
11.76
9.89
7.69
5.35
3.06
0.89
-1.19
-3.26
-5.35
-7.31
-8.95
-10.08
-10.62
-10.61
-10.21
-9.63
-9.03
-8.57
-8.33
-8.41
-8.83
-9.58
-10.58
-11.66
-12.65
-13.37
-13.75
-13.69
-13.19
-12.27
-11.01
-9.48
-7.66
-5.38
-2.36
1.60
6.51
11.93
17.11
21.22
23.57
23.95
22.55
19.66
15.54
10.43
4.77
-0.53
-4.16
-4.91
-2.04
4.04
11.73
18.55
21.94
20.18
12.93
1.50
-11.64
-23.36
-30.96
-32.92
-29.31
-21.54
-11.73
-1.96
6.82
13.46
17.33
18.23
16.38
12.36
7.03
1.35
-3.93
-8.42
-12.27
-15.70
-18.87
-21.80
-24.33
-26.37
-27.92
-29.12
-30.11
-31.00
-31.69
-32.00
-31.91
-31.62
-31.50
-31.93
-33.10
-35.00
-37.37
-39.70
-41.51
-42.71
-43.68
-45.23
-48.10
-52.40
-57.28
-60.86
-60.58
-54.18
-40.68
-20.91
2.45
25.79
45.66
59.72
67.53
70.54
71.36
72.38
75.34
80.81
88.36
97.06
105.02
110.46
112.60
112.22
111.35
112.94
119.40
131.03
145.66
157.71
161.19
152.67
132.76
105.04
75.06
47.98
26.81
12.56
2.50
-6.97
-18.03
-31.15
-46.37
-63.39
-82.14
-102.90
-124.95
-149.24
-176.02
-203.82
-222.31
-223.13
-204.73
-174.04
-149.98
-136.31
-131.49
-131.90
-129.49
-120.21
-104.51
-85.76
-68.34
-55.36
-46.27
-40.31
-35.95
-31.45
-26.42
-22.25
-20.80
-23.05
-28.27
-33.34
-36.33
-36.31
-33.26
-28.26
-22.85
-17.90
-13.07
-6.96
2.67
16.30
33.10
51.55
69.70
85.71
98.06
105.57
107.24
102.86
92.60
77.95
61.99
48.63
41.48
42.64
52.23
68.69
89.81
113.25
137.06
159.45
178.46
192.00
198.37
197.01
188.81
175.78
159.74
141.30
119.19
90.99
54.32
7.91
-47.90
-111.20
-178.39
-244.28
-301.99
-344.07
-364.03
-358.70
-329.86
-283.99
-230.23
-177.08
-129.90
-89.82
-55.53
-24.66
4.29
31.49
56.32
78.31
97.58
114.66
130.27
143.64
154.11
161.23
164.90
165.45
163.19
158.27
150.60
140.60
126.92
108.67
85.06
55.89
22.36
-12.55
-44.38
-68.38
-80.20
-80.14
-70.29
-54.28
-35.76
-16.92
1.91
21.80
37.83
58.87
84.94
116.33
151.92
188.61
221.26
243.52
249.72
237.10
208.19
167.76
123.72
83.40
51.07
27.17
9.24
-6.19
-21.80
-37.82
-54.65
-71.44
-87.49
-102.68
-116.96
-130.01
-141.18
-149.72
-154.73
-156.88
-156.80
-155.27
-153.11
-150.42
-146.49
-140.13
-130.29
-116.30
-98.75
-78.86
-58.54
-40.54
-27.04
-18.60
-14.23
-12.05
-10.19
-7.72
-4.74
-2.32
-2.74
-7.17
-14.75
-23.21
-30.47
-35.73
-39.38
-42.56
-46.46
-53.20
-63.76
-77.31
-91.89
-105.42
-115.97
-121.56
-120.05
-101.94
-64.91
-16.03
32.38
70.05
91.61
95.58
83.54
59.91
31.17
3.22
-19.15
-33.13
-37.48
-33.28
-23.63
-11.95
-0.50
10.14
19.70
29.21
40.95
56.12
74.56
94.32
112.41
126.18
133.91
134.59
128.83
118.89
107.42
96.67
87.95
82.03
79.23
78.88
79.21
78.28
75.30
70.38
64.23
57.54
50.53
42.70
32.45
18.16
-0.35
-20.54
-38.53
-50.54
-54.30
-49.64
-38.40
-24.78
-13.08
-9.44
-16.25
-34.02
-60.87
-92.82
-124.56
-146.19
-149.51
-133.61
-105.66
-74.49
-45.96
-21.99
-2.70
11.96
22.10
27.83
30.37
32.21
36.24
43.10
51.06
56.75
57.39
52.63
43.94
33.47
23.14
14.10
6.42
-0.43
-6.67
-11.79
-15.01
-15.48
-14.20
-13.73
-17.07
-26.69
-43.25
-65.19
-89.26
-111.75
-130.30
-144.46
-154.76
-161.18
-162.12
-154.63
-135.97
-105.71
-67.01
-26.40
8.46
31.76
41.73
40.87
34.21
26.94
22.43
21.73
24.22
28.74
34.59
41.75
50.49
60.88
72.51
84.62
96.38
107.04
116.02
122.99
127.86
130.86
132.19
131.99
129.99
125.50
117.67
106.00
90.74
72.95
54.08
35.42
17.61
0.68
-15.53
-30.82
-44.34
-54.89
-61.61
-64.79
-66.26
-68.92
-75.80
-88.56
-106.41
-125.69
-140.57
-144.63
-133.00
-104.14
-60.80
-9.50
41.14
82.79
109.41
118.64
111.77
92.79
66.88
38.83
12.17
-11.21
-30.75
-46.70
-59.70
-70.61
-80.50
-90.65
-102.21
-115.74
-130.76
-145.93
-159.62
-170.63
-178.73
-184.47
-188.68
-191.70
-193.19
-192.10
-186.99
-176.30
-158.79
-133.93
-102.38
-66.22
-28.81
5.98
35.01
56.94
72.59
84.41
95.29
107.28
120.96
135.57
149.58
161.50
170.37
175.84
177.91
176.65
172.09
164.43
154.35
143.27
133.13
125.68
121.56
119.85
118.44
115.05
108.68
100.30
92.52
88.20
88.91
93.94
100.55
105.15
104.93
98.90
87.98
74.39
60.37
47.00
33.44
17.09
-5.29
-35.61
-72.65
-111.49
-144.50
-164.26
-166.57
-152.37
-126.91
-97.10
-68.49
-43.80
-23.65
-8.31
0.95
2.57
-3.55
-14.79
-26.68
-35.62
-41.63
-49.09
-64.34
-91.91
-131.10
-175.57
-215.74
-242.57
-250.48
-238.02
-206.74
-159.45
-99.77
-32.41
36.12
97.66
144.00
169.12
171.41
154.30
125.39
94.21
69.44
56.62
56.53
65.23
75.44
79.39
71.84
52.16
24.49
-4.11
-26.80
-40.00
-44.61
-45.24
-47.27
-54.04
-65.01
-76.18
-82.16
-78.90
-65.54
-44.36
-19.30
6.18
30.25
52.74
73.79
92.58
106.84
113.89
112.59
104.65
94.47
87.38
87.33
95.15
108.35
122.36
132.43
135.15
129.10
114.74
93.80
68.68
41.97
16.01
-7.36
-26.98
-42.31
-53.34
-60.40
-63.95
-64.68
-63.48
-61.59
-60.32
-60.81
-63.67
-68.94
-75.87
-83.03
-88.57
-90.65
-87.97
-80.25
-68.26
-53.61
-38.16
-23.55
-10.91
-0.96
5.97
9.84
10.97
10.08
8.16
6.19
4.91
4.69
5.72
8.13
11.99
17.22
23.31
29.36
34.35
37.51
38.70
38.42
37.45
36.47
35.63
34.58
32.73
29.63
25.30
20.23
15.09
10.36
6.12
2.14
-1.80
-5.57
-8.60
-10.04
-9.26
-6.20
-1.50
3.75
8.49
12.06
14.39
15.72
16.32
16.23
15.25
13.17
10.08
6.45
3.08
0.80
0.12
1.02
3.03
5.42
7.59
9.22
10.47
11.74
13.51
16.11
19.59
23.74
28.18
32.49
36.30
39.19
40.67
40.21
37.33
31.83
23.97
14.51
4.52
-4.91
-13.02
-19.40
-24.08
-27.35
-29.60
-31.15
-32.26
-33.05
-33.54
-33.59
-32.81
-30.83
-27.58
-23.46
-19.31
-16.13
-14.50
-14.37
-15.06
-15.34
-14.13
-11.02
-6.52
-1.74
2.03
4.20
5.07
5.78
8.38
14.55
24.58
37.15
49.95
60.52
67.57
70.83
70.72
68.97
67.56
68.20
72.12
80.03
91.20
103.74
113.77
116.52
109.94
94.81
74.22
52.14
32.21
15.97
3.99
-4.81
-11.92
-15.79
-13.52
-2.97
15.62
39.84
65.33
89.24
109.80
114.68
97.38
61.31
18.16
-20.98
-45.89
-62.12
-74.76
-86.01
-95.79
-102.55
-103.80
-99.07
-90.52
-81.34
-75.01
-72.30
-72.89
-75.99
-79.11
-79.83
-77.29
-72.41
-66.92
-62.96
-60.91
-60.61
-61.84
-63.26
-63.48
-61.89
-58.84
-55.12
-51.78
-49.00
-46.89
-45.70
-45.13
-44.66
-43.90
-42.77
-41.36
-40.11
-39.22
-39.02
-39.98
-42.12
-45.01
-47.97
-50.21
-50.98
-49.74
-46.11
-40.19
-32.83
-25.44
-19.50
-16.03
-14.85
-14.46
-12.36
-5.91
6.25
23.31
42.55
60.22
73.08
79.57
80.24
77.37
74.13
72.95
74.68
78.75
83.72
88.18
91.28
92.64
92.14
89.90
85.68
78.93
69.51
57.73
44.44
30.84
17.60
2.55
-14.62
-32.34
-48.44
-61.78
-72.84
-82.54
-90.99
-97.80
-102.35
-103.87
-102.23
-99.51
-96.29
-92.97
-89.55
-84.82
-77.18
-65.08
-47.30
-23.88
3.77
33.66
61.87
83.61
96.43
100.53
98.13
92.09
84.35
75.72
66.60
58.96
52.42
47.28
43.38
40.16
37.09
33.93
30.82
28.12
25.94
23.15
19.45
14.12
6.68
-2.71
-13.48
-25.08
-37.32
-50.43
-64.66
-79.07
-92.43
-102.88
-108.54
-108.43
-103.15
-94.57
-84.86
-75.51
-63.72
-48.42
-31.04
-14.99
-3.55
2.27
4.23
5.86
10.59
20.25
33.63
47.63
59.17
66.36
69.02
68.09
64.89
60.35
54.93
49.20
42.54
35.30
28.36
22.69
18.74
16.40
15.06
14.00
12.47
10.03
6.87
3.35
-0.06
-3.15
-5.82
-8.10
-10.00
-11.56
-12.18
-11.43
-9.35
-6.40
-3.45
-1.49
-1.37
-3.45
-7.33
-12.02
-16.34
-19.34
-20.42
-19.55
-17.29
-14.64
-12.67
-11.86
-11.89
-12.05
-11.66
-10.14
-7.42
-4.00
-0.72
1.60
3.04
4.37
6.15
8.56
12.04
17.48
26.77
40.41
55.48
66.48
68.33
59.94
42.75
20.60
-1.72
-20.65
-33.53
-40.78
-44.73
-44.67
-40.81
-33.59
-23.22
-10.16
3.99
16.67
24.24
24.32
16.83
3.17
-14.78
-35.21
-56.62
-79.20
-100.27
-116.30
-122.49
-114.27
-90.20
-53.37
-11.11
27.35
53.98
64.63
58.45
38.31
9.01
-24.34
-56.65
-83.49
-100.90
-105.69
-92.22
-61.65
-23.05
10.25
27.86
26.96
11.89
-9.40
-29.51
-44.81
-56.73
-67.46
-77.88
-86.56
-90.77
-88.07
-77.24
-58.35
-31.75
-0.25
32.71
63.71
90.03
110.11
123.94
133.37
141.69
152.23
166.18
182.58
198.47
210.37
215.03
210.07
194.42
168.56
134.37
94.78
54.00
16.71
-12.64
-31.41
-39.85
-40.92
-38.86
-38.02
-41.78
-51.51
-66.78
-85.01
-102.94
-117.93
-128.39
-133.04
-131.07
-122.12
-106.25
-84.34
-57.27
-26.63
4.76
31.20
47.81
53.83
52.78
52.53
55.01
59.42
63.91
66.91
65.87
61.24
54.99
49.27
45.36
42.96
41.52
40.30
38.43
35.34
31.43
27.37
23.57
19.86
15.40
9.97
3.95
-1.87
-6.55
-9.03
-9.21
-8.21
-8.13
-11.16
-18.12
-28.29
-39.93
-51.14
-60.51
-67.69
-73.26
-78.01
-82.44
-86.22
-88.59
-88.92
-87.11
-83.47
-78.58
-72.96
-66.92
-60.50
-53.62
-46.20
-38.40
-30.61
-23.26
-16.76
-11.25
-6.65
-2.60
1.25
5.14
9.07
12.84
16.17
18.89
21.02
22.73
24.31
25.97
27.79
29.71
31.53
33.12
34.38
35.35
36.09
36.69
37.20
37.61
37.91
38.08
38.11
37.91
37.33
36.12
34.09
31.14
27.33
22.89
18.13
13.37
8.78
4.48
0.41
-3.56
-7.65
-12.07
-16.94
-22.22
-27.70
-33.05
-37.86
-41.85
-44.87
-46.94
-48.20
-48.91
-49.34
-49.76
-50.37
-51.27
-52.46
-53.82
-55.26
-56.77
-58.44
-60.50
-63.15
-66.48
-70.29
-74.08
-77.08
-78.46
-77.62
-74.49
-69.61
-63.89
-58.21
-52.95
-47.89
-42.28
-35.30
-26.54
-16.16
-4.87
6.58
17.78
28.93
40.63
53.56
67.95
83.41
99.04
113.71
126.54
137.07
145.26
151.35
155.69
158.76
161.09
163.16
164.98
165.70
163.50
156.00
141.24
118.71
89.79
57.45
25.17
-4.17
-29.03
-49.07
-64.54
-75.62
-82.18
-84.13
-81.83
-76.36
-69.42
-62.70
-57.45
-54.05
-52.13
-50.95
-49.83
-48.40
-46.73
-45.15
-44.01
-43.49
-43.39
-43.20
-42.28
-40.00
-35.99
-30.25
-23.13
-15.22
-7.23
0.19
6.55
11.55
15.13
17.35
18.39
18.53
18.10
17.49
17.09
17.20
17.97
19.26
20.71
21.77
21.96
21.03
19.02
16.26
13.21
10.25
7.64
5.44
3.63
2.11
0.84
-0.24
-1.19
-2.06
-2.92
-3.73
-4.46
-5.02
-5.37
-5.53
-5.60
-5.66
-5.78
-5.90
-5.96
-5.87
-5.58
-5.08
-4.44
-3.74
-3.13
-2.77
-2.82
-3.33
-4.27
-5.49
-6.85
-8.23
-9.51
-10.68
-11.62
-12.22
-12.35
-11.91
-10.94
-9.55
-7.94
-6.23
-4.48
-2.67
-0.81
1.06
2.82
4.32
5.50
6.38
7.12
7.95
9.12
10.77
12.86
15.19
17.42
19.15
20.08
20.07
19.20
17.75
16.06
14.43
13.03
11.84
10.78
9.69
8.52
7.21
5.76
4.10
2.14
-0.15
-2.78
-5.55
-8.23
-10.58
-12.43
-13.80
-14.78
-15.48
-15.94
-16.11
-15.89
-15.22
-14.13
-12.74
-11.22
-9.72
-8.28
-6.89
-5.55
-4.29
-3.27
-2.70
-2.77
-3.51
-4.79
-6.33
-7.84
-9.13
-10.19
-11.16
-12.24
-13.60
-15.34
-17.49
-20.08
-23.12
-26.56
-30.31
-34.21
-38.13
-42.04
-46.00
-50.11
-54.44
-58.98
-63.69
-68.45
-72.96
-76.54
-78.22
-76.88
-71.74
-62.79
-50.95
-37.84
-25.09
-13.74
-3.87
5.18
14.25
23.77
33.47
42.58
50.19
55.70
58.93
60.04
59.30
56.90
53.07
48.25
43.23
39.10
36.96
37.55
40.97
46.77
54.24
62.78
71.99
81.63
91.18
99.71
105.95
108.76
107.59
102.68
94.98
85.87
76.90
69.58
65.21
64.60
67.69
73.33
79.37
83.43
83.65
79.50
71.79
62.20
52.49
43.90
37.01
31.95
28.76
27.46
27.97
29.90
32.55
35.03
36.59
36.86
35.99
34.46
32.79
31.31
30.03
28.58
26.43
23.06
18.15
11.64
3.78
-5.01
-14.24
-23.50
-32.48
-41.00
-48.93
-56.03
-62.01
-66.49
-69.17
-69.91
-68.85
-66.45
-63.36
-60.31
-57.90
-56.54
-56.37
-57.40
-59.59
-62.95
-67.56
-73.39
-80.28
-87.82
-95.51
-102.82
-109.32
-114.63
-118.33
-119.83
-118.47
-113.68
-105.29
-93.69
-79.88
-65.19
-50.96
-38.13
-27.11
-17.77
-9.69
-2.42
4.31
10.52
16.06
20.76
24.47
27.10
28.58
28.80
27.67
25.26
21.77
17.59
13.14
8.75
4.54
0.57
-3.14
-6.49
-9.39
-11.87
-14.12
-16.46
-19.20
-22.47
-26.23
-30.29
-34.45
-38.60
-42.58
-46.10
-48.67
-49.60
-48.28
-44.31
-37.70
-28.85
-18.41
-7.09
4.49
15.88
26.81
37.06
46.55
55.22
63.18
70.60
77.70
84.58
91.01
96.54
100.63
102.97
103.65
103.23
102.46
101.90
101.64
101.31
100.32
98.20
94.90
90.68
85.98
81.10
76.07
70.83
65.33
59.67
54.06
48.64
43.42
38.12
32.40
25.91
18.59
10.65
2.56
-5.10
-11.86
-17.48
-22.01
-25.70
-28.89
-31.83
-34.61
-37.22
-39.70
-42.26
-45.24
-49.00
-53.70
-59.18
-64.95
-70.42
-75.06
-78.63
-81.13
-82.68
-83.39
-83.21
-81.97
-79.44
-75.48
-70.05
-63.24
-55.27
-46.37
-36.83
-26.88
-16.80
-6.75
3.11
12.63
21.63
29.80
36.82
42.37
46.36
48.80
49.92
49.93
49.09
47.59
45.50
42.73
38.97
33.79
26.86
18.21
8.45
-1.34
-9.88
-16.20
-19.90
-21.29
-21.13
-20.26
-19.33
-18.61
-18.20
-18.08
-18.35
-19.11
-20.39
-22.04
-23.68
-24.85
-25.18
-24.54
-23.11
-21.27
-19.35
-17.58
-15.91
-14.15
-12.14
-9.81
-7.23
-4.49
-1.72
0.99
3.49
5.53
6.77
6.92
5.88
3.84
1.27
-1.29
-3.34
-4.62
-5.15
-5.14
-4.81
-4.27
-3.53
-2.50
-1.12
0.56
2.36
3.98
5.22
5.96
6.32
6.48
6.63
6.83
6.95
6.83
6.33
5.47
4.45
3.50
2.79
2.32
1.93
1.43
0.71
-0.20
-1.15
-2.04
-2.85
-3.68
-4.64
-5.81
-7.07
-8.22
-9.10
-9.69
-10.16
-10.78
-11.76
-13.13
-14.77
-16.39
-17.70
-18.54
-18.85
-18.68
-18.17
-17.48
-16.72
-16.00
-15.32
-14.62
-13.87
-13.03
-12.23
-11.69
-11.67
-12.35
-13.66
-15.29
-16.79
-17.76
-18.03
-17.81
-17.59
-18.04
-19.72
-22.85
-27.14
-31.72
-35.19
-35.96
-32.71
-24.80
-12.57
2.71
19.28
35.41
49.95
62.53
73.39
82.96
91.47
98.71
104.06
106.85
106.69
103.69
98.59
92.57
86.89
82.54
79.89
78.66
78.13
77.50
76.24
74.28
71.93
69.54
67.34
65.21
62.83
59.94
56.53
52.96
49.74
47.25
45.33
43.06
38.75
30.40
16.30
-4.30
-30.75
-61.08
-92.43
-121.80
-146.76
-165.79
-178.39
-184.71
-185.32
-180.93
-172.36
-160.47
-146.27
-130.81
-115.02
-99.64
-85.12
-71.64
-59.18
-47.65
-37.01
-27.34
-18.84
-11.65
-5.73
-0.75
3.88
8.81
14.51
21.04
28.00
34.65
40.18
43.97
45.72
45.50
43.66
40.61
36.78
32.58
28.42
24.75
22.04
20.67
20.75
22.05
23.95
25.69
26.54
26.11
24.37
21.61
18.22
14.53
10.69
6.79
2.91
-0.76
-4.00
-6.48
-7.99
-8.41
-7.81
-6.41
-4.52
-2.48
-0.57
1.07
2.42
3.57
4.54
5.31
5.74
5.70
5.16
4.23
3.09
1.91
0.73
-0.52
-1.91
-3.43
-4.91
-6.06
-6.67
-6.62
-6.04
-5.18
-4.30
-3.61
-3.18
-2.95
-2.79
-2.59
-2.33
-2.10
-2.08
-2.42
-3.19
-4.31
-5.57
-6.75
-7.71
-8.44
-9.05
-9.71
-10.53
-11.52
-12.62
-13.73
-14.70
-15.45
-15.94
-16.11
-15.83
-15.00
-13.55
-11.46
-8.75
-5.50
-1.94
1.66
4.93
7.57
9.48
10.74
11.57
12.23
12.87
13.43
13.73
13.51
12.76
11.62
10.29
8.94
7.82
7.15
7.05
7.48
8.10
8.77
9.39
9.85
10.17
10.82
12.27
14.78
18.13
21.39
24.12
26.11
27.23
27.54
27.76
28.58
30.34
32.82
34.79
35.87
35.98
35.00
32.99
30.80
29.44
29.82
32.40
36.56
42.81
51.66
63.04
70.99
70.25
58.73
39.24
22.17
9.51
1.19
-3.33
-6.34
-8.76
-10.44
-11.06
-10.64
-9.86
-10.62
-13.56
-18.61
-25.35
-32.94
-40.00
-45.38
-48.56
-49.84
-50.61
-51.39
-52.23
-52.99
-53.34
-52.72
-50.82
-47.68
-43.75
-40.03
-36.74
-33.77
-30.90
-27.97
-24.88
-21.71
-18.64
-15.82
-13.45
-11.31
-9.11
-6.79
-4.49
-2.44
-0.79
0.51
1.70
2.99
4.54
6.29
7.97
9.36
10.46
11.48
12.61
13.78
14.47
13.91
11.52
7.24
1.74
-3.82
-8.49
-11.95
-14.69
-17.48
-20.76
-24.18
-26.78
-27.56
-26.11
-23.03
-19.64
-17.29
-16.48
-16.58
-16.23
-14.19
-10.01
-4.21
1.78
6.14
7.47
5.39
0.73
-4.82
-9.33
-11.17
-9.38
-3.95
4.22
13.65
22.80
30.24
34.77
35.41
30.87
21.95
12.59
8.09
11.18
20.56
31.94
40.54
43.04
38.82
30.60
20.82
11.56
4.02
-1.26
-4.15
-4.58
-2.70
1.73
7.46
12.54
15.09
13.78
8.61
0.78
-7.17
-12.34
-12.65
-7.80
0.55
9.48
15.74
17.49
14.00
6.29
-3.49
-12.76
-19.12
-20.63
-16.05
-5.41
9.89
27.13
43.22
55.35
61.86
62.37
57.64
49.00
37.74
24.97
11.49
-1.88
-14.35
-25.26
-34.07
-40.36
-43.70
-43.86
-40.96
-35.73
-29.40
-23.39
-18.88
-16.44
-15.94
-16.86
-18.67
-21.04
-23.84
-26.82
-29.47
-31.24
-31.73
-31.00
-29.52
-27.98
-26.89
-26.46
-26.52
-26.74
-26.86
-26.80
-26.65
-26.57
-26.71
-27.08
-27.61
-28.15
-28.53
-28.60
-28.29
-27.63
-26.78
-25.95
-25.30
-24.83
-24.40
-23.67
-22.29
-19.92
-16.39
-11.66
-5.98
0.25
6.48
12.17
16.92
20.59
23.35
25.56
27.69
30.14
33.09
36.44
39.82
42.70
44.55
45.04
44.09
41.96
39.12
36.03
33.03
30.20
27.43
24.58
21.64
18.79
16.30
14.46
13.31
12.71
12.34
11.95
11.47
11.09
11.04
11.49
12.35
13.39
14.36
15.09
15.66
16.24
16.99
17.96
19.02
20.01
20.77
21.28
21.61
21.88
22.10
22.12
21.64
20.25
17.71
14.01
9.48
4.66
0.04
-4.14
-7.94
-11.62
-15.35
-19.10
-22.54
-25.23
-26.82
-27.19
-26.46
-24.91
-22.77
-20.20
-17.29
-14.15
-10.97
-8.09
-5.90
-4.70
-4.55
-5.23
-6.34
-7.41
-8.17
-8.55
-8.70
-8.83
-9.06
-9.39
-9.71
-9.86
-9.79
-9.53
-9.17
-8.81
-8.45
-8.08
-7.65
-7.09
-6.43
-5.62
-4.62
-3.35
-1.74
0.21
2.41
4.66
6.77
8.47
9.61
10.23
10.53
10.78
11.18
11.78
12.40
12.81
12.67
11.89
10.62
9.25
8.05
7.08
6.30
5.55
4.87
4.21
3.77
3.81
4.59
5.81
6.85
7.04
5.85
3.04
-1.83
-8.83
-17.51
-26.78
-35.90
-44.44
-52.22
-59.29
-65.95
-73.30
-81.98
-91.78
-101.22
-109.31
-115.27
-118.51
-118.51
-115.07
-109.27
-102.17
-94.40
-85.48
-75.76
-65.70
-55.79
-46.49
-32.91
-14.15
6.91
21.85
31.12
37.69
45.60
56.45
70.01
84.55
96.82
104.35
106.53
105.08
101.50
96.98
92.13
87.26
82.56
77.55
72.27
67.30
63.83
61.70
59.89
57.00
52.00
44.65
35.14
24.56
14.59
7.16
3.13
2.53
4.79
9.21
15.05
21.35
27.15
31.50
33.72
33.11
29.46
23.23
15.64
8.34
2.84
0.28
1.14
5.28
11.84
19.57
27.02
32.92
36.45
37.37
36.03
33.24
29.92
26.83
24.46
22.92
22.19
22.14
22.57
23.16
23.27
22.03
18.56
12.32
3.45
-7.16
-18.12
-27.98
-35.70
-40.90
-43.74
-44.73
-44.29
-42.80
-40.50
-37.80
-35.25
-33.51
-33.11
-34.25
-36.71
-39.91
-43.11
-45.56
-46.79
-46.62
-45.22
-43.06
-40.61
-38.27
-36.15
-34.09
-31.81
-29.16
-26.28
-23.69
-22.06
-21.95
-23.52
-26.41
-29.81
-32.73
-34.25
-33.80
-31.22
-26.80
-21.19
-15.33
-10.21
-6.68
-5.22
-5.82
-7.99
-10.82
-13.30
-14.55
-14.11
-11.98
-8.60
-4.71
-1.06
1.72
3.39
3.94
3.68
3.03
2.52
2.68
3.91
6.28
9.34
12.14
13.46
12.44
9.03
4.29
0.06
-1.74
0.13
5.71
13.89
22.94
31.17
37.45
41.38
43.14
43.22
42.16
40.45
38.58
37.08
36.54
37.48
40.10
44.20
49.04
53.53
56.51
57.17
55.29
51.29
46.13
40.82
36.19
32.52
29.63
27.01
24.06
20.35
15.71
10.34
4.64
-0.80
-5.46
-8.99
-11.34
-12.71
-13.61
-14.67
-16.46
-19.30
-23.00
-26.94
-30.24
-32.10
-32.19
-30.78
-28.63
-26.64
-25.50
-25.44
-26.26
-27.50
-28.71
-29.60
-30.03
-29.95
-29.27
-27.86
-25.58
-22.40
-18.47
-14.10
-9.74
-5.76
-2.38
0.43
2.92
5.42
8.14
11.18
14.41
17.60
20.48
22.75
24.16
24.48
23.61
21.62
18.79
15.52
12.21
9.14
6.38
3.90
1.62
-0.47
-2.37
-4.11
-5.88
-8.02
-10.87
-14.61
-19.09
-23.88
-28.40
-32.19
-35.05
-37.09
-38.59
-39.83
-40.96
-41.93
-42.57
-42.70
-42.28
-41.41
-40.25
-38.95
-37.58
-36.13
-34.61
-33.12
-31.88
-31.18
-31.30
-32.36
-34.20
-36.42
-38.48
-39.83
-40.03
-38.89
-36.47
-33.05
-29.02
-24.74
-20.41
-16.10
-11.70
-7.22
-2.79
1.31
4.66
6.99
8.28
8.91
9.51
10.74
13.10
16.69
21.30
26.43
31.49
35.92
39.34
41.55
42.57
42.61
41.97
40.93
39.63
38.07
36.08
33.47
30.05
25.73
20.47
14.29
7.28
-0.41
-8.47
-16.52
-24.12
-30.93
-36.88
-42.09
-46.86
-51.37
-55.59
-59.20
-61.78
-63.00
-62.79
-61.37
-59.09
-56.30
-53.13
-49.55
-45.40
-40.54
-34.91
-28.51
-21.39
-13.57
-5.06
4.11
13.82
23.83
33.74
43.14
51.65
59.04
65.28
70.44
74.58
77.52
78.87
78.12
74.92
69.40
62.13
54.06
46.18
39.26
33.65
29.40
26.39
24.53
23.79
24.13
25.39
27.17
28.89
29.96
30.01
29.02
27.30
25.39
23.70
22.44
21.39
20.16
18.43
16.16
13.69
11.57
10.33
10.29
11.56
14.07
17.71
22.40
28.00
34.27
40.81
47.15
52.81
57.40
60.64
62.44
62.91
62.43
61.52
60.69
60.24
60.11
59.92
59.14
57.25
53.91
48.86
41.93
33.01
22.13
9.62
-3.82
-17.24
-29.71
-40.53
-49.44
-56.54
-62.15
-66.63
-70.22
-73.00
-74.86
-75.60
-74.93
-72.67
-68.85
-63.79
-58.02
-52.14
-46.58
-41.46
-36.64
-31.85
-26.91
-21.84
-16.92
-12.52
-8.97
-6.44
-4.85
-3.94
-3.28
-2.45
-1.12
0.79
3.04
5.12
6.44
6.52
5.17
2.51
-1.10
-5.25
-9.55
-13.63
-17.19
-19.90
-21.55
-22.02
-21.40
-19.96
-18.01
-15.83
-13.48
-10.94
-8.14
-5.11
-2.03
0.82
3.16
4.86
5.92
6.52
6.83
6.94
6.79
6.19
5.01
3.26
1.23
-0.70
-2.21
-3.25
-4.11
-5.32
-7.35
-10.39
-14.20
-18.18
-21.61
-23.87
-24.72
-24.29
-22.98
-21.37
-19.85
-18.54
-17.17
-15.13
-11.69
-6.28
1.35
11.06
22.36
34.56
46.73
57.70
66.26
71.40
72.78
70.94
67.15
62.89
59.12
55.80
52.03
46.54
38.48
27.85
15.45
2.40
-10.41
-22.58
-34.06
-44.81
-54.53
-62.71
-68.86
-72.88
-75.17
-76.53
-77.72
-79.17
-80.80
-82.12
-82.62
-82.02
-80.46
-78.40
-76.37
-74.66
-73.02
-70.69
-66.40
-58.84
-47.17
-31.57
-13.61
3.91
17.54
24.29
22.61
13.17
-1.18
-16.02
-26.62
-29.22
-22.19
-6.41
15.16
38.51
59.91
76.87
88.54
95.37
98.39
98.53
96.34
92.10
86.12
79.03
71.67
64.87
59.14
54.52
50.70
47.32
44.22
41.52
39.62
38.90
39.49
41.03
42.84
44.13
44.45
43.93
43.14
42.78
43.11
43.71
43.63
41.86
37.94
32.25
25.90
20.17
15.93
13.30
11.58
9.78
6.93
2.49
-3.67
-11.36
-20.25
-29.94
-39.94
-49.59
-58.08
-64.74
-69.21
-71.67
-72.74
-73.18
-73.48
-73.63
-73.11
-71.27
-67.70
-62.46
-56.05
-49.16
-42.31
-35.88
-30.09
-25.26
-21.75
-19.85
-19.46
-20.04
-20.77
-20.96
-20.34
-19.19
-18.11
-17.57
-17.64
-17.97
-17.99
-17.28
-15.75
-13.64
-11.34
-9.16
-7.26
-5.62
-4.21
-3.00
-1.98
-1.21
-0.72
-0.56
-0.73
-1.23
-1.93
-2.61
-2.94
-2.62
-1.48
0.45
2.89
5.49
7.96
10.29
12.76
15.78
19.72
24.70
30.49
36.66
42.73
48.31
53.17
57.21
60.43
62.83
64.45
65.34
65.56
65.11
63.96
62.06
59.37
55.92
51.81
47.10
41.83
36.02
29.71
23.12
16.63
10.65
5.49
1.21
-2.43
-5.71
-8.83
-11.72
-14.03
-15.41
-15.80
-15.54
-15.37
-16.10
-18.27
-21.91
-26.51
-31.25
-35.28
-37.98
-39.04
-38.48
-36.46
-33.19
-28.88
-23.79
-18.27
-12.83
-7.96
-3.92
-0.62
2.44
5.79
9.64
13.64
16.92
18.50
17.78
14.84
10.31
5.02
-0.46
-6.02
-11.91
-18.43
-25.64
-33.22
-40.65
-47.36
-52.97
-57.26
-60.17
-61.69
-61.83
-60.55
-57.85
-53.83
-48.74
-43.09
-37.46
-32.41
-28.23
-24.77
-21.56
-17.90
-13.15
-6.97
0.59
9.22
18.42
27.69
36.57
44.71
51.80
57.55
61.67
63.92
64.14
62.33
58.73
53.76
47.99
41.93
35.95
30.16
24.55
19.01
13.47
8.00
2.77
-1.91
-5.69
-8.27
-9.51
-9.51
-8.64
-7.41
-6.30
-5.59
-5.33
-5.40
-5.71
-6.23
-7.06
-8.29
-9.88
-11.64
-13.23
-14.23
-14.31
-13.31
-11.27
-8.42
-5.15
-1.92
0.91
3.08
4.51
5.23
5.30
4.75
3.55
1.72
-0.60
-3.14
-5.57
-7.59
-9.07
-10.10
-10.82
-11.36
-11.68
-11.54
-10.65
-8.77
-5.95
-2.48
1.06
4.04
5.90
6.35
5.46
3.55
1.12
-1.35
-3.49
-5.15
-6.32
-7.04
-7.36
-7.33
-6.97
-6.34
-5.55
-4.72
-3.93
-3.22
-2.56
-1.88
-1.16
-0.44
0.17
0.56
0.59
0.21
-0.56
-1.59
-2.69
-3.57
-3.92
-3.46
-2.00
0.44
3.59
6.98
10.00
12.09
12.91
12.40
10.86
8.78
6.68
4.88
3.41
1.91
-0.14
-3.21
-7.42
-12.44
-17.59
-22.13
-25.59
-27.96
-29.58
-30.93
-32.43
-34.31
-36.66
-39.36
-42.07
-44.15
-44.67
-42.74
-37.83
-30.13
-20.50
-10.03
0.45
10.81
21.45
32.86
44.93
56.81
67.05
74.38
78.41
79.86
80.22
80.97
82.86
85.57
88.03
89.02
87.77
84.23
78.84
72.28
65.20
58.22
52.04
47.39
44.74
43.93
44.03
43.60
41.38
36.93
30.85
24.34
18.58
13.97
10.03
5.75
0.23
-6.82
-14.99
-23.52
-31.79
-39.56
-46.85
-53.68
-59.81
-64.76
-67.97
-69.08
-68.14
-65.53
-61.88
-57.77
-53.68
-49.90
-46.62
-43.85
-41.56
-39.67
-38.08
-36.72
-35.55
-34.53
-33.56
-32.36
-30.45
-27.20
-21.95
-14.50
-5.33
4.23
12.31
17.22
18.09
15.35
10.47
5.35
1.42
-0.78
-1.49
-1.28
-0.62
0.25
1.16
1.72
1.31
-0.71
-4.65
-10.08
-16.13
-21.86
-26.58
-29.90
-31.61
-31.53
-29.72
-26.53
-22.31
-17.63
-13.05
-8.99
-5.54
-2.62
0.08
2.65
5.05
7.92
12.08
18.18
26.30
35.80
45.35
53.76
59.97
63.45
65.07
66.19
67.95
70.80
74.61
78.77
82.92
86.34
83.59
71.11
49.09
22.01
-3.93
-22.46
-32.58
-34.49
-29.61
-20.61
-10.29
-2.06
0.83
-3.70
-15.62
-32.68
-50.55
-64.77
-72.33
-72.05
-65.20
-54.93
-45.02
-38.34
-36.11
-37.40
-40.36
-43.26
-44.77
-44.38
-42.18
-38.59
-34.08
-29.17
-24.30
-20.06
-17.27
-16.43
-17.50
-19.75
-21.96
-22.95
-21.95
-18.77
-13.77
-7.96
-2.61
1.33
3.75
5.31
7.14
10.27
15.22
22.04
29.90
37.40
43.25
46.97
48.75
49.25
49.09
48.77
49.10
50.55
52.80
54.83
55.21
52.09
43.93
29.94
8.23
-18.57
-44.10
-62.25
-70.54
-70.08
-63.39
-52.19
-37.36
-19.65
-0.44
17.32
29.54
33.21
29.52
20.80
11.10
4.42
3.19
7.78
16.44
25.85
32.85
35.68
33.94
28.61
21.20
13.63
6.43
0.93
-1.98
-1.92
0.90
5.43
10.15
12.19
9.67
3.35
-2.91
-5.31
-2.42
4.59
13.06
20.51
25.54
29.18
31.86
33.60
33.90
32.54
29.92
26.64
22.73
16.11
5.19
-10.01
-27.04
-42.54
-54.44
-62.92
-69.82
-76.44
-81.68
-81.54
-71.61
-50.19
-20.53
9.62
31.40
38.84
31.34
13.36
-7.79
-25.48
-36.11
-39.68
-38.94
-37.33
-37.47
-40.16
-44.40
-47.84
-48.03
-44.08
-35.66
-24.05
-11.47
-0.10
8.66
14.66
18.58
21.14
22.50
22.34
20.14
16.05
11.23
7.53
6.73
9.65
15.71
23.17
29.98
34.43
35.94
35.28
34.19
34.57
37.44
42.27
47.01
48.88
45.53
36.42
23.33
9.27
-1.61
-5.99
-3.02
5.05
13.62
17.34
12.36
-2.18
-23.66
-46.74
-65.34
-74.82
-73.52
-63.28
-48.49
-34.17
-23.89
-18.41
-15.58
-12.01
-4.98
6.26
20.55
35.80
50.41
63.83
76.21
87.34
95.68
98.60
93.69
80.31
60.24
37.23
15.37
-2.52
-15.81
-25.86
-35.02
-45.22
-57.19
-70.31
-83.00
-93.52
-100.73
-104.43
-105.29
-104.29
-102.20
-99.16
-94.66
-87.94
-78.59
-66.95
-54.08
-41.41
-30.15
-21.05
-14.31
-9.75
-7.02
-5.73
-5.50
-5.87
-6.38
-6.50
-5.70
-3.53
0.35
5.89
12.55
19.28
24.84
28.20
29.04
28.01
26.47
25.99
27.62
31.49
36.72
41.94
45.84
47.66
47.36
45.41
42.52
39.32
36.31
33.84
32.21
31.60
31.99
33.11
34.51
35.80
36.69
37.12
37.08
36.55
35.42
33.69
31.57
29.50
28.02
27.46
27.74
28.43
28.87
28.61
27.54
25.95
24.29
22.85
21.58
20.07
17.70
13.85
8.14
0.53
-8.63
-18.55
-28.10
-36.11
-41.55
-43.85
-43.11
-40.05
-35.83
-31.81
-29.23
-29.07
-31.94
-37.92
-46.51
-56.65
-66.82
-75.32
-80.54
-81.27
-76.87
-67.55
-54.39
-39.41
-25.13
-13.98
-7.42
-5.34
-6.02
-6.82
-5.25
-0.16
7.86
16.72
24.07
28.17
28.55
25.88
21.24
15.49
8.70
0.29
-10.84
-26.02
-47.06
-76.20
-115.46
-165.10
-221.98
-279.01
-326.41
-354.65
-357.57
-334.72
-291.19
-235.04
-173.76
-111.77
-50.22
11.27
72.25
130.89
183.65
226.78
258.11
278.07
289.25
294.61
295.83
292.69
285.00
272.59
256.02
236.83
217.57
200.97
188.56
179.93
173.01
167.44
163.11
159.68
155.97
150.46
142.10
130.67
117.16
103.80
96.24
98.78
112.06
132.21
153.64
171.98
185.24
193.37
180.49
138.15
69.48
-11.36
-89.70
-157.20
-211.39
-252.04
-278.56
-289.36
-279.85
-250.56
-205.34
-153.73
-107.40
-75.70
-62.14
-63.55
-72.22
-77.29
-72.11
-56.17
-35.88
-18.72
-10.50
-13.76
-27.91
-53.06
-84.14
-113.93
-135.54
-145.30
-142.36
-127.67
-103.37
-72.57
-40.20
-8.81
17.19
33.52
37.85
31.43
18.59
5.29
-2.35
-1.72
8.14
24.74
44.01
62.05
76.31
85.35
84.39
71.78
50.69
28.44
11.44
2.63
1.19
4.13
7.80
9.70
9.75
9.13
9.05
9.39
9.16
7.40
4.39
0.13
-4.59
-8.37
-10.31
-10.51
-10.01
-9.78
-10.19
-10.41
-9.59
-7.37
-4.20
-1.43
-0.91
-4.11
-11.18
-20.76
-30.58
-38.56
-43.32
-44.89
-43.45
-39.86
-35.29
-30.73
-26.67
-23.10
-19.92
-17.00
-14.29
-11.79
-9.73
-8.30
-7.50
-7.11
-6.77
-6.27
-5.63
-5.09
-4.98
-5.72
-7.20
-8.91
-10.01
-9.52
-6.85
-1.95
4.73
12.71
21.67
30.88
38.85
43.79
44.68
42.05
37.95
35.10
35.84
40.75
48.35
55.42
58.54
55.68
47.02
34.70
21.76
11.21
3.87
-0.19
-1.56
-1.08
0.51
2.66
4.98
7.16
9.04
10.61
12.19
14.21
17.05
20.80
24.98
28.89
30.88
29.34
23.41
13.45
0.94
-12.01
-23.29
-31.34
-35.51
-36.10
-34.07
-30.67
-27.09
-24.31
-23.03
-23.60
-26.02
-29.93
-34.62
-39.16
-42.66
-44.53
-44.72
-43.61
-41.88
-40.07
-38.30
-36.25
-33.46
-29.64
-24.93
-19.88
-15.21
-11.65
-9.61
-8.90
-8.77
-8.40
-7.17
-4.86
-1.64
1.99
5.11
6.87
6.98
6.05
4.70
3.60
3.21
4.07
6.59
10.57
15.14
19.45
23.24
25.99
27.37
27.54
27.47
28.24
30.08
31.86
32.61
32.61
32.01
30.92
29.04
26.28
25.64
28.89
34.71
37.41
37.09
34.69
31.81
27.08
18.21
2.61
-21.22
-53.71
-91.64
-128.35
-157.60
-175.64
-182.42
-180.18
-173.03
-154.65
-124.84
-88.70
-52.87
-22.05
2.69
19.37
31.44
41.20
49.80
56.15
59.40
60.81
61.28
61.40
61.39
62.07
63.92
67.41
71.26
73.40
72.48
67.90
60.23
50.98
42.80
37.86
37.55
40.93
45.23
48.25
48.76
46.26
40.06
29.22
12.39
-10.94
-40.52
-75.59
-113.09
-148.61
-177.92
-198.74
-211.24
-217.74
-221.14
-215.12
-196.95
-167.68
-131.59
-93.67
-58.63
-30.83
-14.56
-8.39
-8.83
-11.88
-12.26
-5.04
12.74
40.82
75.49
111.26
143.40
168.95
186.57
197.21
202.79
204.94
204.29
200.84
195.02
188.12
181.20
173.66
163.50
147.47
122.27
86.16
40.39
-10.34
-58.77
-97.53
-121.54
-129.06
-121.76
-103.74
-79.97
-54.84
-31.17
-10.21
7.76
22.62
34.25
42.51
47.55
50.07
51.16
51.74
51.82
50.33
45.72
37.01
24.81
11.39
-0.27
-7.91
-11.08
-11.17
-10.47
-10.90
-13.34
-17.63
-23.13
-29.16
-35.13
-40.48
-44.71
-47.65
-49.59
-51.12
-52.74
-54.49
-56.05
-57.16
-58.06
-59.49
-62.24
-66.46
-71.34
-75.34
-76.84
-74.64
-68.25
-57.88
-44.39
-29.37
-15.09
-4.07
1.66
1.37
-4.06
-12.55
-21.67
-29.56
-35.32
-38.98
-41.03
-42.08
-42.59
-42.85
-42.96
-42.90
-42.49
-41.56
-40.15
-38.58
-37.38
-37.15
-38.38
-41.40
-46.31
-52.89
-60.39
-67.49
-72.40
-73.33
-69.09
-59.50
-45.36
-28.13
-9.39
9.63
28.16
45.72
61.91
76.24
88.22
97.59
104.59
109.99
114.96
120.63
127.62
135.75
143.97
150.72
154.53
154.44
150.23
142.11
130.43
115.43
97.54
77.83
58.33
41.64
29.93
23.85
22.08
21.82
20.08
15.05
6.85
-2.75
-11.44
-17.46
-20.39
-21.11
-21.27
-22.81
-27.44
-36.51
-50.67
-69.65
-91.98
-115.13
-136.03
-151.94
-161.14
-163.47
-160.08
-152.96
-144.12
-135.06
-126.39
-118.02
-109.39
-99.96
-89.44
-77.81
-65.32
-52.27
-39.00
-25.90
-13.39
-1.98
7.93
16.21
23.09
29.14
34.95
40.83
46.65
51.81
55.52
57.05
56.13
53.05
48.61
43.82
39.60
36.49
34.51
33.27
32.25
31.04
29.49
27.70
25.86
24.05
22.26
20.42
18.57
16.89
15.68
15.21
15.46
16.16
16.85
17.12
16.74
15.82
14.69
13.77
13.49
14.21
16.19
19.59
24.31
29.87
35.50
40.34
43.77
45.73
46.66
47.20
47.79
48.41
48.66
48.08
46.55
44.44
42.49
41.35
41.35
42.25
43.49
44.52
45.01
44.91
44.28
43.02
40.79
37.12
31.69
24.59
16.40
7.93
-0.01
-6.98
-12.93
-18.05
-22.51
-26.26
-29.10
-30.88
-31.76
-32.20
-32.89
-34.37
-36.75
-39.63
-42.17
-43.52
-43.12
-40.97
-37.45
-33.17
-28.64
-24.15
-19.82
-15.75
-12.09
-8.95
-6.34
-4.05
-1.67
1.21
4.85
9.13
13.63
17.83
21.29
23.87
25.69
27.05
28.24
29.36
30.24
30.52
29.78
27.69
24.23
19.59
14.21
8.66
3.61
-0.32
-2.62
-3.03
-1.65
0.96
3.95
6.38
7.53
7.11
5.31
2.62
-0.35
-3.09
-5.27
-6.70
-7.23
-6.70
-5.01
-2.23
1.33
5.16
8.63
11.18
12.52
12.69
12.06
11.19
10.68
10.97
12.17
13.94
15.60
16.27
15.17
11.89
6.53
-0.36
-7.97
-15.53
-22.57
-28.95
-34.80
-40.23
-45.05
-48.67
-50.24
-49.04
-44.91
-38.55
-31.48
-25.60
-22.47
-22.73
-25.80
-30.16
-33.93
-35.57
-34.30
-30.06
-23.28
-14.43
-3.89
8.02
20.82
33.73
45.81
56.20
64.36
70.24
74.19
76.76
78.49
79.95
81.66
84.10
87.47
91.28
94.26
94.51
90.19
80.25
64.97
45.81
24.86
4.03
-15.34
-32.54
-47.17
-58.96
-67.76
-73.88
-78.20
-82.02
-86.53
-92.41
-99.63
-107.74
-116.14
-124.26
-131.40
-136.35
-137.39
-132.59
-120.40
-100.24
-72.90
-40.56
-6.61
24.80
49.53
64.42
68.28
62.28
49.57
34.18
19.59
7.89
-0.37
-5.52
-8.02
-8.13
-6.08
-2.49
1.35
3.79
3.56
0.35
-5.00
-10.96
-16.01
-19.24
-20.64
-20.74
-20.20
-19.42
-18.46
-17.22
-15.68
-14.09
-12.78
-12.04
-11.88
-12.00
-11.93
-11.22
-9.64
-7.28
-4.38
-1.31
1.62
4.25
6.58
8.68
10.65
12.58
14.54
16.52
18.45
20.17
21.43
22.01
21.93
21.54
21.47
22.40
24.68
28.17
32.20
36.07
39.36
42.25
45.28
49.00
53.57
58.65
63.57
67.76
70.91
72.93
73.81
73.54
72.18
70.08
67.98
66.73
66.84
68.04
69.29
69.23
66.98
62.54
56.81
51.03
46.07
42.04
38.51
34.92
31.12
27.48
24.53
22.49
21.04
19.39
16.74
12.65
7.21
0.78
-6.38
-14.35
-23.41
-33.64
-44.59
-55.20
-64.10
-70.11
-72.77
-72.42
-69.99
-66.61
-63.20
-60.29
-58.03
-56.48
-55.74
-56.22
-58.59
-63.64
-71.91
-83.28
-96.65
-110.12
-121.42
-128.61
-130.70
-127.81
-121.05
-111.99
-102.12
-92.47
-83.40
-74.56
-65.08
-53.86
-39.98
-23.14
-3.87
16.53
36.40
54.27
69.23
80.99
89.66
95.54
98.93
100.20
99.85
98.56
96.99
95.57
94.33
92.98
91.05
88.21
84.45
79.99
75.16
70.25
65.37
60.56
55.84
51.36
47.45
44.51
42.93
42.92
44.36
46.79
49.47
51.55
52.35
51.59
49.54
46.96
44.86
44.12
45.23
48.14
52.34
57.09
61.64
65.40
67.93
69.00
68.59
66.92
64.38
61.33
57.71
52.96
46.12
36.39
23.72
9.05
-5.87
-19.22
-29.92
-37.99
-44.46
-50.56
-56.99
-63.48
-69.04
-72.57
-73.65
-72.76
-71.15
-70.26
-71.05
-73.76
-77.97
-82.95
-88.03
-92.80
-96.99
-100.22
-101.83
-100.98
-96.80
-88.76
-76.81
-61.43
-43.43
-23.77
-3.30
17.22
37.02
55.06
69.85
79.63
82.76
78.45
67.21
50.93
32.34
14.19
-1.63
-14.42
-24.60
-33.06
-40.54
-47.13
-52.31
-55.19
-55.05
-51.66
-45.49
-37.76
-30.20
-24.79
-23.08
-25.63
-31.56
-38.67
-44.03
-44.96
-40.02
-29.41
-14.89
1.00
15.85
27.99
36.66
41.68
43.04
40.57
34.02
23.27
8.57
-9.48
-30.08
-52.37
-75.58
-98.82
-120.82
-139.74
-153.39
-159.83
-158.17
-149.05
-134.59
-117.63
-100.69
-85.06
-70.46
-55.56
-38.96
-20.22
-0.32
18.64
34.37
45.52
52.30
56.32
59.70
63.89
68.91
73.50
75.92
75.09
71.18
65.55
59.89
55.27
51.71
48.38
44.32
39.16
33.32
27.77
23.28
20.05
17.59
15.16
12.39
9.54
7.43
6.93
8.38
11.39
14.96
17.98
19.75
20.16
19.66
18.84
18.15
17.72
17.41
17.00
16.40
15.73
15.17
14.85
14.72
14.53
13.97
12.82
10.97
8.44
5.25
1.39
-3.13
-8.21
-13.66
-19.22
-24.67
-29.84
-34.59
-38.66
-41.71
-43.32
-43.17
-41.22
-37.72
-33.15
-28.05
-22.91
-18.03
-13.48
-9.01
-4.17
1.50
8.22
15.83
23.88
31.83
39.38
46.42
52.88
58.37
62.15
63.41
61.77
57.59
51.89
45.85
40.29
35.22
30.01
23.87
16.39
7.80
-1.20
-9.85
-17.62
-24.37
-30.15
-35.08
-39.09
-41.90
-43.12
-42.61
-40.82
-38.60
-36.78
-35.75
-35.22
-34.28
-31.77
-26.77
-19.06
-9.56
0.27
9.01
15.67
19.87
21.84
22.38
22.73
24.21
27.29
31.63
36.08
38.61
36.91
29.18
14.50
-5.39
-25.57
-40.63
-47.18
-45.25
-37.66
-27.86
-18.34
-10.01
-3.12
3.65
10.11
15.10
17.19
14.81
7.16
-5.51
-21.85
-39.84
-56.19
-68.37
-74.31
-70.19
-55.20
-32.71
-9.18
9.21
19.20
22.01
19.14
12.13
2.49
-8.53
-19.15
-27.74
-33.60
-37.06
-39.29
-41.80
-45.03
-48.15
-49.87
-49.16
-45.80
-40.43
-33.58
-25.39
-15.94
-5.41
5.67
16.66
26.99
36.48
44.90
52.72
60.16
66.64
70.89
71.72
69.30
64.83
59.97
55.31
51.66
49.50
48.94
49.62
51.25
54.60
60.62
69.73
80.54
92.25
104.27
116.18
127.08
130.77
122.95
103.71
84.03
67.62
55.05
43.90
33.22
22.31
10.75
-0.63
-10.71
-18.90
-26.60
-34.68
-43.74
-53.91
-65.24
-77.26
-88.29
-96.34
-99.94
-99.46
-95.36
-88.52
-80.06
-71.41
-63.65
-56.74
-49.88
-42.24
-34.04
-25.82
-18.46
-12.80
-9.33
-7.67
-6.49
-4.43
-1.06
2.46
4.32
2.77
-2.89
-12.01
-22.83
-33.16
-41.24
-46.29
-48.50
-48.45
-46.74
-43.86
-40.25
-36.41
-32.91
-30.19
-28.43
-27.49
-27.05
-26.77
-26.52
-26.38
-26.52
-27.09
-28.11
-29.47
-31.07
-32.86
-34.84
-36.93
-38.79
-39.82
-39.27
-36.57
-31.58
-24.74
-16.85
-8.77
-1.03
6.28
13.43
20.80
28.59
36.73
44.75
51.97
57.62
61.01
61.71
59.67
55.27
49.21
42.38
35.69
29.91
25.54
22.72
21.13
19.99
18.37
15.42
10.92
5.39
-0.01
-3.97
-5.48
-4.25
-0.63
4.65
10.77
17.06
22.90
27.77
31.22
32.92
32.86
31.34
28.98
26.46
24.29
22.63
21.24
19.61
17.22
13.83
9.65
5.24
1.28
-1.85
-4.30
-6.78
-10.11
-14.72
-20.17
-25.22
-28.21
-27.90
-24.09
-17.72
-10.43
-3.79
1.32
4.86
7.26
8.91
9.71
9.20
7.02
3.32
-1.05
-4.93
-7.35
-8.07
-7.59
-6.84
-6.76
-7.78
-9.88
-12.61
-15.40
-17.76
-19.50
-20.74
-21.78
-22.94
-24.37
-25.98
-27.52
-28.71
-29.43
-29.81
-30.04
-30.21
-30.20
-29.56
-27.75
-24.48
-19.88
-14.64
-9.70
-5.93
-3.82
-3.34
-4.02
-5.10
-5.85
-5.71
-4.40
-1.95
1.35
5.07
8.77
12.11
14.93
17.28
19.38
21.48
23.79
26.39
29.21
32.05
34.70
36.97
38.76
40.14
41.21
42.04
42.60
42.72
42.10
40.39
37.32
32.66
26.37
18.59
9.80
0.77
-7.55
-14.32
-19.13
-22.07
-23.59
-24.09
-23.62
-21.80
-18.12
-12.38
-5.03
2.77
9.55
13.99
15.35
13.67
9.63
4.35
-0.98
-5.31
-7.97
-8.74
-7.91
-6.06
-3.82
-1.61
0.53
2.85
5.73
9.48
14.26
19.99
26.35
32.75
38.30
42.00
43.00
40.91
36.03
29.31
22.14
16.00
12.15
11.39
13.93
19.35
26.67
34.61
41.79
47.17
50.13
50.59
48.76
44.98
39.62
33.15
26.17
19.49
13.97
10.23
8.51
8.53
9.70
11.21
12.21
11.93
9.65
4.83
-2.79
-13.08
-25.40
-38.71
-51.73
-63.24
-72.35
-78.63
-82.13
-83.22
-82.39
-80.11
-76.70
-72.37
-67.22
-61.28
-54.59
-47.18
-39.19
-30.89
-22.71
-15.24
-9.02
-4.46
-1.67
-0.46
-0.37
-0.82
-1.26
-1.33
-0.90
-0.01
1.14
2.34
3.41
4.22
4.69
4.76
4.43
3.75
2.87
1.93
1.07
0.36
-0.21
-0.68
-1.07
-1.35
-1.43
-1.22
-0.67
0.19
1.29
2.54
3.84
5.11
6.25
7.17
7.79
8.03
7.87
7.35
6.54
5.58
4.65
3.97
3.68
3.84
4.40
5.13
5.77
6.05
5.81
5.08
4.05
3.05
2.37
2.22
2.61
3.38
4.22
4.81
4.88
4.29
3.09
1.43
-0.46
-2.36
-4.05
-5.32
-6.03
-6.09
-5.52
-4.49
-3.24
-2.01
-0.97
-0.14
0.59
1.35
2.21
3.14
4.00
4.68
5.12
5.38
5.58
5.82
6.21
6.73
7.30
7.76
7.91
7.59
6.75
5.53
4.26
3.32
3.04
3.50
4.49
5.56
6.26
6.24
5.41
3.90
1.98
-0.11
-2.16
-4.05
-5.72
-7.12
-8.24
-9.06
-9.62
-9.94
-10.06
-9.98
-9.75
-9.36
-8.79
-7.96
-6.79
-5.27
-3.50
-1.72
-0.25
0.65
0.95
0.87
0.80
1.11
2.03
3.53
5.40
7.44
9.47
11.39
13.12
14.52
15.44
15.72
15.36
14.50
13.41
12.37
11.54
10.96
10.57
10.24
9.83
9.21
8.33
7.15
5.74
4.22
2.72
1.35
0.10
-1.10
-2.33
-3.68
-5.12
-6.56
-7.82
-8.75
-9.21
-9.17
-8.70
-7.91
-6.98
-6.04
-5.18
-4.40
-3.67
-2.92
-2.18
-1.50
-0.99
-0.68
-0.56
-0.55
-0.50
-0.35
-0.12
0.10
0.20
0.11
-0.10
-0.33
-0.49
-0.52
-0.51
-0.54
-0.73
-1.11
-1.66
-2.29
-2.89
-3.34
-3.58
-3.57
-3.34
-2.97
-2.54
-2.17
-1.87
-1.65
-1.44
-1.15
-0.73
-0.18
0.45
1.08
1.62
2.02
2.26
2.37
2.38
2.31
2.18
2.03
1.87
1.75
1.67
1.63
1.60
1.53
1.38
1.15
0.82
0.41
-0.05
-0.53
-1.02
-1.48
-1.93
-2.37
-2.79
-3.21
-3.62
-4.06
-4.60
-5.27
-5.99
-6.60
-6.85
-6.59
-5.83
-4.76
-3.66
-2.72
-2.00
-1.41
-0.82
-0.17
0.48
0.98
1.22
1.20
0.99
0.74
0.55
0.46
0.45
0.43
0.33
0.05
-0.42
-1.09
-1.88
-2.72
-3.53
-4.28
-5.00
-5.74
-6.55
-7.46
-8.48
-9.60
-10.83
-12.17
-13.55
-14.92
-16.22
-17.44
-18.56
-19.60
-20.47
-21.03
-21.05
-20.37
-18.88
-16.62
-13.71
-10.27
-6.43
-2.30
1.94
6.09
9.93
13.29
16.10
18.36
20.07
21.22
21.78
21.74
21.15
20.15
18.91
17.61
16.41
15.41
14.66
14.14
13.72
13.19
12.39
11.23
9.82
8.39
7.16
6.23
5.55
4.96
4.32
3.55
2.66
1.66
0.57
-0.58
-1.73
-2.73
-3.39
-3.57
-3.24
-2.53
-1.65
-0.79
-0.09
0.43
0.79
1.07
1.27
1.43
1.55
1.65
1.79
2.02
2.34
2.67
2.90
2.94
2.80
2.56
2.34
2.15
1.93
1.62
1.19
0.72
0.36
0.25
0.36
0.55
0.65
0.53
0.20
-0.25
-0.75
-1.27
-1.82
-2.41
-2.99
-3.51
-3.93
-4.29
-4.61
-4.88
-5.02
-4.89
-4.42
-3.67
-2.74
-1.81
-1.01
-0.38
0.11
0.50
0.83
1.12
1.44
1.81
2.28
2.78
3.17
3.30
3.08
2.58
1.95
1.41
1.09
1.04
1.20
1.46
1.72
1.93
2.03
1.97
1.71
1.22
0.53
-0.25
-0.98
-1.52
-1.85
-2.03
-2.20
-2.46
-2.87
-3.41
-4.00
-4.53
-4.93
-5.16
-5.18
-4.99
-4.57
-3.92
-3.07
-2.12
-1.19
-0.39
0.18
0.49
0.61
0.63
0.69
0.90
1.31
1.88
2.48
2.99
3.29
3.38
3.36
3.29
3.28
3.29
3.26
3.11
2.80
2.36
1.83
1.27
0.69
0.06
-0.63
-1.36
-2.08
-2.72
-3.25
-3.64
-3.94
-4.18
-4.38
-4.54
-4.63
-4.64
-4.53
-4.29
-3.92
-3.44
-2.86
-2.21
-1.53
-0.87
-0.25
0.30
0.76
1.18
1.55
1.87
2.13
2.29
2.37
2.39
2.44
2.56
2.72
2.80
2.68
2.34
1.90
1.58
1.55
1.83
2.26
2.57
2.50
1.98
1.18
0.36
-0.20
-0.40
-0.33
-0.20
-0.25
-0.60
-1.27
-2.14
-3.08
-3.94
-4.61
-5.05
-5.22
-5.11
-4.71
-4.06
-3.19
-2.21
-1.18
-0.18
0.73
1.53
2.16
2.55
2.68
2.57
2.31
2.09
2.06
2.30
2.78
3.35
3.83
4.05
3.91
3.44
2.75
2.04
1.53
1.44
1.94
3.04
4.62
6.39
7.95
8.92
9.06
8.30
6.77
4.70
2.34
-0.11
-2.49
-4.68
-6.62
-8.25
-9.55
-10.59
-11.43
-12.13
-12.73
-13.16
-13.33
-13.15
-12.56
-11.60
-10.36
-8.99
-7.64
-6.45
-5.49
-4.77
-4.21
-3.69
-3.08
-2.30
-1.33
-0.23
0.86
1.81
2.51
2.94
3.16
3.25
3.28
3.27
3.17
2.93
2.55
2.12
1.75
1.54
1.46
1.35
0.98
0.25
-0.79
-1.90
-2.72
-3.03
-2.76
-2.08
-1.23
-0.45
0.13
0.53
0.81
1.02
1.19
1.31
1.41
1.57
1.88
2.39
3.04
3.70
4.17
4.32
4.13
3.74
3.33
3.08
3.06
3.20
3.36
3.40
3.27
3.00
2.67
2.32
1.96
1.54
1.05
0.54
0.12
-0.07
0.02
0.33
0.69
0.92
0.87
0.52
-0.07
-0.83
-1.68
-2.59
-3.47
-4.19
-4.53
-4.35
-3.62
-2.52
-1.37
-0.50
-0.11
-0.16
-0.44
-0.70
-0.76
-0.59
-0.31
-0.08
-0.04
-0.30
-0.84
-1.67
-2.76
-4.07
-5.52
-6.98
-8.26
-9.13
-9.41
-8.99
-7.93
-6.37
-4.54
-2.71
-1.03
0.46
1.81
3.12
4.45
5.71
6.71
7.22
7.10
6.41
5.34
4.18
3.18
2.48
2.11
2.04
2.27
2.77
3.50
4.30
4.98
5.34
5.29
4.93
4.47
4.16
4.10
4.21
4.31
4.22
3.91
3.53
3.29
3.37
3.80
4.47
5.20
5.79
6.12
6.18
6.00
5.65
5.19
4.64
3.97
3.12
2.06
0.82
-0.48
-1.68
-2.64
-3.33
-3.87
-4.44
-5.14
-5.97
-6.80
-7.45
-7.82
-7.89
-7.71
-7.33
-6.76
-5.96
-4.93
-3.71
-2.43
-1.21
-0.14
0.74
1.41
1.84
2.03
2.02
1.88
1.73
1.69
1.81
2.04
2.31
2.55
2.76
2.96
3.17
3.35
3.34
3.03
2.37
1.46
0.55
-0.11
-0.36
-0.21
0.15
0.43
0.42
0.03
-0.65
-1.44
-2.18
-2.78
-3.28
-3.73
-4.13
-4.39
-4.37
-3.93
-3.08
-1.94
-0.76
0.22
0.91
1.35
1.64
1.88
2.10
2.24
2.23
2.08
1.83
1.60
1.48
1.49
1.59
1.68
1.70
1.59
1.39
1.11
0.86
0.69
0.60
0.58
0.57
0.50
0.33
0.09
-0.20
-0.50
-0.79
-1.09
-1.42
-1.78
-2.12
-2.42
-2.67
-2.87
-3.07
-3.26
-3.39
-3.36
-3.12
-2.63
-1.96
-1.26
-0.67
-0.29
-0.14
-0.16
-0.22
-0.24
-0.15
0.07
0.37
0.74
1.16
1.59
1.97
2.25
2.36
2.31
2.16
1.99
1.88
1.84
1.80
1.67
1.42
1.03
0.59
0.15
-0.23
-0.53
-0.78
-0.96
-1.11
-1.27
-1.51
-1.88
-2.40
-2.97
-3.43
-3.59
-3.34
-2.71
-1.85
-1.01
-0.35
0.04
0.19
0.21
0.16
0.13
0.13
0.16
0.23
0.38
0.64
0.98
1.37
1.67
1.81
1.74
1.54
1.31
1.13
1.06
1.02
0.92
0.69
0.29
-0.20
-0.64
-0.92
-0.98
-0.88
-0.77
-0.83
-1.15
-1.74
-2.47
-3.17
-3.73
-4.08
-4.25
-4.29
-4.19
-3.91
-3.44
-2.79
-2.08
-1.43
-0.94
-0.58
-0.24
0.15
0.59
0.98
1.21
1.20
1.02
0.78
0.62
0.57
0.61
0.63
0.56
0.37
0.10
-0.18
-0.42
-0.63
-0.88
-1.24
-1.78
-2.50
-3.31
-4.15
-4.94
-5.71
-6.50
-7.43
-8.52
-9.78
-11.13
-12.47
-13.73
-14.86
-15.89
-16.85
-17.77
-18.62
-19.34
-19.83
-20.04
-19.96
-19.66
-19.18
-18.52
-17.58
-16.20
-14.21
-11.56
-8.35
-4.82
-1.31
1.86
4.44
6.29
7.33
7.57
7.04
5.92
4.58
3.50
3.23
4.16
6.41
9.72
13.64
17.71
21.80
26.11
31.09
37.12
44.21
51.91
59.44
65.99
71.02
74.40
76.25
76.77
76.06
74.00
70.46
65.45
59.29
52.58
46.02
40.11
34.94
30.15
25.09
19.16
12.11
4.21
-3.87
-11.26
-17.29
-21.69
-24.57
-26.31
-27.36
-28.02
-28.47
-28.74
-28.86
-28.82
-28.66
-28.45
-28.22
-28.04
-27.95
-28.05
-28.45
-29.28
-30.59
-32.36
-34.40
-36.43
-38.05
-38.88
-38.69
-37.38
-35.09
-32.11
-28.76
-25.38
-22.21
-19.36
-16.81
-14.46
-12.12
-9.62
-6.85
-3.88
-0.94
1.60
3.38
4.26
4.33
3.90
3.25
2.55
1.69
0.48
-1.17
-3.04
-4.65
-5.48
-5.20
-3.95
-2.19
-0.55
0.53
0.95
0.90
0.67
0.44
0.20
-0.20
-0.92
-1.95
-3.12
-4.16
-4.89
-5.23
-5.32
-5.31
-5.35
-5.48
-5.66
-5.77
-5.73
-5.52
-5.14
-4.63
-3.96
-3.07
-1.88
-0.35
1.47
3.48
5.51
7.45
9.23
10.89
12.48
13.98
15.35
16.44
17.10
17.24
16.88
16.11
15.10
13.96
12.79
11.64
10.55
9.51
8.50
7.50
6.44
5.34
4.23
3.19
2.30
1.53
0.83
0.13
-0.59
-1.20
-1.57
-1.56
-1.18
-0.51
0.28
1.12
2.06
3.19
4.59
6.16
7.70
8.90
9.59
9.69
9.36
8.81
8.23
7.70
7.17
6.53
5.72
4.78
3.86
3.13
2.69
2.48
2.28
1.85
1.05
-0.10
-1.41
-2.67
-3.74
-4.61
-5.37
-6.11
-6.91
-7.85
-9.02
-10.57
-12.63
-15.17
-17.96
-20.52
-22.33
-22.99
-22.37
-20.68
-18.30
-15.61
-12.94
-10.44
-8.19
-6.30
-4.93
-4.26
-4.40
-5.33
-6.82
-8.53
-10.08
-11.16
-11.60
-11.35
-10.58
-9.53
-8.55
-7.99
-8.14
-9.09
-10.73
-12.74
-14.69
-16.21
-17.01
-17.06
-16.47
-15.58
-14.84
-14.69
-15.38
-16.90
-18.93
-20.90
-22.19
-22.26
-20.82
-17.74
-13.08
-7.01
0.17
7.93
15.53
22.12
27.00
29.84
30.84
30.59
29.83
29.14
28.71
28.44
28.03
27.31
26.30
25.16
24.12
23.24
22.44
21.54
20.35
18.82
17.01
15.13
13.41
12.07
11.23
10.88
10.84
10.88
10.71
10.15
9.15
7.74
6.04
4.16
2.18
0.17
-1.71
-3.30
-4.37
-4.76
-4.43
-3.44
-2.01
-0.42
1.02
2.01
2.31
1.87
0.79
-0.66
-2.14
-3.36
-4.16
-4.56
-4.72
-4.87
-5.20
-5.79
-6.62
-7.52
-8.28
-8.70
-8.70
-8.34
-7.86
-7.53
-7.57
-8.09
-9.00
-10.14
-11.35
-12.60
-13.92
-15.47
-17.46
-20.06
-23.24
-26.60
-29.39
-30.61
-29.48
-25.75
-19.94
-13.11
-6.48
-0.92
3.34
6.57
9.36
12.15
15.12
18.19
21.11
23.62
25.50
26.51
26.40
25.00
22.24
18.26
13.51
8.71
4.70
2.23
1.62
2.65
4.55
6.26
6.83
5.85
3.51
0.56
-2.09
-3.65
-3.83
-2.74
-0.83
1.38
3.46
5.18
6.45
7.31
7.90
8.37
8.99
10.03
11.76
14.31
17.59
21.29
24.84
27.61
29.02
28.70
26.58
22.86
18.00
12.57
7.14
2.18
-2.04
-5.43
-8.12
-10.36
-12.45
-14.61
-16.96
-19.43
-21.83
-23.95
-25.58
-26.63
-27.05
-26.90
-26.21
-25.08
-23.56
-21.70
-19.50
-16.97
-14.14
-11.12
-8.18
-5.59
-3.61
-2.28
-1.49
-0.90
-0.21
0.79
2.13
3.74
5.53
7.50
9.71
12.22
14.95
17.61
19.75
20.96
20.98
19.90
18.09
16.10
14.46
13.47
13.15
13.22
13.25
12.77
11.53
9.47
6.76
3.75
0.79
-1.80
-3.84
-5.32
-6.37
-7.25
-8.21
-9.40
-10.80
-12.23
-13.43
-14.29
-14.90
-15.59
-16.87
-19.25
-23.06
-28.21
-34.04
-39.29
-42.48
-42.36
-38.53
-31.65
-23.28
-15.26
-8.97
-4.87
-2.50
-0.90
0.76
2.87
5.26
7.55
9.41
10.76
11.74
12.57
13.40
14.25
15.02
15.59
15.91
16.07
16.32
16.91
18.03
19.72
21.82
24.11
26.32
28.28
29.84
30.94
31.49
31.41
30.67
29.30
27.48
25.43
23.39
21.51
19.80
18.12
16.28
14.07
11.34
7.94
3.70
-1.49
-7.57
-14.20
-20.77
-26.57
-31.08
-34.19
-36.20
-37.61
-38.82
-39.92
-40.66
-40.66
-39.57
-37.26
-33.84
-29.56
-24.77
-19.86
-15.21
-11.11
-7.76
-5.12
-3.02
-1.26
0.36
1.97
3.69
5.65
7.95
10.57
13.29
15.73
17.45
18.15
17.85
16.86
15.64
14.65
14.12
14.05
14.22
14.32
14.01
13.04
11.32
8.86
5.84
2.46
-1.07
-4.51
-7.72
-10.48
-12.56
-13.76
-14.00
-13.43
-12.39
-11.37
-10.67
-10.33
-10.05
-9.41
-8.11
-6.20
-4.01
-1.92
-0.05
1.80
3.98
6.69
9.72
12.46
14.25
14.65
13.74
12.07
10.34
9.17
8.89
9.54
10.96
12.89
15.00
16.97
18.48
19.35
19.60
19.40
19.03
18.65
18.31
17.97
17.59
17.26
17.15
17.39
18.03
18.91
19.70
20.06
19.65
18.37
16.32
13.85
11.45
9.62
8.75
8.97
10.17
11.97
13.93
15.64
16.82
17.38
17.37
16.95
16.30
15.56
14.74
13.66
12.00
9.41
5.76
1.21
-3.75
-8.46
-12.29
-14.91
-16.26
-16.55
-16.07
-15.09
-13.84
-12.57
-11.53
-11.01
-11.17
-12.02
-13.34
-14.78
-15.99
-16.68
-16.70
-16.03
-14.82
-13.31
-11.84
-10.73
-10.18
-10.20
-10.58
-11.01
-11.15
-10.83
-10.09
-9.15
-8.34
-8.01
-8.48
-9.98
-12.51
-15.85
-19.44
-22.53
-24.38
-24.51
-22.87
-19.81
-15.92
-11.74
-7.60
-3.61
0.19
3.71
6.71
8.88
10.05
10.32
10.03
9.59
9.27
9.01
8.41
6.93
4.03
-0.54
-6.71
-14.07
-21.96
-29.72
-36.75
-42.71
-47.47
-51.16
-53.97
-56.06
-57.42
-57.83
-56.95
-54.39
-49.91
-43.47
-35.35
-26.11
-16.49
-7.28
0.88
7.47
12.25
15.11
16.18
15.82
14.68
13.64
13.53
14.96
17.96
22.04
26.22
29.58
31.45
31.75
30.90
29.55
28.34
27.52
26.88
25.70
22.99
17.74
9.42
-1.68
-14.28
-26.26
-35.37
-39.87
-39.32
-34.71
-28.11
-21.90
-17.89
-16.91
-18.73
-22.64
-27.81
-33.69
-39.98
-46.40
-52.67
-58.49
-63.75
-68.47
-72.78
-76.55
-79.30
-80.30
-78.85
-74.73
-68.27
-60.24
-51.36
-42.07
-32.42
-22.23
-11.45
-0.19
11.15
22.14
32.33
41.38
48.90
54.52
57.92
58.89
57.62
54.58
50.55
46.25
42.23
38.64
35.29
31.81
27.75
22.91
17.28
11.28
5.53
0.70
-2.82
-5.18
-7.01
-9.25
-12.57
-17.06
-21.89
-25.67
-26.92
-24.64
-18.73
-9.86
0.78
11.94
22.47
31.46
38.22
42.29
43.62
42.64
40.30
37.78
36.28
36.57
38.96
43.14
48.42
53.88
58.53
61.46
61.88
59.32
53.65
45.23
34.74
23.06
11.05
-0.71
-11.80
-21.95
-30.72
-37.46
-41.46
-42.23
-39.90
-35.32
-29.96
-25.34
-22.51
-21.65
-22.17
-23.09
-23.61
-23.52
-23.18
-23.23
-24.07
-25.56
-27.00
-27.48
-26.39
-23.61
-19.68
-15.36
-11.47
-8.58
-7.13
-7.45
-9.70
-13.67
-18.52
-22.85
-25.00
-23.75
-18.80
-10.86
-1.29
8.62
18.03
26.61
34.07
39.83
42.98
42.84
39.57
34.47
29.67
27.27
28.44
32.95
39.40
45.87
50.77
53.40
53.90
52.96
51.25
49.17
46.77
43.92
40.57
36.91
33.31
30.19
27.88
26.45
25.69
25.12
24.15
22.32
19.42
15.63
11.33
6.99
2.84
-1.11
-5.08
-9.28
-13.68
-17.97
-21.61
-24.15
-25.40
-25.54
-25.00
-24.36
-24.19
-24.82
-26.39
-28.74
-31.44
-33.92
-35.62
-36.15
-35.42
-33.61
-31.07
-28.23
-25.48
-23.17
-21.53
-20.78
-21.01
-22.15
-23.91
-25.79
-27.23
-27.66
-26.76
-24.48
-21.13
-17.20
-13.25
-9.80
-7.19
-5.70
-5.52
-6.71
-9.04
-11.80
-13.78
-13.68
-10.72
-5.12
1.68
7.61
10.85
10.60
7.37
2.61
-2.19
-6.09
-8.91
-10.92
-12.31
-12.99
-12.74
-11.58
-9.99
-8.75
-8.57
-9.65
-11.67
-13.97
-15.93
-17.17
-17.54
-16.83
-14.69
-10.65
-4.50
3.42
12.10
20.12
26.12
29.29
29.50
27.23
23.18
17.96
11.95
5.50
-0.92
-6.53
-10.46
-12.01
-11.00
-7.90
-3.58
1.01
5.16
8.49
10.89
12.42
13.25
13.76
14.54
16.31
19.66
24.71
30.92
37.23
42.41
45.58
46.50
45.56
43.61
41.53
39.99
39.37
39.74
40.95
42.67
44.38
45.54
45.66
44.58
42.49
39.92
37.40
35.30
33.61
32.09
30.40
28.27
25.60
22.38
18.61
14.31
9.58
4.68
-0.03
-4.19
-7.63
-10.48
-13.08
-15.77
-18.75
-21.98
-25.32
-28.63
-31.93
-35.41
-39.28
-43.75
-48.79
-54.40
-60.52
-67.26
-74.72
-82.92
-91.49
-99.63
-106.29
-110.38
-111.23
-108.67
-102.96
-94.56
-83.84
-71.20
-57.08
-42.21
-27.39
-13.26
-0.02
12.55
24.64
35.96
45.53
52.17
55.21
55.26
54.16
54.24
57.07
62.55
68.83
73.06
72.78
66.90
56.19
42.76
29.30
18.21
11.00
8.23
9.53
13.99
20.30
27.15
33.35
38.16
41.34
43.17
44.36
45.65
47.55
49.83
51.58
51.38
47.95
40.85
30.78
19.48
9.05
1.16
-3.50
-5.22
-4.91
-3.57
-2.01
-0.85
-0.60
-1.65
-4.01
-7.03
-9.40
-9.54
-6.36
0.09
8.31
15.79
19.85
18.72
12.19
1.67
-10.27
-20.84
-27.73
-29.70
-26.65
-19.51
-9.78
0.75
10.27
17.33
21.03
21.30
18.87
15.07
11.35
8.81
7.89
8.27
9.21
9.79
9.39
7.75
5.06
1.63
-2.20
-6.35
-11.02
-16.52
-23.05
-30.35
-37.54
-43.26
-46.20
-45.74
-42.34
-37.59
-33.54
-31.95
-33.62
-38.19
-44.55
-51.41
-57.84
-63.38
-67.85
-71.05
-72.59
-72.00
-69.00
-63.74
-56.81
-49.08
-41.34
-34.06
-27.29
-20.78
-14.20
-7.39
-0.54
5.87
11.26
15.24
17.74
19.09
19.80
20.34
21.01
21.85
22.77
23.62
24.32
24.82
25.14
25.24
25.11
24.75
24.14
23.33
22.36
21.25
20.04
18.70
17.26
15.75
14.14
12.39
10.56
8.83
7.43
6.51
6.11
6.23
6.77
7.57
8.42
9.13
9.64
9.97
10.18
10.38
10.89
11.95
13.53
15.37
17.12
18.55
19.60
20.30
20.69
21.53
23.38
26.17
29.15
31.35
32.12
31.33
29.23
26.27
24.34
24.84
27.73
31.43
33.89
33.79
30.94
25.95
19.96
16.58
18.80
27.32
40.07
53.70
65.50
74.19
79.97
84.20
92.07
108.25
134.26
167.59
203.63
238.27
269.05
295.09
297.31
264.10
198.12
116.40
37.90
-26.75
-75.76
-112.05
-139.80
-162.64
-179.28
-186.85
-183.80
-170.90
-150.70
-126.66
-103.02
-84.57
-76.21
-78.99
-89.67
-102.52
-112.85
-118.60
-120.32
-120.26
-120.79
-122.96
-124.32
-122.64
-115.72
-104.49
-91.85
-80.65
-72.38
-66.98
-63.32
-59.20
-52.96
-44.25
-34.36
-25.05
-17.40
-11.57
-6.89
-2.72
1.67
6.73
12.49
18.53
24.47
30.31
36.42
43.38
51.70
61.68
73.11
85.07
95.81
103.27
105.77
102.71
94.81
83.90
72.24
61.68
53.22
46.72
41.43
36.37
30.66
23.67
14.86
3.94
-9.13
-23.88
-39.20
-53.47
-64.75
-71.49
-73.00
-69.80
-63.37
-55.76
-48.87
-43.99
-41.48
-40.86
-41.30
-42.18
-43.23
-44.46
-45.89
-47.35
-48.54
-49.03
-48.37
-46.44
-43.64
-40.76
-38.50
-37.29
-36.89
-36.65
-35.51
-32.16
-25.67
-15.88
-3.33
11.08
26.22
41.04
53.64
61.34
62.88
59.98
56.24
54.76
56.55
60.45
64.48
66.88
67.14
66.05
64.73
63.39
61.24
57.95
52.16
43.80
33.85
23.82
15.14
8.58
3.86
0.15
-3.38
-7.33
-11.72
-16.41
-21.35
-26.64
-31.44
-35.52
-38.67
-40.59
-40.91
-39.28
-35.60
-30.16
-23.43
-15.93
-8.37
-1.37
4.52
8.80
11.19
11.70
10.78
9.23
7.99
7.63
8.30
9.63
10.95
11.66
11.50
10.71
9.90
9.79
10.75
12.64
14.75
16.07
15.74
13.47
9.65
5.12
0.79
-2.94
-6.23
-9.70
-14.06
-19.76
-26.91
-35.17
-43.86
-51.72
-56.88
-57.04
-50.14
-35.31
-13.68
11.60
36.23
56.14
68.84
73.88
72.43
66.34
57.29
46.48
34.93
23.97
15.29
10.57
10.75
15.51
23.28
31.83
39.07
43.71
45.39
44.47
41.54
37.04
31.18
24.01
15.52
5.84
-4.74
-15.74
-26.51
-36.35
-44.63
-51.04
-55.66
-58.86
-61.07
-62.40
-62.56
-60.98
-57.21
-51.23
-43.62
-35.43
-27.76
-21.51
-17.23
-15.09
-15.06
-16.86
-20.11
-24.33
-29.01
-33.71
-38.02
-41.55
-43.89
-44.72
-43.95
-41.88
-39.10
-36.27
-33.75
-31.39
-28.68
-24.99
-19.96
-13.76
-6.99
-0.39
5.45
10.22
13.80
16.10
16.92
16.01
13.27
8.94
3.67
-1.67
-6.24
-9.56
-11.69
-13.07
-14.27
-15.69
-17.39
-19.11
-20.47
-21.22
-21.30
-20.83
-20.03
-19.06
-17.98
-16.85
-15.69
-14.55
-13.46
-12.43
-11.42
-10.40
-9.40
-8.49
-7.73
-7.08
-6.42
-5.56
-4.36
-2.82
-1.06
0.74
2.43
3.95
5.30
6.47
7.30
7.56
7.05
5.74
3.89
1.94
0.35
-0.58
-0.82
-0.64
-0.39
-0.43
-0.91
-1.77
-2.85
-3.92
-4.79
-5.35
-5.59
-5.55
-5.35
-5.10
-4.91
-4.84
-4.94
-5.22
-5.64
-6.18
-6.76
-7.33
-7.80
-8.12
-8.23
-8.09
-7.62
-6.80
-5.66
-4.33
-2.98
-1.85
-1.08
-0.68
-0.57
-0.66
-0.93
-1.44
-2.36
-3.79
-5.69
-7.84
-9.85
-11.25
-11.55
-10.37
-7.55
-3.24
2.05
7.51
12.29
15.70
17.55
18.09
17.95
17.76
17.94
18.63
19.71
21.03
22.51
24.19
26.10
28.22
30.42
32.52
34.39
36.03
37.54
39.06
40.66
42.26
43.68
44.62
44.84
44.23
42.81
40.75
38.31
35.74
33.24
30.88
28.68
26.59
24.56
22.54
20.43
18.17
15.70
13.07
10.46
8.15
6.42
5.41
5.06
5.13
5.29
5.29
5.02
4.47
3.70
2.78
1.73
0.59
-0.57
-1.64
-2.54
-3.21
-3.70
-4.11
-4.55
-5.09
-5.72
-6.34
-6.81
-7.02
-6.93
-6.56
-5.96
-5.17
-4.24
-3.13
-1.85
-0.42
1.11
2.71
4.30
5.77
6.97
7.71
7.84
7.34
6.35
5.11
3.90
2.92
2.20
1.69
1.30
0.97
0.65
0.38
0.11
-0.21
-0.61
-1.05
-1.46
-1.75
-1.89
-1.99
-2.22
-2.81
-3.85
-5.27
-6.85
-8.32
-9.48
-10.27
-10.78
-11.19
-11.68
-12.36
-13.24
-14.26
-15.33
-16.31
-17.06
-17.44
-17.31
-16.60
-15.32
-13.58
-11.55
-9.43
-7.43
-5.68
-4.26
-3.26
-2.71
-2.63
-2.99
-3.67
-4.51
-5.35
-6.04
-6.51
-6.79
-6.95
-7.05
-7.15
-7.26
-7.39
-7.53
-7.72
-8.01
-8.50
-9.23
-10.16
-11.19
-12.14
-12.78
-12.93
-12.52
-11.60
-10.33
-8.92
-7.56
-6.38
-5.37
-4.50
-3.69
-2.88
-2.09
-1.34
-0.64
0.04
0.75
1.61
2.77
4.34
6.35
8.73
11.28
13.72
15.84
17.50
18.73
19.60
20.23
20.67
20.93
21.09
21.25
21.53
22.03
22.74
23.53
24.20
24.57
24.47
23.80
22.45
20.37
17.61
14.33
10.83
7.49
4.58
2.23
0.35
-1.23
-2.73
-4.28
-5.88
-7.46
-8.92
-10.19
-11.23
-12.01
-12.48
-12.56
-12.15
-11.25
-9.92
-8.33
-6.64
-4.97
-3.35
-1.75
-0.21
1.17
2.21
2.73
2.65
2.07
1.18
0.22
-0.61
-1.19
-1.46
-1.48
-1.34
-1.19
-1.17
-1.35
-1.72
-2.18
-2.68
-3.22
-3.88
-4.81
-6.08
-7.65
-9.32
-10.85
-12.05
-12.83
-13.22
-13.23
-12.88
-12.17
-11.10
-9.76
-8.28
-6.86
-5.70
-4.91
-4.48
-4.27
-4.03
-3.53
-2.59
-1.18
0.60
2.53
4.41
6.09
7.55
8.81
9.91
10.82
11.50
11.88
11.93
11.67
11.12
10.37
9.52
8.67
7.94
7.41
7.09
6.93
6.82
6.66
6.38
5.96
5.39
4.64
3.72
2.64
1.48
0.38
-0.55
-1.22
-1.59
-1.71
-1.68
-1.62
-1.63
-1.83
-2.23
-2.80
-3.40
-3.87
-4.08
-4.03
-3.84
-3.66
-3.62
-3.70
-3.79
-3.70
-3.32
-2.57
-1.50
-0.23
1.12
2.44
3.65
4.66
5.40
5.84
5.98
5.90
5.66
5.33
4.96
4.56
4.11
3.64
3.19
2.81
2.57
2.47
2.50
2.56
2.60
2.57
2.45
2.22
1.86
1.30
0.57
-0.28
-1.12
-1.76
-2.13
-2.22
-2.19
-2.22
-2.46
-2.97
-3.67
-4.43
-5.11
-5.66
-6.11
-6.53
-6.97
-7.41
-7.76
-7.90
-7.69
-7.12
-6.24
-5.16
-4.01
-2.88
-1.83
-0.88
-0.05
0.65
1.17
1.50
1.62
1.52
1.23
0.84
0.53
0.45
0.69
1.19
1.78
2.24
2.48
2.49
2.42
2.34
2.28
2.17
1.95
1.62
1.32
1.18
1.28
1.52
1.76
1.83
1.68
1.38
1.03
0.73
0.49
0.25
-0.07
-0.54
-1.12
-1.75
-2.31
-2.71
-2.92
-2.95
-2.86
-2.69
-2.44
-2.06
-1.51
-0.79
0.05
0.90
1.67
2.27
2.68
2.91
3.01
3.03
3.05
3.11
3.28
3.55
3.92
4.31
4.65
4.84
4.87
4.81
4.74
4.76
4.88
5.01
5.00
4.77
4.32
3.72
3.10
2.53
1.96
1.33
0.59
-0.26
-1.09
-1.82
-2.38
-2.83
-3.26
-3.79
-4.44
-5.14
-5.75
-6.13
-6.16
-5.82
-5.17
-4.33
-3.45
-2.62
-1.90
-1.29
-0.69
-0.03
0.73
1.58
2.41
3.06
3.43
3.48
3.32
3.15
3.14
3.36
3.74
4.11
4.30
4.22
3.92
3.53
3.17
2.88
2.64
2.39
2.11
1.80
1.48
1.16
0.82
0.45
0.06
-0.34
-0.69
-1.02
-1.38
-1.85
-2.47
-3.25
-4.08
-4.87
-5.52
-5.99
-6.30
-6.44
-6.43
-6.21
-5.74
-5.00
-4.03
-2.92
-1.80
-0.76
0.17
1.01
1.78
2.44
2.91
3.11
3.03
2.79
2.57
2.56
2.81
3.20
3.54
3.66
3.50
3.16
2.81
2.55
2.37
2.13
1.72
1.05
0.17
-0.82
-1.80
-2.72
-3.54
-4.30
-5.00
-5.69
-6.40
-7.14
-7.92
-8.72
-9.43
-9.94
-10.14
-9.96
-9.42
-8.61
-7.61
-6.47
-5.21
-3.80
-2.21
-0.41
1.57
3.66
5.74
7.66
9.27
10.38
10.88
10.71
9.91
8.67
7.22
5.74
4.35
3.02
1.70
0.40
-0.82
-1.85
-2.58
-3.01
-3.23
-3.39
-3.64
-4.05
-4.64
-5.36
-6.13
-6.92
-7.70
-8.47
-9.31
-10.27
-11.39
-12.65
-14.00
-15.34
-16.59
-17.74
-18.80
-19.80
-20.76
-21.65
-22.41
-22.95
-23.09
-22.53
-20.91
-17.91
-13.37
-7.44
-0.60
6.44
12.93
18.34
22.41
25.26
27.25
28.78
30.19
31.59
32.90
33.90
34.40
34.28
33.55
32.35
30.79
28.97
26.92
24.63
22.14
19.54
16.98
14.55
12.29
10.20
8.30
6.71
5.66
5.41
6.11
7.73
10.02
12.62
15.21
17.59
19.67
21.42
22.87
24.01
24.83
25.33
25.50
25.31
24.77
23.87
22.61
21.01
19.05
16.68
13.83
10.42
6.49
2.16
-2.40
-7.00
-11.49
-15.74
-19.59
-22.92
-25.56
-27.46
-28.70
-29.43
-29.82
-29.96
-29.81
-29.31
-28.43
-27.29
-26.09
-25.04
-24.28
-23.83
-23.58
-23.35
-23.03
-22.55
-21.95
-21.31
-20.69
-20.12
-19.53
-18.82
-17.88
-16.64
-15.16
-13.57
-12.04
-10.67
-9.39
-8.07
-6.52
-4.69
-2.68
-0.74
0.89
2.08
2.86
3.39
3.85
4.32
4.81
5.22
5.53
5.77
6.01
6.33
6.74
7.17
7.49
7.63
7.60
7.42
7.18
6.92
6.60
6.15
5.50
4.66
3.70
2.76
1.97
1.44
1.14
1.02
0.98
0.96
0.93
0.90
0.85
0.71
0.41
-0.07
-0.68
-1.25
-1.59
-1.61
-1.33
-0.88
-0.40
0.08
0.60
1.25
2.09
3.05
3.98
4.74
5.29
5.71
6.17
6.79
7.56
8.32
8.85
9.00
8.76
8.24
7.58
6.85
6.02
5.01
3.78
2.37
0.92
-0.36
-1.36
-2.03
-2.48
-2.88
-3.40
-4.12
-5.05
-6.07
-7.07
-7.92
-8.58
-9.06
-9.43
-9.75
-10.04
-10.30
-10.50
-10.61
-10.59
-10.42
-10.04
-9.39
-8.44
-7.21
-5.80
-4.38
-3.10
-2.11
-1.44
-1.04
-0.84
-0.74
-0.70
-0.67
-0.63
-0.51
-0.28
0.10
0.60
1.10
1.51
1.72
1.71
1.52
1.24
0.94
0.68
0.47
0.32
0.27
0.36
0.64
1.11
1.76
2.50
3.21
3.81
4.22
4.44
4.49
4.39
4.15
3.75
3.15
2.37
1.46
0.52
-0.30
-0.91
-1.23
-1.28
-1.12
-0.84
-0.49
-0.13
0.21
0.48
0.64
0.61
0.39
0.06
-0.24
-0.39
-0.33
-0.11
0.11
0.16
-0.03
-0.41
-0.84
-1.14
-1.23
-1.14
-1.00
-0.94
-1.01
-1.18
-1.35
-1.45
-1.46
-1.49
-1.67
-2.11
-2.77
-3.51
-4.12
-4.41
-4.34
-4.00
-3.61
-3.37
-3.42
-3.73
-4.17
-4.56
-4.71
-4.55
-4.10
-3.43
-2.60
-1.67
-0.69
0.26
1.07
1.62
1.84
1.78
1.59
1.47
1.56
1.87
2.31
2.71
2.96
3.03
2.96
2.88
2.91
3.10
3.43
3.83
4.18
4.39
4.45
4.36
4.15
3.83
3.35
2.68
1.84
0.89
-0.01
-0.72
-1.18
-1.43
-1.60
-1.84
-2.19
-2.60
-2.95
-3.13
-3.13
-3.01
-2.85
-2.71
-2.59
-2.43
-2.18
-1.81
-1.38
-0.95
-0.55
-0.15
0.33
0.90
1.55
2.16
2.60
2.74
2.58
2.20
1.76
1.39
1.16
1.05
0.98
0.88
0.69
0.45
0.22
0.05
-0.00
0.07
0.24
0.39
0.39
0.11
-0.51
-1.40
-2.44
-3.40
-4.12
-4.49
-4.52
-4.28
-3.88
-3.42
-2.98
-2.57
-2.17
-1.71
-1.13
-0.42
0.36
1.06
1.55
1.76
1.77
1.72
1.76
1.98
2.33
2.69
2.90
2.87
2.60
2.19
1.78
1.46
1.22
1.03
0.82
0.54
0.24
0.00
-0.11
-0.09
-0.02
-0.03
-0.21
-0.62
-1.17
-1.74
-2.22
-2.54
-2.74
-2.92
-3.17
-3.56
-4.06
-4.61
-5.12
-5.55
-5.92
-6.26
-6.54
-6.71
-6.64
-6.28
-5.63
-4.79
-3.89
-3.02
-2.21
-1.41
-0.60
0.20
0.95
1.60
2.13
2.59
3.02
3.45
3.86
4.23
4.59
4.98
5.44
5.95
6.44
6.84
7.07
7.14
7.07
6.91
6.68
6.41
6.08
5.71
5.27
4.77
4.20
3.59
2.97
2.38
1.84
1.33
0.77
0.11
-0.65
-1.45
-2.18
-2.71
-2.98
-3.00
-2.87
-2.76
-2.79
-3.05
-3.49
-4.00
-4.41
-4.61
-4.60
-4.56
-4.68
-5.14
-5.98
-7.09
-8.31
-9.46
-10.47
-11.32
-12.01
-12.50
-12.73
-12.63
-12.19
-11.55
-10.84
-10.15
-9.41
-8.39
-6.85
-4.68
-2.02
0.70
2.99
4.40
4.78
4.22
3.03
1.54
-0.02
-1.59
-3.19
-4.92
-6.82
-8.86
-10.95
-12.91
-14.59
-15.88
-16.74
-17.25
-17.50
-17.56
-17.43
-16.97
-16.01
-14.39
-12.10
-9.24
-6.03
-2.66
0.77
4.21
7.64
10.97
14.02
16.56
18.37
19.36
19.65
19.46
19.11
18.80
18.64
18.53
18.35
17.97
17.35
16.57
15.73
14.90
14.09
13.23
12.23
11.03
9.63
8.04
6.31
4.42
2.39
0.21
-2.00
-4.10
-5.91
-7.35
-8.50
-9.53
-10.63
-11.87
-13.13
-14.12
-14.56
-14.35
-13.61
-12.62
-11.72
-11.10
-10.75
-10.47
-10.08
-9.40
-8.46
-7.35
-6.22
-5.18
-4.25
-3.39
-2.46
-1.34
0.04
1.67
3.45
5.23
6.87
8.29
9.51
10.56
11.46
12.16
12.60
12.76
12.70
12.56
12.51
12.56
12.65
12.62
12.38
11.97
11.54
11.23
11.14
11.23
11.40
11.60
11.86
12.28
12.92
13.74
14.54
15.11
15.28
14.95
14.09
12.63
10.50
7.69
4.44
1.33
-0.79
-1.11
0.84
4.99
10.74
17.19
23.49
29.08
33.76
37.54
40.49
42.56
43.67
43.83
43.26
42.38
41.66
41.55
42.32
44.00
46.31
48.72
50.45
50.68
48.67
43.89
36.37
26.65
15.51
3.62
-8.54
-20.61
-32.23
-42.94
-52.52
-60.71
-67.51
-73.31
-78.86
-84.86
-91.55
-98.61
-105.35
-111.38
-116.27
-119.74
-122.00
-123.67
-125.43
-127.45
-129.16
-129.41
-127.24
-121.31
-110.38
-93.81
-72.01
-46.40
-18.92
8.40
36.37
62.38
82.45
94.07
97.82
96.28
92.01
86.84
81.77
77.21
73.11
69.89
68.32
69.22
72.54
76.91
80.25
80.20
74.81
63.16
45.79
24.55
2.24
-18.11
-34.35
-45.29
-50.79
-51.60
-48.94
-44.42
-39.82
-37.02
-35.75
-36.50
-39.06
-41.68
-44.00
-43.16
-37.31
-26.66
-11.62
4.90
19.19
28.73
33.01
33.37
32.26
31.18
30.10
27.62
22.18
13.21
2.11
-8.26
-14.55
-14.16
-6.97
4.65
16.58
24.93
27.01
22.09
11.29
-2.21
-14.04
-20.50
-19.92
-13.49
-3.63
6.66
14.84
19.51
21.40
22.69
25.49
30.97
38.94
50.02
64.64
82.03
95.94
97.68
80.95
46.91
6.68
-32.06
-62.26
-79.39
-80.51
-67.38
-45.23
-20.67
0.36
13.97
16.74
9.96
-2.11
-15.45
-28.15
-38.99
-46.53
-50.83
-50.98
-47.60
-41.52
-34.16
-27.18
-22.03
-18.89
-15.90
-11.74
-5.60
2.00
10.52
19.17
27.03
33.28
37.75
40.87
43.25
45.67
48.34
51.45
54.79
57.75
59.53
59.62
58.04
55.17
51.77
48.48
45.77
43.63
41.60
39.03
35.47
30.89
25.63
20.32
15.53
11.54
8.27
5.31
2.13
-1.78
-6.69
-12.64
-19.30
-26.15
-32.63
-38.32
-43.06
-46.93
-50.16
-52.90
-55.26
-57.22
-58.75
-59.87
-60.65
-61.12
-61.22
-60.77
-59.51
-57.20
-53.65
-48.69
-42.07
-33.40
-22.33
-8.72
7.08
24.20
41.35
57.19
70.68
81.15
88.26
91.71
91.15
86.22
76.72
62.79
45.02
24.38
2.12
-20.35
-41.55
-60.15
-75.21
-86.28
-93.44
-97.05
-97.42
-94.68
-88.76
-79.75
-68.23
-55.40
-42.94
-32.53
-25.23
-21.12
-19.23
-17.91
-15.54
-11.17
-4.98
1.89
7.77
11.07
10.76
6.62
-0.80
-10.25
-20.05
-28.28
-33.15
-33.39
-28.74
-20.07
-9.18
1.91
11.69
19.62
26.31
33.08
41.20
51.29
62.83
74.35
83.82
89.28
89.24
83.42
72.91
59.87
46.99
36.76
30.88
29.75
32.33
35.98
37.78
35.60
28.86
18.59
7.08
-3.00
-9.51
-11.62
-10.67
-8.64
-7.22
-7.18
-8.56
-11.12
-14.76
-19.56
-25.77
-34.29
-45.03
-56.79
-67.49
-75.27
-79.29
-79.95
-78.59
-71.37
-57.75
-40.82
-25.71
-15.31
-9.26
-5.48
-1.98
2.33
7.69
11.79
14.53
16.39
18.29
20.69
23.38
25.70
27.07
27.23
25.71
23.36
21.06
19.71
19.65
20.46
21.27
21.20
19.66
16.09
10.74
4.24
-2.32
-7.98
-12.21
-15.00
-16.71
-17.88
-19.25
-21.13
-23.59
-26.21
-28.43
-29.65
-29.50
-27.77
-24.52
-20.13
-15.04
-9.83
-4.94
-0.67
2.84
5.59
7.66
9.16
10.12
10.62
10.66
10.39
9.99
9.63
9.43
9.38
9.35
9.18
8.80
8.25
7.73
7.43
7.52
8.02
8.83
9.73
10.50
10.96
10.97
10.48
9.45
7.92
6.02
4.04
2.33
1.17
0.66
0.58
0.58
0.26
-0.53
-1.67
-2.88
-3.88
-4.66
-5.47
-6.66
-8.43
-10.70
-13.10
-15.13
-16.39
-16.65
-15.91
-14.24
-11.81
-8.79
-5.41
-2.03
0.93
3.16
4.59
5.49
6.40
7.83
10.01
12.73
15.38
17.20
17.59
16.34
13.71
10.28
6.66
3.28
0.22
-2.69
-5.74
-9.19
-13.09
-17.29
-21.55
-25.58
-29.20
-32.24
-34.57
-36.04
-36.53
-35.96
-34.43
-32.09
-29.14
-25.72
-21.84
-17.45
-12.47
-6.94
-0.98
5.14
11.09
16.50
21.12
24.78
27.51
29.47
30.95
32.37
34.23
37.12
41.55
47.79
55.64
64.32
72.68
79.48
83.86
85.51
84.69
81.98
77.88
72.67
66.39
59.09
51.00
42.61
34.49
27.05
20.29
13.84
7.25
0.26
-7.00
-14.09
-20.57
-26.20
-31.11
-35.60
-39.89
-43.96
-47.52
-50.17
-51.63
-51.86
-51.04
-49.47
-47.46
-45.23
-42.87
-40.39
-37.69
-34.75
-31.60
-28.43
-25.55
-23.22
-21.58
-20.59
-20.05
-19.76
-19.55
-19.25
-18.57
-17.09
-14.39
-10.32
-5.21
0.11
4.57
7.29
7.94
6.83
4.74
2.53
0.82
-0.17
-0.52
-0.47
-0.19
0.23
0.82
1.62
2.73
4.20
6.07
8.30
10.79
13.30
15.60
17.50
18.92
19.94
20.71
21.45
22.31
23.30
24.30
25.09
25.43
25.15
24.21
22.64
20.55
18.05
15.23
12.17
8.94
5.63
2.26
-1.16
-4.69
-8.36
-12.14
-15.86
-19.24
-21.93
-23.62
-24.12
-23.41
-21.68
-19.30
-16.69
-14.27
-12.30
-10.89
-9.98
-9.42
-9.09
-8.89
-8.78
-8.74
-8.72
-8.67
-8.52
-8.24
-7.76
-7.07
-6.17
-5.08
-3.90
-2.75
-1.73
-0.90
-0.27
0.19
0.49
0.64
0.67
0.61
0.52
0.46
0.35
0.05
-0.61
-1.70
-3.12
-4.61
-5.84
-6.56
-6.66
-6.22
-5.36
-4.16
-2.65
-0.84
1.22
3.35
5.28
6.79
7.71
8.04
7.91
7.42
6.71
5.83
4.82
3.72
2.61
1.55
0.55
-0.44
-1.52
-2.75
-4.17
-5.72
-7.27
-8.70
-9.88
-10.82
-11.56
-12.24
-13.01
-13.95
-15.07
-16.23
-17.18
-17.60
-17.27
-16.07
-14.10
-11.56
-8.79
-6.09
-3.64
-1.53
0.27
1.85
3.34
4.85
6.48
8.25
10.15
12.07
13.89
15.49
16.76
17.72
18.37
18.70
18.68
18.26
17.43
16.27
14.97
13.72
12.68
11.89
11.30
10.80
10.28
9.66
8.89
7.91
6.70
5.24
3.64
2.06
0.74
-0.16
-0.55
-0.47
-0.01
0.73
1.65
2.65
3.61
4.34
4.69
4.60
4.08
3.26
2.28
1.27
0.33
-0.46
-1.03
-1.36
-1.52
-1.65
-1.97
-2.71
-3.97
-5.69
-7.65
-9.54
-11.01
-11.81
-11.77
-10.90
-9.35
-7.35
-5.16
-3.02
-1.05
0.69
2.16
3.35
4.29
5.09
5.91
6.88
7.94
8.84
9.20
8.73
7.45
5.77
4.33
3.76
4.37
6.04
8.36
10.76
12.76
14.09
14.69
14.65
14.17
13.49
12.84
12.42
12.34
12.52
12.86
13.14
13.19
12.93
12.35
11.54
10.57
9.47
8.26
6.90
5.37
3.68
1.84
-0.13
-2.18
-4.25
-6.25
-8.02
-9.40
-10.26
-10.58
-10.46
-10.06
-9.55
-9.01
-8.45
-7.83
-7.12
-6.33
-5.50
-4.68
-3.83
-2.88
-1.77
-0.49
0.84
2.00
2.79
3.11
3.04
2.80
2.66
2.78
3.15
3.60
3.89
3.84
3.40
2.67
1.87
1.21
0.83
0.74
0.84
0.95
0.88
0.48
-0.28
-1.33
-2.44
-3.29
-3.59
-3.10
-1.76
0.27
2.65
4.97
6.86
8.19
9.03
9.60
10.09
10.59
11.05
11.30
11.19
10.58
9.41
7.67
5.36
2.50
-0.78
-4.31
-7.81
-10.99
-13.62
-15.61
-16.96
-17.77
-18.13
-18.17
-17.96
-17.59
-17.11
-16.57
-15.96
-15.23
-14.31
-13.13
-11.73
-10.21
-8.75
-7.43
-6.28
-5.11
-3.62
-1.54
1.26
4.70
8.52
12.33
15.80
18.64
20.65
21.69
21.74
20.90
19.53
18.14
17.29
17.37
18.35
19.80
21.05
21.50
20.84
19.16
16.79
14.09
11.26
8.27
5.05
1.57
-2.00
-5.35
-8.15
-10.24
-11.63
-12.51
-13.09
-13.51
-13.78
-13.86
-13.72
-13.45
-13.23
-13.20
-13.39
-13.68
-13.81
-13.53
-12.70
-11.37
-9.67
-7.78
-5.82
-3.89
-2.08
-0.52
0.66
1.42
1.85
2.19
2.71
3.59
4.84
6.25
7.58
8.62
9.31
9.70
9.89
9.90
9.72
9.35
8.83
8.28
7.78
7.36
6.92
6.31
5.45
4.35
3.10
1.77
0.32
-1.40
-3.60
-6.36
-9.58
-12.95
-16.04
-18.54
-20.30
-21.41
-22.08
-22.48
-22.68
-22.63
-22.25
-21.55
-20.65
-19.70
-18.79
-17.87
-16.75
-15.26
-13.35
-11.13
-8.84
-6.70
-4.79
-3.03
-1.29
0.56
2.54
4.61
6.72
8.84
11.01
13.24
15.47
17.56
19.29
20.52
21.17
21.33
21.13
20.76
20.34
19.97
19.73
19.68
19.80
19.96
19.94
19.45
18.29
16.37
13.77
10.70
7.45
4.33
1.56
-0.67
-2.29
-3.29
-3.77
-3.85
-3.64
-3.24
-2.69
-2.06
-1.42
-0.83
-0.23
0.46
1.40
2.63
4.02
5.31
6.19
6.48
6.18
5.49
4.70
3.99
3.41
2.89
2.27
1.51
0.66
-0.15
-0.80
-1.24
-1.52
-1.76
-2.13
-2.70
-3.50
-4.48
-5.51
-6.46
-7.16
-7.48
-7.35
-6.78
-5.82
-4.59
-3.19
-1.72
-0.27
1.05
2.11
2.83
3.16
3.17
3.00
2.85
2.80
2.88
3.01
3.11
3.13
3.06
2.95
2.80
2.62
2.43
2.31
2.35
2.59
2.96
3.18
2.93
1.93
0.12
-2.36
-5.14
-7.87
-10.32
-12.43
-14.31
-16.15
-18.10
-20.25
-22.49
-24.55
-26.02
-26.47
-25.59
-23.26
-19.66
-15.16
-10.20
-5.07
0.11
5.30
10.47
15.60
20.61
25.36
29.57
32.88
34.89
35.35
34.16
31.52
28.05
24.63
22.10
20.97
21.38
23.21
26.35
30.48
35.26
40.36
45.49
50.31
54.47
57.50
58.78
57.47
52.30
42.14
26.85
7.58
-13.54
-34.21
-52.75
-68.95
-81.23
-87.81
-87.78
-81.44
-70.18
-56.24
-42.26
-30.56
-22.42
-17.57
-15.15
-14.12
-13.53
-12.66
-10.90
-7.84
-3.33
2.34
8.56
14.17
17.98
19.17
17.44
12.85
5.78
-2.70
-11.58
-19.20
-23.98
-24.92
-21.97
-16.26
-9.80
-4.82
-3.08
-4.82
-8.78
-12.97
-15.70
-16.05
-14.11
-10.75
-7.15
-4.30
-2.72
-2.70
-4.32
-7.51
-11.50
-14.81
-15.66
-12.71
-6.15
3.02
12.75
20.86
25.98
28.26
28.99
29.76
31.52
34.06
36.33
36.96
35.11
30.76
24.85
18.73
13.58
9.93
7.67
6.25
4.90
3.58
2.01
-0.03
-2.74
-6.22
-10.55
-15.65
-21.25
-26.95
-32.15
-36.28
-38.90
-39.85
-39.37
-37.99
-36.30
-34.69
-33.17
-31.40
-28.83
-24.93
-19.37
-12.22
-3.84
5.26
14.64
23.95
32.84
40.80
47.17
51.23
52.46
50.71
46.30
39.87
32.07
23.37
14.04
4.41
-4.87
-12.83
-18.37
-20.77
-20.14
-17.54
-14.71
-13.42
-14.81
-18.94
-24.83
-30.98
-35.98
-38.99
-39.79
-38.59
-35.63
-31.04
-24.97
-17.83
-10.55
-4.54
-1.19
-1.28
-4.43
-9.15
-13.27
-14.88
-13.06
-8.30
-2.09
3.77
7.98
10.22
10.97
10.94
10.45
9.22
6.68
2.58
-2.47
-7.05
-9.41
-8.31
-3.55
3.88
12.33
20.16
26.31
30.48
32.92
34.13
34.50
34.32
33.82
33.26
32.93
33.00
33.38
33.65
33.28
31.75
28.79
24.50
19.22
13.49
7.79
2.51
-2.16
-6.21
-9.77
-13.08
-16.38
-19.88
-23.67
-27.79
-32.18
-36.77
-41.44
-46.04
-50.39
-54.32
-57.70
-60.49
-62.73
-64.49
-65.81
-66.69
-67.10
-67.07
-66.62
-65.78
-64.48
-62.54
-59.80
-56.19
-51.85
-47.14
-42.47
-38.17
-34.29
-30.67
-26.97
-22.83
-18.00
-12.36
-5.93
1.10
8.36
15.41
21.70
26.80
30.46
32.69
33.72
33.92
33.66
33.18
32.61
31.96
31.23
30.44
29.67
28.98
28.41
27.96
27.53
27.01
26.30
25.31
24.05
22.55
20.93
19.34
17.98
16.99
16.46
16.30
16.31
16.22
15.77
14.91
13.75
12.54
11.56
11.00
10.88
11.12
11.60
12.14
12.63
12.94
12.94
12.58
11.94
11.19
10.57
10.28
10.40
10.86
11.53
12.24
12.87
13.35
13.65
13.79
13.80
13.74
13.74
13.92
14.35
14.99
15.72
16.41
17.02
17.56
18.16
18.92
19.93
21.09
22.16
22.98
23.52
23.97
24.50
25.16
25.84
26.31
26.22
25.28
23.48
21.26
19.39
18.61
19.42
21.97
26.01
30.62
34.39
35.88
34.08
28.82
20.62
10.73
0.98
-6.75
-11.32
-12.80
-12.24
-11.26
-11.32
-13.64
-18.50
-25.81
-33.48
-38.39
-38.43
-33.81
-27.27
-20.65
-15.31
-11.84
-10.06
-9.06
-7.76
-5.05
-0.01
7.44
16.44
24.53
29.18
28.76
22.92
12.23
-2.38
-19.06
-34.70
-46.55
-54.50
-59.43
-61.70
-60.97
-56.96
-50.02
-41.09
-33.25
-26.39
-20.60
-15.65
-11.23
-7.30
-4.27
-2.73
-3.15
-5.76
-9.03
-12.21
-14.51
-15.23
-14.10
-11.32
-7.50
-3.39
0.26
2.99
4.12
3.50
1.40
-1.71
-5.38
-9.26
-13.07
-16.59
-19.51
-21.92
-23.82
-25.18
-26.06
-26.57
-26.87
-27.11
-27.34
-27.42
-27.25
-26.64
-25.43
-23.58
-21.23
-18.58
-15.78
-12.88
-9.81
-6.61
-3.43
-0.49
1.96
3.77
4.96
5.66
6.06
6.27
6.30
6.17
5.86
5.47
5.10
4.86
4.75
4.73
4.66
4.43
4.01
3.38
2.61
1.76
0.88
-0.04
-1.04
-2.15
-3.42
-4.85
-6.43
-8.11
-9.79
-11.34
-12.59
-13.32
-13.40
-12.79
-11.55
-9.89
-7.98
-5.99
-3.98
-1.98
-0.02
1.80
3.36
4.52
5.24
5.63
5.86
6.14
6.58
7.22
7.99
8.79
9.52
10.06
10.38
10.45
10.33
10.10
9.85
9.61
9.37
9.06
8.64
8.11
7.47
6.76
5.94
4.94
3.71
2.20
0.45
-1.47
-3.44
-5.33
-6.95
-8.13
-8.75
-8.70
-8.00
-6.72
-4.98
-2.91
-0.62
1.79
4.23
6.59
8.77
10.67
12.23
13.39
14.19
14.70
15.07
15.49
16.07
16.83
17.65
18.31
18.60
18.38
17.66
16.54
15.17
13.67
12.12
10.53
8.92
7.37
5.95
4.76
3.80
3.00
2.17
1.17
-0.12
-1.71
-3.52
-5.38
-7.09
-8.44
-9.25
-9.35
-8.68
-7.27
-5.28
-2.93
-0.46
1.95
4.18
6.16
7.81
9.12
10.08
10.74
11.14
11.37
11.50
11.59
11.69
11.83
12.04
12.28
12.49
12.57
12.41
11.99
11.34
10.61
9.94
9.43
9.04
8.66
8.13
7.39
6.47
5.50
4.61
3.81
3.06
2.23
1.18
-0.14
-1.73
-3.47
-5.21
-6.72
-7.74
-8.03
-7.45
-6.04
-3.96
-1.52
0.92
2.96
4.26
4.68
4.32
3.54
2.81
2.60
3.12
4.30
5.86
7.44
8.87
10.15
11.37
12.55
13.55
14.07
13.87
12.91
11.43
9.88
8.69
8.07
7.94
7.96
7.71
6.97
5.74
4.28
2.92
1.85
1.05
0.34
-0.53
-1.71
-3.15
-4.71
-6.15
-7.29
-7.97
-8.11
-7.66
-6.62
-5.08
-3.16
-1.04
1.13
3.23
5.18
6.90
8.32
9.39
10.11
10.60
10.96
11.32
11.73
12.18
12.61
12.96
13.16
13.18
12.95
12.42
11.56
10.39
8.94
7.28
5.43
3.44
1.36
-0.73
-2.73
-4.62
-6.47
-8.45
-10.69
-13.25
-15.98
-18.66
-21.10
-23.32
-25.59
-28.27
-31.62
-35.53
-39.53
-42.85
-44.72
-44.58
-42.15
-37.36
-30.32
-21.42
-11.34
-1.15
7.93
14.87
19.37
21.92
23.73
26.09
29.86
35.11
41.11
46.73
50.87
52.85
52.54
50.26
46.65
42.37
37.98
33.79
29.94
26.47
23.53
21.32
20.05
19.74
20.02
20.24
19.61
17.56
13.97
9.23
4.01
-0.97
-5.28
-8.84
-11.83
-14.59
-17.38
-20.26
-23.16
-25.91
-28.37
-30.46
-32.21
-33.66
-34.80
-35.52
-35.65
-35.08
-33.83
-32.11
-30.27
-28.67
-27.48
-26.64
-25.90
-24.99
-23.77
-22.32
-20.95
-19.98
-19.61
-19.82
-20.43
-21.19
-21.89
-22.37
-22.56
-22.37
-21.74
-20.66
-19.18
-17.48
-15.75
-14.08
-12.40
-10.45
-7.89
-4.40
0.08
5.40
11.16
16.91
22.25
26.97
31.04
34.59
37.79
40.78
43.61
46.28
48.71
50.79
52.50
53.84
54.88
55.66
56.11
56.04
55.22
53.48
50.85
47.59
44.09
40.77
37.89
35.50
33.46
31.59
29.69
27.71
25.65
23.55
21.40
19.10
16.45
13.27
9.46
5.14
0.62
-3.66
-7.34
-10.25
-12.45
-14.16
-15.65
-17.10
-18.54
-19.91
-21.10
-22.01
-22.64
-23.00
-23.11
-22.99
-22.66
-22.17
-21.64
-21.22
-21.01
-21.00
-21.04
-20.83
-20.02
-18.37
-15.94
-13.07
-10.37
-8.49
-7.94
-8.89
-11.04
-13.78
-16.32
-17.94
-18.11
-16.56
-13.26
-8.40
-2.37
4.25
10.73
16.31
20.30
22.27
22.14
20.12
16.65
12.32
7.78
3.70
0.63
-1.07
-1.37
-0.54
0.94
2.57
3.98
4.99
5.52
5.57
5.15
4.32
3.16
1.89
0.68
-0.37
-1.26
-2.07
-2.87
-3.68
-4.42
-5.04
-5.52
-5.86
-6.03
-5.90
-5.27
-4.03
-2.26
-0.31
1.30
2.10
1.96
1.22
0.58
0.79
2.25
4.77
7.64
9.97
11.20
11.49
11.72
13.00
16.18
21.19
27.04
32.16
35.15
35.38
33.37
30.48
28.45
28.74
32.18
38.76
47.59
56.62
62.72
61.97
51.12
29.37
-0.39
-31.70
-56.49
-68.06
-63.78
-46.00
-20.84
4.71
25.60
39.86
48.15
52.09
52.81
50.59
45.48
38.02
30.02
24.16
22.89
27.25
36.24
47.14
56.50
61.35
59.49
50.49
35.58
16.78
-4.14
-26.02
-48.01
-69.16
-88.10
-104.49
-117.87
-127.79
-134.34
-138.63
-142.76
-148.85
-158.21
-170.87
-187.39
-206.53
-225.16
-239.46
-246.74
-246.61
-240.57
-230.91
-219.73
-210.61
-204.89
-201.16
-196.47
-188.44
-176.57
-162.00
-146.48
-116.18
-66.84
-5.36
54.33
101.45
133.07
151.67
161.72
167.65
172.82
176.51
177.56
176.03
172.87
169.07
164.93
160.25
154.77
148.33
139.08
126.32
111.08
95.20
81.09
70.15
62.37
56.90
52.62
47.50
40.59
32.18
23.48
15.60
9.92
6.74
5.32
4.36
2.31
-1.33
-6.13
-11.11
-15.23
-18.00
-19.54
-20.09
-19.86
-19.81
-19.59
-19.04
-18.33
-17.81
-18.07
-19.61
-22.38
-25.75
-28.64
-30.07
-29.83
-28.47
-26.07
-23.32
-21.05
-19.81
-19.54
-19.46
-18.33
-15.04
-8.85
0.38
12.17
25.18
37.73
48.46
56.95
63.64
69.23
74.37
79.23
83.75
87.20
88.50
86.64
81.21
72.32
60.39
46.28
29.34
11.70
-3.39
-13.84
-20.47
-25.31
-29.76
-34.68
-39.71
-44.58
-48.71
-51.90
-54.22
-55.72
-56.16
-55.27
-53.06
-49.78
-45.87
-41.44
-36.72
-32.00
-27.51
-23.22
-18.96
-14.65
-10.20
-5.69
-1.06
3.41
7.27
10.08
11.75
12.47
12.49
12.07
11.26
10.07
8.43
6.22
3.47
0.33
-2.99
-6.32
-9.40
-11.83
-12.92
-11.88
-8.05
-1.19
8.37
19.75
31.73
43.08
52.78
60.22
65.17
67.74
68.34
67.55
65.90
63.58
60.35
55.53
48.41
38.60
26.42
12.90
-0.54
-12.60
-22.53
-30.27
-36.23
-40.92
-44.69
-47.68
-49.90
-51.35
-52.08
-52.22
-51.82
-50.81
-49.06
-46.61
-43.78
-41.14
-39.14
-37.95
-37.40
-37.05
-36.11
-33.78
-29.58
-23.56
-16.38
-8.80
-1.60
4.43
8.80
11.63
13.49
14.94
16.17
16.73
16.34
14.97
12.70
9.95
7.64
6.96
8.81
13.40
20.10
28.28
37.33
46.32
52.51
53.43
48.82
41.24
36.07
34.44
35.69
38.78
41.39
41.82
39.42
34.59
28.05
20.11
10.34
-2.29
-17.02
-31.99
-44.89
-54.97
-62.09
-66.66
-69.89
-72.40
-74.87
-77.51
-80.26
-82.75
-84.45
-84.71
-83.30
-80.56
-77.18
-73.66
-69.97
-65.89
-61.01
-55.02
-47.69
-39.12
-29.68
-19.63
-9.05
2.30
14.68
28.17
42.54
57.29
71.58
84.39
95.12
103.16
108.05
109.61
108.06
104.02
98.49
92.53
86.99
82.93
80.55
79.39
78.77
78.14
77.28
76.22
74.95
73.47
72.45
71.97
71.41
69.71
65.71
58.66
48.47
35.77
17.89
-3.89
-25.88
-44.48
-58.34
-68.10
-75.42
-80.82
-84.35
-86.19
-85.48
-82.58
-78.60
-74.66
-71.22
-68.17
-64.98
-61.36
-57.18
-52.00
-45.94
-39.51
-33.33
-27.85
-23.22
-19.28
-15.87
-12.71
-9.21
-5.16
-0.65
3.96
8.31
12.02
14.68
15.83
15.15
12.84
9.42
5.79
3.01
1.99
3.11
6.04
9.78
13.08
14.87
14.62
12.41
8.85
4.83
1.06
-2.06
-4.57
-6.74
-8.76
-10.57
-11.79
-11.98
-10.84
-8.47
-5.27
-1.75
1.74
5.14
8.62
12.38
16.43
20.59
24.48
27.74
30.08
31.34
31.53
30.68
28.91
26.29
22.93
18.92
14.37
9.40
4.12
-1.40
-7.17
-13.21
-19.48
-25.71
-31.42
-36.02
-38.94
-39.94
-39.16
-37.12
-34.53
-32.04
-30.07
-28.74
-27.94
-27.38
-26.78
-25.88
-24.48
-22.36
-19.22
-14.71
-8.51
-0.61
8.49
17.73
25.62
30.60
31.56
28.27
21.61
13.48
6.26
1.94
1.38
3.90
7.59
10.16
10.14
7.61
4.17
2.24
3.92
10.11
20.24
32.61
44.87
54.62
59.81
59.10
52.29
40.62
26.70
13.82
4.79
0.88
1.26
3.54
4.83
3.12
-2.09
-9.83
-18.50
-26.68
-33.78
-39.95
-45.73
-51.50
-57.23
-62.46
-66.54
-68.93
-69.32
-67.83
-64.91
-61.30
-57.83
-55.16
-53.54
-52.67
-51.63
-49.15
-43.90
-35.05
-22.57
-7.52
8.23
22.42
33.02
38.77
39.41
35.55
28.29
19.00
9.09
0.03
-6.81
-10.42
-10.45
-7.37
-2.26
3.65
9.56
15.34
21.35
28.08
35.62
43.62
51.37
58.13
63.28
66.25
66.55
63.76
57.88
49.53
40.00
30.78
23.02
17.11
12.60
8.71
4.96
1.61
-0.39
-0.02
3.21
8.81
15.48
21.63
26.14
28.74
29.89
30.33
30.45
29.95
28.01
23.76
16.84
7.63
-2.82
-13.24
-22.53
-29.95
-35.04
-37.45
-36.79
-32.65
-24.76
-13.13
1.82
19.27
38.08
56.97
74.67
90.14
102.77
112.42
119.39
124.34
128.17
131.73
135.48
138.92
140.13
135.72
121.70
95.11
55.84
7.66
-42.33
-85.72
-115.61
-128.76
-126.30
-112.68
-93.60
-73.94
-56.57
-42.40
-31.30
-23.06
-17.94
-16.60
-19.59
-26.93
-37.94
-51.36
-65.72
-79.67
-92.28
-103.23
-112.63
-120.91
-128.46
-135.16
-140.13
-141.79
-138.47
-129.36
-115.12
-97.97
-80.91
-66.38
-55.33
-47.01
-39.68
-31.70
-22.41
-12.08
-1.36
9.20
19.06
27.08
31.40
30.03
22.42
10.53
-1.15
-7.36
-4.54
7.37
24.94
43.03
57.41
66.40
71.01
73.47
75.58
77.78
79.46
79.91
79.13
77.86
77.01
76.99
77.42
77.30
75.39
70.94
63.90
55.07
45.69
37.02
29.85
24.26
19.58
14.71
8.59
0.66
-8.83
-18.83
-27.95
-34.99
-39.44
-41.73
-42.90
-44.17
-46.39
-49.71
-53.61
-57.10
-59.10
-58.76
-55.75
-50.21
-42.70
-34.02
-24.97
-16.17
-7.96
-0.47
6.36
12.57
18.26
23.51
28.46
33.24
37.97
42.64
47.14
51.29
54.84
57.52
59.00
58.90
56.89
52.81
46.83
39.39
31.17
22.79
14.66
6.86
-0.88
-9.02
-17.97
-27.87
-38.46
-49.06
-58.77
-66.71
-72.24
-75.07
-75.30
-73.33
-69.77
-65.27
-60.48
-55.87
-51.67
-47.75
-43.74
-39.13
-33.56
-26.94
-19.57
-12.01
-4.86
1.42
6.61
10.65
13.64
15.68
16.90
17.38
17.27
16.72
15.89
14.85
13.60
12.15
10.54
8.99
7.94
7.93
9.42
12.46
16.57
20.74
23.81
24.96
24.02
21.53
18.39
15.51
13.52
12.69
13.13
14.86
17.79
21.53
25.28
27.87
28.22
25.73
20.65
14.05
7.34
1.78
-1.92
-3.73
-4.21
-4.14
-4.29
-5.10
-6.60
-8.40
-9.86
-10.22
-8.98
-6.05
-1.96
2.21
5.11
5.47
2.55
-3.59
-11.92
-20.63
-27.60
-31.07
-30.23
-25.57
-18.73
-11.88
-6.89
-4.74
-5.17
-7.01
-8.76
-9.20
-7.77
-4.56
-0.16
4.80
9.83
14.78
19.79
25.19
31.22
37.83
44.52
50.29
53.82
53.72
48.99
39.38
25.71
9.81
-5.71
-18.17
-25.54
-27.15
-23.86
-17.73
-11.21
-6.33
-4.08
-4.46
-6.79
-10.36
-14.59
-19.18
-23.78
-27.88
-30.87
-32.32
-32.26
-31.26
-30.15
-29.50
-29.22
-28.51
-26.12
-20.92
-12.42
-1.14
11.49
23.46
32.64
37.37
36.76
30.91
21.05
9.30
-1.66
-9.28
-11.91
-9.33
-2.89
4.93
11.39
14.43
13.22
8.29
1.03
-6.86
-13.96
-19.35
-22.73
-24.23
-24.31
-23.55
-22.40
-21.06
-19.32
-16.70
-12.81
-7.62
-1.74
3.70
7.38
8.25
5.97
1.05
-5.15
-10.78
-13.94
-13.24
-8.27
0.15
10.13
19.29
25.49
27.44
24.98
18.87
10.34
0.63
-9.21
-18.31
-25.78
-30.73
-32.56
-31.27
-27.66
-23.11
-19.10
-16.49
-15.12
-13.92
-11.37
-6.18
2.13
13.12
25.60
37.97
48.57
55.82
58.50
56.11
49.25
39.82
30.62
24.53
23.39
27.28
34.51
42.34
48.22
50.67
49.63
46.09
41.26
36.00
30.58
24.87
18.75
12.35
6.08
0.44
-4.23
-7.89
-10.82
-13.41
-16.03
-18.83
-21.88
-25.16
-28.76
-32.78
-37.26
-41.85
-45.82
-48.11
-47.80
-44.57
-38.94
-32.25
-26.14
-21.93
-20.17
-20.48
-21.82
-22.97
-22.90
-21.06
-17.40
-12.22
-5.98
0.82
7.68
14.08
19.40
23.05
24.71
24.46
22.90
20.84
18.85
16.81
13.80
8.52
0.02
-11.63
-25.14
-38.38
-49.20
-56.25
-59.34
-59.30
-57.49
-55.23
-53.45
-52.57
-52.58
-53.08
-53.31
-52.26
-48.80
-41.97
-31.33
-17.21
-0.65
16.88
33.95
49.51
63.00
74.09
82.39
87.27
87.97
84.07
75.77
64.03
50.35
36.34
23.43
12.82
5.53
2.38
3.73
9.09
16.85
24.47
29.20
28.97
22.94
11.68
-3.30
-20.07
-36.87
-52.18
-64.72
-73.34
-77.04
-75.33
-68.57
-58.20
-46.73
-37.26
-32.58
-34.30
-42.04
-53.36
-64.42
-71.25
-71.16
-63.63
-50.30
-34.14
-18.29
-5.01
4.73
11.12
14.99
17.20
18.42
19.10
19.71
20.80
22.94
26.63
31.95
38.35
44.70
49.52
51.61
50.72
47.64
44.07
42.08
43.27
48.09
55.68
64.27
71.91
77.38
80.03
79.85
77.43
73.68
69.65
66.33
64.51
64.62
66.97
70.86
75.03
78.39
80.50
81.52
81.90
81.80
80.81
78.36
73.01
63.25
48.54
29.77
8.98
-11.06
-27.79
-42.56
-54.32
-62.26
-67.16
-71.01
-75.47
-81.03
-86.81
-92.51
-97.89
-102.04
-104.64
-105.79
-105.74
-103.92
-100.33
-95.45
-90.15
-85.17
-80.09
-74.57
-68.62
-62.43
-56.18
-50.05
-44.16
-38.68
-33.71
-28.15
-21.22
-12.85
-3.64
5.76
14.84
23.42
31.42
38.83
47.01
57.01
68.97
82.15
95.62
108.84
121.72
134.35
139.28
131.64
111.80
85.42
59.06
36.74
19.49
6.63
-3.20
-11.38
-17.73
-21.73
-23.27
-23.03
-21.98
-21.01
-20.84
-22.01
-24.76
-27.97
-30.30
-30.56
-29.21
-27.14
-25.41
-24.83
-25.76
-27.98
-30.20
-31.10
-30.14
-27.86
-25.37
-23.78
-23.83
-25.68
-29.05
-33.09
-36.90
-39.84
-41.54
-41.82
-40.45
-37.39
-32.99
-27.87
-22.60
-17.58
-12.98
-8.89
-5.37
-2.51
-0.46
0.66
0.85
0.27
-0.87
-2.27
-3.55
-4.27
-3.91
-2.04
1.63
7.06
13.90
21.47
28.76
34.68
38.23
38.74
36.13
30.96
24.36
17.68
12.10
8.26
6.14
5.31
5.15
5.24
5.43
5.86
6.73
8.15
10.03
12.16
14.30
16.30
18.08
19.58
20.73
21.43
21.68
21.59
21.36
21.21
21.24
21.38
21.40
21.10
20.35
19.24
17.96
16.74
15.75
15.00
14.40
13.78
12.94
11.75
10.11
8.06
5.74
3.44
1.44
0.01
-0.70
-0.72
-0.25
0.45
1.06
1.36
1.22
0.62
-0.37
-1.65
-3.11
-4.65
-6.14
-7.45
-8.44
-9.06
-9.31
-9.27
-9.06
-8.76
-8.34
-7.75
-6.89
-5.81
-4.68
-3.75
-3.25
-3.25
-3.61
-4.05
-4.33
-4.34
-4.18
-4.06
-4.14
-4.42
-4.81
-5.15
-5.39
-5.59
-5.88
-6.31
-6.82
-7.24
-7.35
-6.97
-6.04
-4.65
-3.03
-1.43
-0.09
0.90
1.65
2.39
3.40
4.86
6.72
8.73
10.54
11.88
12.62
12.83
12.67
12.32
11.85
11.27
10.52
9.58
8.48
7.31
6.18
5.12
4.10
2.99
1.66
0.07
-1.70
-3.42
-4.78
-5.54
-5.53
-4.79
-3.46
-1.80
-0.10
1.38
2.46
3.03
3.07
2.69
2.04
1.30
0.56
-0.17
-1.00
-2.02
-3.24
-4.55
-5.71
-6.53
-6.93
-7.00
-6.97
-7.09
-7.48
-8.12
-8.87
-9.54
-10.01
-10.29
-10.49
-10.73
-11.14
-11.80
-12.69
-13.74
-14.82
-15.73
-16.31
-16.42
-16.02
-15.15
-13.97
-12.63
-11.27
-9.93
-8.61
-7.27
-5.92
-4.63
-3.44
-2.39
-1.45
-0.61
0.14
0.74
1.10
1.15
0.94
0.60
0.30
0.16
0.22
0.40
0.59
0.65
0.49
0.05
-0.67
-1.65
-2.84
-4.12
-5.36
-6.40
-7.14
-7.59
-7.83
-8.01
-8.32
-8.90
-9.83
-11.09
-12.53
-13.91
-14.97
-15.52
-15.47
-14.85
-13.72
-12.18
-10.30
-8.15
-5.84
-3.54
-1.45
0.28
1.60
2.56
3.28
3.89
4.50
5.11
5.72
6.26
6.61
6.72
6.56
6.17
5.67
5.20
4.91
4.87
5.09
5.47
5.81
5.81
5.23
3.99
2.21
0.26
-1.46
-2.65
-3.30
-3.57
-3.76
-4.10
-4.66
-5.40
-6.31
-7.40
-8.67
-10.02
-11.16
-11.74
-11.46
-10.22
-8.22
-5.83
-3.47
-1.44
0.11
1.21
2.00
2.64
3.32
4.12
5.06
6.04
6.92
7.59
8.02
8.26
8.40
8.49
8.48
8.32
7.95
7.41
6.77
6.12
5.47
4.78
4.00
3.14
2.31
1.64
1.17
0.82
0.40
-0.27
-1.27
-2.50
-3.77
-4.91
-5.87
-6.76
-7.78
-9.06
-10.58
-12.12
-13.34
-13.93
-13.75
-12.83
-11.38
-9.65
-7.86
-6.18
-4.73
-3.58
-2.81
-2.44
-2.42
-2.59
-2.78
-2.88
-2.87
-2.84
-2.94
-3.31
-3.95
-4.81
-5.79
-6.78
-7.71
-8.56
-9.32
-9.99
-10.57
-11.07
-11.54
-12.02
-12.49
-12.88
-13.04
-12.84
-12.15
-10.93
-9.20
-7.08
-4.74
-2.34
-0.02
2.11
4.01
5.63
6.98
8.11
9.16
10.29
11.64
13.25
15.02
16.78
18.35
19.61
20.57
21.30
21.91
22.45
22.90
23.17
23.13
22.69
21.79
20.44
18.72
16.76
14.74
12.86
11.29
10.12
9.36
8.91
8.59
8.23
7.69
6.94
6.06
5.15
4.26
3.34
2.34
1.17
-0.08
-1.29
-2.29
-3.06
-3.70
-4.42
-5.38
-6.56
-7.82
-8.95
-9.81
-10.40
-10.81
-11.13
-11.33
-11.30
-10.88
-10.01
-8.77
-7.33
-5.87
-4.47
-3.14
-1.82
-0.47
0.88
2.11
3.11
3.75
3.99
3.91
3.70
3.59
3.79
4.34
5.12
5.91
6.50
6.78
6.74
6.49
6.15
5.78
5.40
4.99
4.59
4.26
3.96
3.58
3.03
2.25
1.31
0.38
-0.39
-0.79
-0.86
-0.90
-1.33
-2.35
-3.85
-5.43
-6.64
-7.15
-6.57
-4.98
-2.96
-1.28
-0.41
-0.25
-0.35
-0.11
0.84
2.93
5.99
9.05
10.95
11.02
9.50
7.19
5.13
4.24
5.71
10.13
17.01
24.98
32.30
37.22
38.16
34.12
22.41
4.48
-13.66
-25.28
-27.76
-23.29
-16.20
-10.02
-6.08
-4.12
-2.65
-0.68
1.60
3.13
2.28
-1.10
-6.28
-12.14
-17.59
-21.42
-22.98
-22.40
-20.19
-16.79
-12.27
-6.80
-0.86
4.85
9.88
13.84
16.31
17.01
15.90
13.38
9.95
6.15
2.57
-0.12
-1.41
-1.24
0.05
1.89
3.83
5.57
7.02
8.32
9.70
11.28
12.96
14.41
15.28
15.37
14.64
13.24
11.49
9.78
8.50
7.92
8.09
8.90
10.10
11.38
12.49
13.24
13.53
13.34
12.71
11.77
10.75
9.86
9.31
9.19
9.43
9.89
10.47
11.13
11.93
12.91
14.01
15.05
15.75
15.89
15.38
14.28
12.76
10.98
9.01
6.84
4.33
1.39
-1.99
-5.72
-9.58
-13.35
-16.80
-19.80
-22.32
-24.45
-26.28
-27.90
-29.31
-30.40
-31.07
-31.17
-30.69
-29.69
-28.37
-26.97
-25.69
-24.71
-24.03
-23.60
-23.24
-22.79
-22.12
-21.19
-19.99
-18.56
-16.93
-15.07
-13.03
-10.86
-8.69
-6.65
-4.83
-3.25
-1.87
-0.64
0.46
1.39
2.08
2.53
2.78
2.94
3.13
3.40
3.72
4.01
4.17
4.15
3.98
3.74
3.52
3.36
3.21
2.99
2.60
2.03
1.35
0.68
0.14
-0.26
-0.61
-1.04
-1.67
-2.52
-3.51
-4.52
-5.44
-6.24
-6.93
-7.52
-7.96
-8.12
-7.85
-7.06
-5.77
-4.15
-2.41
-0.79
0.60
1.75
2.77
3.76
4.75
5.69
6.43
6.86
6.94
6.74
6.42
6.11
5.85
5.61
5.33
4.93
4.43
3.90
3.41
2.98
2.58
2.12
1.54
0.83
0.02
-0.85
-1.74
-2.60
-3.42
-4.18
-4.89
-5.59
-6.27
-6.97
-7.68
-8.43
-9.21
-10.02
-10.79
-11.41
-11.72
-11.61
-11.08
-10.23
-9.28
-8.42
-7.77
-7.32
-6.98
-6.70
-6.51
-6.51
-6.81
-7.46
-8.37
-9.39
-10.34
-11.06
-11.49
-11.59
-11.46
-11.24
-11.11
-11.20
-11.46
-11.63
-11.28
-10.00
-7.57
-4.12
-0.12
3.82
7.15
9.57
11.09
11.97
12.53
13.05
13.67
14.26
14.51
14.02
12.51
9.94
6.65
3.26
0.48
-1.05
-1.04
0.40
2.75
5.15
6.56
6.03
2.98
-2.42
-9.23
-15.87
-20.61
-22.14
-20.08
-15.01
-8.30
-1.47
4.23
8.24
10.65
12.01
12.94
13.97
15.33
17.08
19.19
21.64
24.35
27.13
29.57
31.15
31.37
30.01
27.24
23.64
19.95
16.93
15.07
14.62
15.52
17.56
20.40
23.72
27.23
30.68
33.92
36.84
39.37
41.56
43.55
45.58
47.97
50.94
54.52
58.50
62.52
66.24
69.52
72.46
75.27
77.99
80.47
82.38
83.64
84.69
86.37
89.48
94.00
98.78
101.82
101.13
95.66
85.70
72.50
57.43
41.36
24.63
7.66
-8.48
-22.09
-31.44
-35.81
-36.02
-34.18
-32.66
-33.02
-35.43
-38.86
-41.92
-43.66
-43.96
-43.48
-43.14
-43.68
-45.36
-48.01
-51.21
-54.53
-57.70
-60.69
-63.56
-66.33
-68.86
-70.79
-71.66
-71.21
-69.56
-67.26
-65.12
-63.76
-63.40
-63.74
-64.17
-64.11
-63.31
-61.81
-59.81
-57.46
-54.78
-51.80
-48.67
-45.78
-43.49
-42.04
-41.31
-40.92
-40.36
-39.24
-37.38
-34.78
-31.57
-27.85
-23.74
-19.39
-14.99
-10.84
-7.23
-4.41
-2.50
-1.52
-1.35
-1.79
-2.63
-3.60
-4.46
-4.95
-4.88
-4.12
-2.63
-0.54
1.92
4.42
6.68
8.52
9.94
11.08
12.14
13.27
14.49
15.72
16.79
17.56
17.92
17.88
17.53
17.00
16.46
15.96
15.50
14.90
13.98
12.52
10.44
7.79
4.76
1.63
-1.29
-3.65
-5.25
-6.05
-6.28
-6.42
-7.09
-8.86
-12.00
-16.42
-21.69
-27.17
-32.30
-36.67
-40.13
-42.66
-44.30
-45.01
-44.74
-43.42
-41.10
-37.95
-34.28
-30.48
-26.85
-23.64
-20.92
-18.72
-16.96
-15.57
-14.46
-13.50
-12.58
-11.50
-10.15
-8.34
-6.03
-3.20
0.04
3.56
7.23
10.94
14.68
18.38
21.98
25.33
28.27
30.60
32.18
32.89
32.61
31.31
29.05
26.02
22.52
18.87
15.31
11.94
8.74
5.66
2.69
-0.13
-2.68
-4.90
-6.79
-8.41
-9.85
-11.20
-12.53
-13.88
-15.25
-16.58
-17.76
-18.65
-19.13
-19.18
-18.89
-18.39
-17.79
-17.15
-16.41
-15.48
-14.25
-12.70
-10.97
-9.26
-7.88
-7.06
-6.99
-7.66
-8.97
-10.49
-11.73
-12.15
-11.28
-8.88
-4.95
0.20
6.15
12.33
18.51
24.41
29.76
34.26
37.62
39.58
39.98
38.69
35.29
29.86
22.16
12.13
0.19
-12.70
-25.24
-36.29
-45.41
-53.48
-61.02
-69.04
-77.80
-86.42
-93.18
-96.16
-94.01
-86.41
-74.60
-59.06
-41.14
-22.05
-2.87
15.36
31.61
45.09
59.27
69.46
77.53
84.62
91.44
98.07
104.00
108.52
111.19
112.00
110.76
108.65
105.94
102.48
97.84
91.44
82.93
72.27
59.82
45.77
31.45
17.71
5.31
-5.19
-13.62
-20.17
-25.31
-29.56
-33.58
-37.16
-40.30
-43.06
-45.57
-48.02
-50.41
-52.40
-53.36
-52.74
-49.96
-45.13
-38.86
-32.02
-25.43
-19.65
-14.88
-11.02
-7.89
-5.14
-2.59
-0.12
2.29
4.64
6.98
9.41
12.05
14.97
18.06
21.02
23.43
24.88
25.05
23.83
21.24
17.42
12.64
7.34
2.16
-2.20
-5.15
-6.45
-6.40
-5.72
-5.23
-5.54
-6.74
-8.52
-10.35
-11.79
-12.67
-13.00
-12.83
-12.17
-10.92
-9.10
-6.93
-4.85
-3.34
-2.73
-2.98
-3.76
-4.53
-4.88
-4.63
-3.91
-3.07
-2.49
-2.37
-2.69
-3.24
-3.75
-4.02
-3.99
-3.75
-3.42
-3.12
-2.86
-2.56
-2.16
-1.67
-1.15
-0.69
-0.35
-0.06
0.30
0.90
1.86
3.17
4.74
6.44
8.21
10.10
12.22
14.73
17.69
21.08
24.83
28.86
33.08
37.30
41.19
44.20
45.75
45.36
42.91
38.69
33.23
27.15
20.86
14.67
8.78
3.44
-1.10
-4.73
-7.68
-10.44
-13.62
-17.60
-22.32
-27.30
-31.84
-35.30
-37.30
-37.72
-36.69
-34.43
-31.30
-27.69
-24.00
-20.62
-17.78
-15.63
-14.18
-13.33
-12.89
-12.55
-11.93
-10.72
-8.75
-6.19
-3.45
-1.07
0.57
1.38
1.65
1.82
2.33
3.35
4.74
6.20
7.41
8.21
8.69
9.10
9.68
10.51
11.53
12.55
13.45
14.20
14.87
15.56
16.28
16.93
17.34
17.40
17.07
16.42
15.58
14.64
13.61
12.38
10.81
8.80
6.37
3.68
1.02
-1.31
-3.04
-4.03
-4.25
-3.89
-3.24
-2.74
-2.84
-3.90
-6.09
-9.32
-13.21
-17.22
-20.83
-23.69
-25.66
-26.73
-26.96
-26.37
-24.97
-22.76
-19.85
-16.40
-12.66
-8.84
-5.17
-1.87
0.82
2.70
3.66
3.76
3.31
2.69
2.29
2.32
2.75
3.45
4.26
5.15
6.22
7.58
9.24
11.06
12.72
13.83
14.01
13.08
11.12
8.48
5.68
3.18
1.28
-0.01
-0.91
-1.63
-2.29
-2.70
-2.49
-1.34
0.90
4.09
7.90
11.92
15.87
19.59
23.18
26.69
29.93
32.45
33.74
33.49
31.56
28.21
23.75
18.84
14.05
9.58
5.35
1.09
-3.36
-8.37
-13.97
-20.26
-26.54
-31.99
-36.01
-38.40
-39.33
-38.91
-37.53
-34.88
-30.71
-24.04
-14.11
-1.00
14.51
31.24
48.39
65.23
82.17
93.22
93.38
81.28
60.59
37.19
15.20
-0.15
-10.83
-18.41
-23.67
-25.78
-23.50
-17.97
-10.26
-1.96
5.62
10.98
13.93
14.56
13.88
12.99
12.57
12.89
13.57
14.12
13.69
12.20
9.69
6.77
4.18
2.32
1.34
0.88
0.47
-0.56
-2.29
-4.64
-7.15
-9.25
-10.58
-10.97
-10.63
-9.94
-9.43
-9.28
-9.50
-9.82
-9.90
-9.50
-8.54
-7.14
-5.44
-3.52
-1.31
1.31
4.41
7.92
11.70
15.50
19.04
22.06
24.34
25.74
26.19
25.83
24.92
23.90
23.13
22.97
23.60
25.00
26.86
28.67
29.91
30.12
29.08
26.51
22.31
16.69
10.12
3.20
-3.38
-8.82
-12.66
-14.76
-16.00
-17.41
-19.50
-22.21
-24.92
-26.98
-27.59
-26.68
-24.44
-22.19
-20.91
-20.65
-20.73
-20.29
-19.00
-16.67
-14.23
-12.71
-14.17
-19.77
-28.99
-40.24
-51.71
-62.60
-72.76
-83.74
-88.15
-81.12
-62.82
-38.32
-13.63
7.85
20.97
28.31
32.05
33.79
33.02
28.49
22.17
15.02
8.01
1.88
-2.02
-3.21
-1.28
2.98
8.60
14.85
20.93
26.16
29.81
31.78
31.76
29.96
26.38
21.34
15.49
9.42
3.65
-1.54
-5.80
-9.26
-12.09
-14.79
-17.89
-21.65
-26.20
-31.28
-36.34
-40.59
-43.57
-45.06
-45.24
-44.47
-43.03
-41.07
-38.50
-35.16
-30.91
-25.87
-20.34
-14.75
-9.50
-4.92
-1.18
1.68
3.72
5.01
5.57
5.45
4.71
3.55
2.28
1.24
0.65
0.59
0.94
1.54
2.21
2.87
3.51
4.12
4.63
4.95
5.02
4.86
4.61
4.46
4.57
5.09
6.08
7.57
9.49
11.71
14.02
16.14
17.88
19.13
19.97
20.58
21.23
22.12
23.36
24.94
26.69
28.32
29.44
29.63
28.52
25.86
21.62
16.08
9.72
3.22
-2.82
-7.99
-12.21
-15.70
-18.76
-21.65
-24.42
-26.90
-28.90
-30.33
-31.27
-31.86
-32.19
-32.19
-31.67
-30.44
-28.43
-25.79
-22.84
-19.94
-17.34
-15.09
-13.14
-11.33
-9.61
-8.02
-6.70
-5.86
-5.68
-6.23
-7.39
-8.86
-10.15
-10.71
-10.05
-7.89
-4.30
0.35
5.43
10.23
14.17
16.90
18.36
18.73
18.35
17.59
16.77
16.05
15.52
15.14
14.86
14.65
14.46
14.30
14.14
14.00
13.92
13.96
14.22
14.78
15.67
16.89
18.32
19.78
21.03
21.84
22.07
21.65
20.64
19.20
17.48
15.58
13.44
10.84
7.53
3.32
-1.74
-7.34
-12.93
-17.93
-21.91
-24.73
-26.57
-27.81
-28.79
-29.64
-30.19
-30.11
-29.04
-26.87
-23.68
-19.74
-15.36
-10.79
-6.20
-1.77
2.29
5.76
8.42
10.20
11.12
11.24
10.64
9.34
7.38
4.81
1.71
-1.85
-5.72
-9.66
-13.25
-15.98
-17.41
-17.40
-16.22
-14.38
-12.43
-10.72
-9.24
-7.82
-6.38
-5.08
-4.24
-4.17
-4.94
-6.24
-7.55
-8.39
-8.45
-7.74
-6.44
-4.76
-2.79
-0.43
2.55
6.37
11.11
16.62
22.58
28.48
33.80
38.03
40.80
41.86
41.17
38.89
35.35
30.97
26.17
21.23
16.26
11.25
6.18
1.06
-4.05
-9.03
-13.78
-18.27
-22.40
-26.08
-29.18
-31.52
-33.03
-33.66
-33.45
-32.46
-30.75
-28.42
-25.61
-22.55
-19.44
-16.43
-13.52
-10.55
-7.31
-3.66
0.36
4.54
8.59
12.29
15.54
18.40
20.94
23.12
24.84
25.87
26.02
25.22
23.57
21.27
18.61
15.84
13.07
10.32
7.48
4.40
0.99
-2.74
-6.62
-10.32
-13.46
-15.66
-16.68
-16.44
-15.07
-12.85
-10.14
-7.19
-4.14
-1.03
2.11
5.18
8.00
10.34
11.95
12.67
12.46
11.40
9.74
7.91
6.54
6.30
7.72
10.71
14.49
17.73
19.01
17.39
12.80
6.12
-1.01
-6.94
-10.74
-12.48
-12.95
-13.13
-13.67
-14.71
-15.93
-16.48
-15.63
-13.33
-10.23
-7.22
-4.87
-3.19
-1.77
-0.10
2.74
7.23
12.86
18.31
22.20
23.95
23.93
23.16
22.81
24.50
29.43
37.69
48.32
60.03
71.80
83.02
93.23
96.63
89.29
72.16
51.06
32.46
19.65
12.49
8.78
5.99
3.40
0.73
-1.39
-2.51
-2.85
-3.11
-3.79
-5.07
-6.87
-9.29
-11.71
-13.49
-14.62
-15.80
-17.89
-21.34
-25.92
-30.99
-35.72
-39.14
-40.53
-39.85
-37.72
-34.90
-31.87
-28.71
-25.32
-21.65
-17.67
-13.43
-9.20
-5.43
-2.60
-1.15
-1.33
-3.09
-5.96
-8.95
-10.89
-11.00
-9.30
-6.65
-4.35
-3.46
-4.28
-6.22
-8.12
-8.83
-7.76
-5.14
-1.76
1.31
3.18
3.34
1.71
-1.47
-5.73
-10.46
-15.04
-18.92
-21.76
-23.52
-24.39
-24.72
-24.79
-24.66
-24.14
-22.92
-20.88
-18.33
-16.00
-14.89
-15.81
-19.07
-24.27
-30.26
-35.37
-37.62
-35.29
-27.46
-14.69
0.59
14.30
21.72
19.13
5.42
-16.97
-42.55
-64.54
-77.24
-77.88
-67.32
-49.21
-28.34
-8.88
6.60
17.26
23.48
26.29
27.04
27.19
28.13
30.88
35.69
41.95
48.41
53.75
57.10
58.34
57.95
56.65
55.06
53.51
52.08
50.73
49.29
47.51
45.14
42.12
38.67
35.36
32.92
31.98
32.72
34.70
36.95
38.09
36.77
31.95
23.28
11.30
-2.62
-16.52
-28.39
-36.75
-41.04
-41.68
-39.80
-36.73
-33.55
-30.88
-28.96
-27.78
-27.30
-27.47
-28.14
-29.04
-29.71
-29.64
-28.41
-25.81
-21.84
-16.70
-10.77
-4.47
1.74
7.46
12.44
16.54
19.70
21.85
22.89
22.64
20.96
17.87
13.74
9.32
5.72
4.13
5.41
9.70
16.25
23.50
29.67
33.41
34.42
33.55
32.42
32.55
34.56
37.77
40.48
40.75
37.37
30.41
21.19
11.65
3.55
-2.11
-5.21
-6.19
-5.59
-3.79
-1.03
2.33
5.63
7.96
8.45
6.68
2.88
-2.18
-7.55
-12.49
-16.67
-20.05
-22.67
-24.49
-25.51
-25.95
-26.46
-27.92
-31.04
-35.82
-41.36
-46.14
-48.72
-48.36
-45.35
-40.73
-35.81
-31.54
-28.47
-26.73
-26.34
-27.30
-29.53
-32.63
-35.81
-38.00
-38.21
-35.88
-31.18
-24.98
-18.66
-13.66
-11.06
-11.19
-13.51
-16.69
-19.08
-19.19
-16.31
-10.70
-3.51
3.63
9.16
12.04
11.90
8.86
3.25
-4.67
-14.74
-26.67
-39.78
-52.93
-64.69
-73.69
-78.98
-80.03
-76.71
-69.05
-57.25
-41.80
-23.65
-4.11
15.32
33.37
49.15
62.05
71.40
76.25
75.57
68.86
56.83
41.72
26.95
16.06
11.54
14.00
22.11
33.19
44.38
53.48
59.50
62.47
62.99
61.73
59.20
55.85
52.12
48.53
45.46
42.93
40.43
37.10
32.08
24.99
16.22
6.89
-1.43
-7.27
-9.69
-8.63
-4.93
-0.09
4.10
6.03
4.71
0.01
-7.26
-15.63
-23.39
-29.16
-32.35
-33.15
-32.22
-30.42
-28.34
-26.28
-24.26
-22.23
-20.16
-18.17
-16.34
-14.54
-12.51
-9.99
-7.01
-3.86
-0.98
1.22
2.40
2.53
1.96
1.22
0.85
1.07
1.98
3.55
5.69
7.97
10.18
12.69
16.12
21.00
26.93
33.02
38.14
41.20
40.66
35.86
27.51
17.17
6.59
-3.64
-13.20
-21.80
-28.99
-35.66
-42.24
-47.93
-51.33
-51.40
-49.27
-46.66
-45.25
-46.31
-52.20
-64.01
-80.26
-97.78
-113.25
-125.63
-134.32
-138.50
-127.07
-95.98
-52.05
-7.99
23.81
44.90
57.58
64.00
65.78
64.51
60.03
52.55
44.29
38.76
39.26
46.17
58.75
75.64
94.94
113.11
123.71
122.68
110.72
92.33
71.14
49.51
29.34
12.77
1.16
-4.79
-5.37
-1.06
6.62
14.55
20.20
22.54
21.87
18.59
13.11
6.25
-0.83
-7.14
-12.59
-17.27
-21.33
-25.06
-28.99
-33.65
-38.89
-44.02
-48.32
-51.49
-53.47
-54.20
-53.74
-52.11
-49.31
-45.08
-39.11
-31.45
-22.58
-13.27
-4.40
3.17
8.74
11.90
12.89
12.62
12.41
13.46
16.23
20.10
23.23
23.34
18.73
9.24
-3.51
-16.84
-28.00
-35.24
-37.95
-36.86
-33.37
-28.99
-24.90
-21.91
-20.65
-21.43
-24.17
-27.78
-30.74
-31.47
-28.58
-21.27
-9.50
5.84
23.13
40.34
55.98
68.51
76.63
79.81
78.69
75.05
71.07
68.60
68.47
70.93
74.85
78.14
78.93
76.38
70.89
63.58
55.79
44.37
29.50
13.96
0.63
-9.87
-18.61
-26.85
-35.09
-42.95
-49.85
-54.67
-56.73
-56.27
-54.03
-50.73
-46.85
-42.73
-38.67
-34.46
-29.77
-24.57
-19.20
-14.04
-9.18
-4.55
-0.16
3.69
6.47
7.87
7.69
5.83
2.56
-1.55
-5.76
-9.49
-12.36
-14.22
-14.90
-14.53
-13.68
-13.30
-14.38
-17.53
-22.70
-29.10
-35.50
-40.73
-44.19
-46.03
-46.88
-47.36
-47.64
-47.42
-46.17
-43.57
-39.71
-35.15
-30.58
-26.37
-22.52
-18.62
-14.28
-9.44
-4.51
-0.20
2.84
4.32
4.43
3.60
2.28
0.67
-1.17
-3.23
-5.37
-7.30
-8.81
-9.94
-11.13
-12.94
-15.78
-19.48
-23.33
-26.29
-27.39
-26.19
-22.83
-17.89
-11.98
-5.51
1.37
8.65
16.32
24.09
31.45
37.79
42.63
45.73
47.02
46.55
44.46
41.05
36.64
31.48
25.73
19.46
12.85
6.12
-0.30
-6.00
-10.38
-13.14
-14.42
-14.63
-14.22
-13.43
-12.32
-10.90
-9.24
-6.81
-3.24
1.48
7.01
12.99
19.25
25.61
31.75
37.16
42.77
49.36
56.88
64.50
71.23
76.50
80.04
81.67
81.30
81.19
83.32
88.09
94.29
100.28
105.04
108.31
110.20
111.00
114.01
121.88
135.01
151.46
168.81
185.59
201.44
216.49
212.85
180.75
124.11
58.48
-1.46
-49.08
-84.10
-108.53
-124.39
-133.39
-134.26
-126.02
-110.75
-92.85
-76.83
-65.67
-60.37
-60.63
-65.78
-72.76
-78.89
-82.98
-86.17
-89.41
-92.89
-95.92
-95.99
-91.64
-82.36
-71.98
-62.39
-55.22
-50.70
-48.67
-48.25
-48.49
-49.06
-49.36
-48.84
-46.78
-43.07
-37.82
-31.37
-24.15
-16.80
-10.20
-4.73
-0.28
3.88
8.12
12.57
17.07
21.41
25.23
28.00
29.24
28.72
26.67
23.38
19.24
14.66
10.01
5.46
0.88
-4.01
-9.33
-14.76
-19.73
-23.51
-25.49
-25.49
-23.83
-21.29
-18.76
-16.92
-16.00
-15.86
-16.09
-16.27
-16.01
-15.09
-13.34
-10.67
-7.13
-2.92
1.51
5.53
8.49
9.94
9.78
8.25
5.88
3.30
1.10
-0.33
-0.80
-0.32
0.92
2.64
4.49
6.12
7.24
7.62
7.06
5.42
2.66
-1.09
-5.43
-9.78
-13.50
-16.14
-17.65
-18.41
-19.04
-20.18
-22.17
-24.93
-28.02
-30.79
-32.62
-33.07
-32.02
-29.57
-26.11
-22.02
-17.72
-13.47
-9.42
-5.60
-2.00
1.38
4.53
7.39
9.90
12.04
13.78
15.13
16.10
16.72
17.04
17.09
16.97
16.75
16.53
16.36
16.24
16.13
15.90
15.44
14.65
13.47
11.90
10.01
7.92
5.80
3.89
2.41
1.46
0.98
0.80
0.77
0.80
0.95
1.32
1.95
2.73
3.43
3.85
3.86
3.50
2.88
2.15
1.37
0.62
-0.06
-0.56
-0.77
-0.64
-0.19
0.45
1.18
1.86
2.42
2.78
2.85
2.56
1.86
0.83
-0.38
-1.61
-2.68
-3.57
-4.29
-4.97
-5.70
-6.49
-7.23
-7.73
-7.79
-7.27
-6.18
-4.67
-2.96
-1.27
0.24
1.50
2.54
3.39
4.10
4.65
5.06
5.32
5.48
5.59
5.69
5.78
5.84
5.90
6.00
6.20
6.51
6.87
7.11
7.06
6.64
5.90
5.02
4.16
3.42
2.75
2.03
1.13
0.03
-1.22
-2.51
-3.72
-4.77
-5.53
-5.88
-5.66
-4.81
-3.39
-1.58
0.28
1.91
3.11
3.87
4.31
4.60
4.90
5.24
5.57
5.77
5.74
5.50
5.16
4.88
4.78
4.88
5.06
5.15
4.99
4.53
3.82
3.01
2.23
1.60
1.14
0.80
0.48
0.08
-0.44
-1.13
-1.96
-2.94
-4.01
-5.08
-5.96
-6.40
-6.17
-5.16
-3.49
-1.47
0.48
2.02
3.01
3.52
3.78
3.98
4.23
4.48
4.65
4.70
4.67
4.70
4.83
5.07
5.26
5.30
5.12
4.76
4.35
3.99
3.69
3.36
2.95
2.39
1.74
1.08
0.49
-0.02
-0.51
-1.04
-1.70
-2.56
-3.64
-4.89
-6.10
-7.00
-7.31
-6.88
-5.76
-4.19
-2.53
-1.06
0.14
1.11
1.99
2.82
3.55
4.03
4.18
4.02
3.74
3.53
3.55
3.78
4.08
4.27
4.22
3.93
3.51
3.14
2.93
2.87
2.81
2.59
2.10
1.34
0.46
-0.32
-0.85
-1.10
-1.23
-1.47
-2.01
-2.88
-3.99
-5.09
-5.97
-6.45
-6.51
-6.21
-5.64
-4.89
-3.99
-2.95
-1.78
-0.49
0.86
2.18
3.36
4.29
4.89
5.14
5.11
4.88
4.60
4.38
4.28
4.30
4.36
4.41
4.35
4.19
3.95
3.67
3.34
2.94
2.43
1.79
1.04
0.23
-0.57
-1.32
-2.06
-2.82
-3.67
-4.60
-5.59
-6.53
-7.28
-7.70
-7.70
-7.20
-6.23
-4.89
-3.34
-1.75
-0.25
1.06
2.13
2.91
3.38
3.52
3.34
2.96
2.53
2.23
2.18
2.39
2.75
3.10
3.29
3.30
3.19
3.08
3.10
3.24
3.39
3.37
3.03
2.34
1.43
0.50
-0.25
-0.74
-1.01
-1.23
-1.59
-2.22
-3.11
-4.14
-5.10
-5.82
-6.17
-6.12
-5.68
-4.92
-3.90
-2.70
-1.40
-0.10
1.12
2.13
2.86
3.27
3.37
3.24
3.00
2.76
2.60
2.52
2.51
2.48
2.41
2.34
2.37
2.56
2.90
3.25
3.40
3.16
2.47
1.45
0.32
-0.65
-1.30
-1.60
-1.68
-1.72
-1.88
-2.26
-2.86
-3.63
-4.50
-5.36
-6.10
-6.57
-6.66
-6.28
-5.40
-4.05
-2.37
-0.59
1.05
2.36
3.22
3.67
3.82
3.83
3.81
3.81
3.81
3.78
3.69
3.56
3.42
3.26
3.07
2.83
2.53
2.22
1.94
1.70
1.47
1.19
0.83
0.38
-0.13
-0.69
-1.27
-1.84
-2.37
-2.80
-3.11
-3.34
-3.57
-3.91
-4.38
-4.92
-5.36
-5.50
-5.20
-4.40
-3.19
-1.71
-0.14
1.37
2.64
3.55
4.03
4.05
3.69
3.09
2.45
1.91
1.58
1.47
1.53
1.71
1.93
2.17
2.38
2.51
2.46
2.15
1.58
0.80
-0.06
-0.83
-1.42
-1.82
-2.14
-2.57
-3.26
-4.26
-5.47
-6.71
-7.76
-8.49
-8.89
-8.98
-8.78
-8.23
-7.23
-5.73
-3.81
-1.74
0.17
1.66
2.65
3.24
3.60
3.86
3.99
3.90
3.49
2.78
1.90
1.06
0.44
0.05
-0.22
-0.57
-1.17
-2.05
-3.12
-4.20
-5.16
-5.93
-6.55
-7.04
-7.45
-7.79
-8.04
-8.24
-8.39
-8.47
-8.38
-7.99
-7.13
-5.72
-3.78
-1.42
1.23
4.07
7.02
9.98
12.80
15.26
17.17
18.46
19.17
19.50
19.65
19.72
19.69
19.38
18.64
17.39
15.74
13.86
11.96
10.13
8.40
6.74
5.14
3.65
2.34
1.21
0.21
-0.78
-1.87
-3.06
-4.29
-5.45
-6.48
-7.35
-8.10
-8.75
-9.27
-9.54
-9.45
-8.89
-7.82
-6.32
-4.54
-2.73
-1.12
0.12
0.96
1.50
1.88
2.24
2.58
2.85
2.95
2.87
2.68
2.50
2.44
2.56
2.75
2.86
2.72
2.19
1.24
-0.04
-1.48
-2.91
-4.14
-5.11
-5.83
-6.39
-6.89
-7.44
-8.10
-8.84
-9.63
-10.32
-10.74
-10.73
-10.18
-9.10
-7.65
-6.14
-4.89
-4.13
-3.94
-4.15
-4.51
-4.75
-4.75
-4.54
-4.30
-4.21
-4.34
-4.63
-4.85
-4.81
-4.41
-3.74
-3.00
-2.42
-2.14
-2.16
-2.36
-2.61
-2.84
-3.06
-3.33
-3.72
-4.23
-4.83
-5.42
-5.88
-6.12
-6.05
-5.62
-4.80
-3.61
-2.14
-0.46
1.33
3.16
4.95
6.56
7.84
8.68
9.00
8.86
8.41
7.83
7.23
6.70
6.25
5.85
5.48
5.09
4.62
4.01
3.22
2.34
1.48
0.74
0.15
-0.40
-1.05
-1.91
-2.99
-4.16
-5.22
-6.00
-6.41
-6.43
-6.05
-5.28
-4.16
-2.72
-1.13
0.41
1.69
2.53
2.89
2.86
2.61
2.35
2.21
2.25
2.38
2.44
2.29
1.85
1.15
0.30
-0.53
-1.21
-1.60
-1.64
-1.36
-0.87
-0.33
0.07
0.17
-0.13
-0.82
-1.85
-3.10
-4.44
-5.71
-6.72
-7.30
-7.31
-6.73
-5.65
-4.31
-2.93
-1.71
-0.73
0.06
0.72
1.34
1.92
2.42
2.77
2.95
2.96
2.87
2.78
2.74
2.77
2.83
2.85
2.76
2.50
2.07
1.50
0.87
0.26
-0.28
-0.75
-1.22
-1.71
-2.23
-2.67
-2.89
-2.75
-2.22
-1.37
-0.37
0.61
1.49
2.19
2.70
2.99
3.05
2.90
2.64
2.42
2.38
2.58
2.93
3.30
3.51
3.46
3.17
2.68
2.07
1.37
0.57
-0.35
-1.37
-2.45
-3.53
-4.52
-5.30
-5.77
-5.86
-5.53
-4.80
-3.75
-2.48
-1.11
0.31
1.73
3.17
4.62
6.01
7.21
8.12
8.72
9.07
9.32
9.54
9.69
9.62
9.15
8.21
6.89
5.43
4.11
3.12
2.49
2.08
1.67
1.09
0.25
-0.81
-1.96
-3.03
-3.90
-4.50
-4.83
-4.92
-4.77
-4.33
-3.55
-2.39
-0.94
0.67
2.22
3.52
4.50
5.17
5.63
5.94
6.14
6.18
6.01
5.67
5.27
4.92
4.72
4.68
4.73
4.79
4.80
4.71
4.50
4.11
3.49
2.62
1.56
0.43
-0.67
-1.66
-2.51
-3.19
-3.59
-3.53
-2.88
-1.64
-0.05
1.53
2.78
3.53
3.85
3.94
3.97
4.00
3.92
3.61
3.01
2.26
1.59
1.24
1.32
1.71
2.14
2.31
2.04
1.43
0.72
0.23
0.11
0.26
0.40
0.24
-0.36
-1.33
-2.41
-3.34
-3.97
-4.28
-4.32
-4.15
-3.79
-3.22
-2.50
-1.79
-1.32
-1.30
-1.76
-2.59
-3.55
-4.43
-5.13
-5.69
-6.23
-6.83
-7.46
-7.96
-8.19
-8.07
-7.69
-7.24
-6.87
-6.68
-6.61
-6.52
-6.29
-5.89
-5.36
-4.86
-4.53
-4.46
-4.66
-5.05
-5.44
-5.60
-5.33
-4.53
-3.29
-1.80
-0.27
1.10
2.27
3.29
4.22
5.08
5.82
6.32
6.55
6.54
6.42
6.35
6.40
6.52
6.63
6.66
6.60
6.53
6.53
6.68
6.95
7.31
7.70
8.07
8.38
8.46
8.12
7.09
5.27
2.75
-0.13
-2.90
-5.16
-6.70
-7.61
-8.11
-8.44
-8.70
-8.80
-8.64
-8.12
-7.29
-6.34
-5.45
-4.67
-3.93
-3.07
-1.96
-0.62
0.78
1.94
2.63
2.73
2.31
1.58
0.77
0.12
-0.29
-0.48
-0.56
-0.65
-0.82
-1.08
-1.32
-1.46
-1.40
-1.09
-0.53
0.22
1.07
1.93
2.69
3.27
3.68
4.00
4.31
4.69
5.12
5.53
5.80
5.83
5.62
5.19
4.65
4.10
3.61
3.22
2.89
2.56
2.11
1.48
0.69
-0.20
-1.11
-1.95
-2.68
-3.27
-3.74
-4.14
-4.57
-5.10
-5.75
-6.44
-6.96
-7.06
-6.54
-5.34
-3.61
-1.67
0.14
1.56
2.47
2.86
2.79
2.36
1.69
0.96
0.32
-0.10
-0.25
-0.20
-0.09
-0.08
-0.28
-0.66
-1.12
-1.56
-1.91
-2.17
-2.41
-2.71
-3.07
-3.52
-4.01
-4.55
-5.17
-5.85
-6.55
-7.18
-7.63
-7.80
-7.65
-7.20
-6.51
-5.63
-4.63
-3.59
-2.52
-1.50
-0.56
0.22
0.80
1.21
1.47
1.68
1.90
2.13
2.38
2.60
2.77
2.85
2.84
2.70
2.43
1.98
1.39
0.69
-0.04
-0.75
-1.36
-1.88
-2.35
-2.86
-3.50
-4.33
-5.32
-6.32
-7.06
-7.32
-6.95
-6.06
-4.88
-3.72
-2.76
-2.07
-1.59
-1.22
-0.87
-0.57
-0.38
-0.33
-0.41
-0.50
-0.51
-0.41
-0.18
0.13
0.42
0.53
0.37
-0.03
-0.61
-1.27
-1.96
-2.47
-2.72
-2.85
-3.18
-3.97
-5.33
-7.20
-9.42
-11.84
-13.85
-14.97
-15.05
-14.37
-13.35
-12.25
-11.19
-10.17
-9.16
-7.30
-3.93
1.12
7.28
13.81
20.16
26.13
31.70
36.93
42.90
50.44
59.70
69.94
80.16
89.71
98.46
106.58
107.75
98.13
78.35
53.74
29.94
9.86
-6.12
-18.81
-29.09
-37.59
-43.07
-45.52
-45.42
-44.00
-42.53
-41.64
-41.33
-41.23
-41.08
-40.05
-37.86
-34.64
-30.95
-27.28
-23.65
-19.83
-15.66
-11.29
-6.51
-1.27
4.47
10.42
16.16
21.26
25.37
28.25
29.84
30.51
30.64
30.54
30.24
29.57
28.39
26.66
24.45
21.88
19.17
16.49
13.97
11.65
9.52
7.57
5.76
3.99
2.09
-0.11
-2.71
-5.73
-9.11
-12.75
-16.60
-20.61
-24.72
-28.88
-32.94
-36.73
-40.04
-42.78
-44.92
-46.59
-47.98
-49.29
-50.64
-51.97
-53.04
-53.52
-53.11
-51.73
-49.49
-46.73
-43.80
-40.93
-38.15
-35.37
-32.47
-29.35
-26.00
-22.41
-18.57
-14.46
-10.09
-5.54
-0.99
3.38
7.52
11.59
15.98
21.03
26.88
33.17
39.17
43.92
46.63
47.00
45.26
42.14
38.41
34.65
31.04
27.49
23.88
20.29
17.06
14.61
13.20
12.70
12.65
12.39
11.47
9.82
7.77
5.89
4.64
4.16
4.22
4.40
4.31
3.80
2.93
1.95
1.12
0.64
0.60
0.99
1.80
2.94
4.33
5.85
7.35
8.67
9.67
10.19
10.10
9.34
7.99
6.21
4.30
2.50
1.00
-0.20
-1.21
-2.23
-3.44
-4.97
-6.87
-9.07
-11.42
-13.72
-15.73
-17.20
-18.02
-18.16
-17.63
-16.52
-14.91
-12.91
-10.67
-8.38
-6.13
-3.94
-1.70
0.77
3.61
6.84
10.26
13.56
16.33
18.21
18.98
18.65
17.45
15.76
14.01
12.50
11.32
10.29
9.11
7.62
5.91
4.30
3.24
3.03
3.63
4.68
5.56
5.69
4.66
2.37
-1.05
-5.32
-10.11
-15.12
-20.10
-24.79
-28.92
-32.20
-34.41
-35.46
-35.53
-35.01
-34.44
-34.23
-34.51
-35.11
-35.60
-35.60
-34.82
-33.13
-30.38
-26.41
-21.04
-14.25
-6.32
2.24
10.75
18.64
25.50
31.21
35.75
39.23
41.79
43.60
44.86
45.73
46.35
46.77
47.11
47.49
48.07
48.90
49.86
50.73
51.30
51.55
51.61
51.72
52.00
52.28
52.21
51.32
49.26
45.89
41.24
35.43
28.56
20.69
11.87
2.27
-7.72
-17.56
-26.68
-34.66
-41.35
-46.81
-51.23
-54.77
-57.47
-59.29
-60.18
-60.17
-59.42
-58.07
-56.25
-54.04
-51.50
-48.65
-45.57
-42.30
-38.83
-35.09
-31.05
-26.74
-22.34
-18.20
-14.65
-11.98
-10.29
-9.45
-9.12
-8.91
-8.46
-7.61
-6.45
-5.24
-4.31
-3.85
-3.87
-4.16
-4.41
-4.38
-3.91
-3.08
-2.04
-0.97
-0.02
0.71
1.21
1.49
1.62
1.67
1.76
1.99
2.39
2.99
3.75
4.66
5.75
7.06
8.60
10.35
12.21
14.04
15.78
17.41
18.97
20.48
21.93
23.25
24.31
25.00
25.25
24.99
24.20
22.91
21.21
19.26
17.31
15.57
14.16
13.06
12.12
11.10
9.80
8.16
6.19
4.03
1.81
-0.39
-2.50
-4.47
-6.24
-7.76
-9.02
-10.08
-11.04
-12.03
-13.10
-14.22
-15.25
-15.99
-16.32
-16.20
-15.73
-15.09
-14.50
-14.08
-13.87
-13.80
-13.79
-13.79
-13.83
-13.96
-14.22
-14.59
-14.98
-15.32
-15.61
-15.91
-16.31
-16.85
-17.52
-18.21
-18.79
-19.15
-19.18
-18.84
-18.05
-16.81
-15.12
-13.02
-10.53
-7.72
-4.66
-1.54
1.43
4.04
6.13
7.72
8.94
10.00
11.06
12.20
13.41
14.65
15.88
17.04
18.06
18.78
19.08
18.84
18.05
16.75
15.02
12.96
10.60
7.99
5.13
2.06
-1.20
-4.57
-7.96
-11.21
-14.11
-16.46
-18.10
-19.00
-19.27
-19.13
-18.86
-18.67
-18.69
-18.89
-19.19
-19.42
-19.43
-19.11
-18.37
-17.11
-15.28
-12.91
-10.10
-7.11
-4.22
-1.68
0.45
2.27
3.95
5.65
7.33
8.81
9.82
10.19
9.91
9.11
8.01
6.80
5.63
4.57
3.72
3.16
2.97
3.18
3.75
4.55
5.39
6.09
6.51
6.64
6.54
6.32
6.11
5.97
5.91
5.87
5.81
5.67
5.44
5.14
4.80
4.45
4.15
3.93
3.84
3.90
4.10
4.43
4.83
5.26
5.62
5.80
5.70
5.29
4.61
3.79
2.98
2.30
1.84
1.63
1.72
2.12
2.81
3.67
4.55
5.29
5.84
6.22
6.51
6.68
6.65
6.27
5.51
4.49
3.54
2.99
3.02
3.58
4.38
5.13
5.59
5.70
5.55
5.25
4.92
4.62
4.45
4.45
4.65
4.99
5.28
5.36
5.08
4.46
3.62
2.78
2.14
1.82
1.87
2.23
2.85
3.60
4.40
5.13
5.72
6.08
6.15
5.88
5.29
4.44
3.44
2.47
1.68
1.16
0.88
0.74
0.55
0.18
-0.44
-1.30
-2.35
-3.50
-4.67
-5.81
-6.85
-7.72
-8.33
-8.62
-8.59
-8.29
-7.82
-7.26
-6.65
-5.94
-5.06
-3.98
-2.73
-1.40
-0.07
1.18
2.34
3.34
4.11
4.55
4.61
4.34
3.89
3.44
3.12
2.92
2.66
2.11
1.06
-0.54
-2.60
-4.94
-7.34
-9.65
-11.76
-13.63
-15.25
-16.63
-17.89
-19.23
-20.88
-22.95
-25.26
-27.33
-28.55
-28.40
-26.66
-23.55
-19.56
-15.25
-11.07
-7.25
-3.87
-0.91
1.64
3.83
5.72
7.48
9.25
11.09
12.98
14.72
16.07
16.78
16.73
15.97
14.74
13.36
12.16
11.36
10.94
10.74
10.47
9.87
8.76
7.13
5.09
2.89
0.86
-0.72
-1.58
-1.59
-0.72
0.91
3.09
5.56
8.03
10.25
12.00
13.14
13.60
13.43
12.76
11.83
10.89
10.15
9.75
9.66
9.71
9.69
9.38
8.63
7.43
5.89
4.16
2.42
0.80
-0.62
-1.84
-2.80
-3.46
-3.73
-3.55
-2.90
-1.83
-0.51
0.89
2.19
3.24
3.99
4.44
4.61
4.52
4.19
3.60
2.81
1.87
0.88
-0.07
-0.91
-1.66
-2.30
-2.78
-2.96
-2.65
-1.71
-0.18
1.68
3.42
4.62
4.99
4.55
3.55
2.36
1.28
0.46
-0.15
-0.68
-1.28
-2.03
-2.95
-4.04
-5.29
-6.69
-8.14
-9.46
-10.45
-10.96
-10.96
-10.60
-10.13
-9.78
-9.67
-9.80
-10.02
-10.23
-10.33
-10.34
-10.33
-10.35
-10.42
-10.48
-10.43
-10.17
-9.69
-9.03
-8.31
-7.60
-6.87
-6.03
-4.91
-3.43
-1.61
0.34
2.23
3.92
5.45
6.98
8.73
10.78
13.05
15.36
17.51
19.49
21.37
23.32
25.41
27.49
29.28
30.49
31.03
30.99
30.66
30.29
30.01
29.81
29.52
29.07
28.45
27.78
27.11
26.44
25.60
24.38
22.65
20.45
17.96
15.43
13.04
10.81
8.60
6.21
3.50
0.51
-2.57
-5.39
-7.67
-9.25
-10.20
-10.74
-11.09
-11.45
-11.86
-12.33
-12.86
-13.48
-14.25
-15.14
-16.10
-16.99
-17.72
-18.23
-18.59
-18.83
-18.98
-18.99
-18.81
-18.41
-17.83
-17.18
-16.50
-15.85
-15.24
-14.70
-14.29
-14.07
-14.09
-14.29
-14.60
-14.86
-14.94
-14.78
-14.35
-13.70
-12.92
-12.10
-11.31
-10.59
-9.91
-9.20
-8.32
-7.22
-5.87
-4.34
-2.74
-1.19
0.20
1.40
2.43
3.39
4.41
5.62
7.09
8.77
10.56
12.29
13.81
15.05
16.07
17.00
17.99
19.14
20.47
21.89
23.30
24.58
25.63
26.40
26.85
26.95
26.72
26.22
25.57
24.87
24.22
23.60
22.94
22.15
21.20
20.16
19.11
18.09
17.02
15.72
14.01
11.80
9.14
6.21
3.22
0.34
-2.31
-4.72
-6.87
-8.80
-10.52
-12.08
-13.55
-14.97
-16.43
-17.97
-19.63
-21.40
-23.22
-24.98
-26.56
-27.84
-28.74
-29.22
-29.27
-28.89
-28.12
-27.02
-25.68
-24.18
-22.61
-21.00
-19.38
-17.77
-16.20
-14.74
-13.43
-12.28
-11.23
-10.21
-9.12
-7.87
-6.45
-4.85
-3.18
-1.56
-0.11
1.09
2.02
2.80
3.53
4.35
5.33
6.45
7.66
8.84
9.91
10.79
11.46
11.93
12.25
12.46
12.60
12.63
12.54
12.30
11.92
11.38
10.69
9.83
8.84
7.79
6.76
5.87
5.15
4.60
4.21
3.95
3.79
3.77
3.87
4.05
4.26
4.48
4.67
4.81
4.88
4.76
4.35
3.57
2.43
1.01
-0.59
-2.31
-4.21
-6.40
-8.99
-11.98
-15.18
-18.28
-20.91
-22.74
-23.55
-23.26
-21.93
-19.74
-16.99
-14.07
-11.34
-9.08
-7.33
-5.88
-4.32
-2.21
0.74
4.55
8.93
13.43
17.56
20.97
23.55
25.40
26.77
27.95
29.11
30.26
31.26
31.96
32.27
32.22
31.96
31.65
31.35
30.94
30.18
28.80
26.60
23.52
19.67
15.28
10.60
5.85
1.21
-3.22
-7.39
-11.20
-14.52
-17.18
-19.01
-19.98
-20.19
-19.89
-19.39
-19.00
-18.84
-18.87
-18.92
-18.74
-18.13
-16.98
-15.28
-13.09
-10.50
-7.63
-4.52
-1.17
2.49
6.56
11.09
16.03
21.15
26.01
30.04
32.60
33.16
31.38
27.27
21.25
14.03
6.42
-0.83
-7.28
-12.80
-17.46
-21.41
-24.70
-27.33
-29.24
-30.49
-31.22
-31.67
-32.00
-32.35
-32.72
-33.07
-33.39
-33.69
-33.95
-34.12
-34.03
-33.52
-32.38
-30.48
-27.78
-24.34
-20.31
-15.89
-11.26
-6.59
-1.97
2.61
7.24
12.01
16.97
22.00
26.79
30.90
33.85
35.29
35.05
33.20
29.94
25.51
20.14
14.06
7.59
1.22
-4.51
-9.14
-12.47
-14.68
-16.28
-17.85
-19.81
-22.13
-24.33
-25.55
-24.94
-21.86
-16.06
-7.65
2.95
15.04
27.58
39.16
48.08
52.78
52.47
47.63
40.09
32.53
27.54
26.64
29.78
35.51
41.71
46.36
48.22
46.87
42.55
35.77
27.11
17.20
6.77
-3.34
-12.27
-19.41
-24.50
-27.79
-29.85
-31.38
-33.01
-35.05
-37.41
-39.68
-41.14
-41.11
-39.09
-34.99
-29.19
-22.40
-15.40
-8.86
-3.19
1.39
4.69
6.46
6.34
4.16
0.09
-5.14
-10.52
-15.04
-18.07
-19.64
-20.20
-20.38
-20.59
-20.91
-21.19
-21.24
-21.14
-21.15
-21.71
-23.11
-25.49
-28.78
-32.85
-37.57
-42.81
-48.29
-53.51
-57.77
-60.35
-60.77
-59.02
-55.61
-51.36
-47.05
-43.18
-39.71
-36.30
-32.41
-27.70
-22.15
-16.01
-9.67
-3.48
2.32
7.58
12.17
15.94
18.80
20.81
22.18
23.24
24.21
25.13
25.80
25.90
25.14
23.45
20.97
18.00
14.85
11.79
9.01
6.60
4.59
2.92
1.48
0.17
-1.05
-2.14
-2.98
-3.51
-3.70
-3.56
-3.01
-1.90
0.02
2.80
6.19
9.57
12.18
13.47
13.39
12.45
11.48
11.25
12.13
14.00
16.36
18.64
20.35
21.24
21.25
20.45
18.91
16.71
13.93
10.72
7.23
3.50
-0.75
-6.17
-13.59
-23.42
-34.95
-46.03
-53.48
-54.31
-47.13
-32.96
-14.89
3.27
18.68
30.39
39.12
46.13
52.10
56.76
59.33
59.42
57.53
54.92
52.88
51.99
51.90
51.68
50.49
48.10
44.95
41.83
39.25
36.96
33.91
28.63
19.98
7.83
-6.66
-21.33
-33.82
-42.47
-46.87
-47.77
-46.47
-44.17
-41.46
-38.37
-34.78
-30.83
-27.00
-23.98
-22.29
-22.01
-22.74
-23.76
-24.32
-23.91
-22.37
-19.86
-16.75
-13.44
-10.20
-7.16
-4.26
-1.44
1.35
4.00
6.38
8.31
9.69
10.48
10.71
10.39
9.53
8.17
6.45
4.67
3.20
2.38
2.33
2.89
3.63
4.03
3.72
2.56
0.77
-1.26
-3.07
-4.41
-5.24
-5.72
-6.16
-6.83
-7.90
-9.44
-11.46
-13.93
-16.70
-19.51
-21.91
-23.32
-23.20
-21.30
-17.71
-12.95
-7.78
-2.96
0.97
3.77
5.55
6.61
7.30
7.89
8.51
9.18
9.84
10.41
10.82
11.08
11.22
11.30
11.38
11.43
11.41
11.21
10.80
10.25
9.75
9.53
9.76
10.46
11.47
12.46
13.13
13.23
12.70
11.60
10.09
8.36
6.57
4.91
3.53
2.53
1.93
1.63
1.44
1.12
0.53
-0.35
-1.38
-2.29
-2.85
-2.95
-2.68
-2.29
-2.02
-2.05
-2.41
-3.04
-3.80
-4.60
-5.38
-6.09
-6.70
-7.13
-7.35
-7.37
-7.23
-7.00
-6.76
-6.59
-6.67
-7.13
-8.10
-9.55
-11.44
-13.64
-16.13
-18.91
-21.96
-25.07
-27.89
-29.95
-30.85
-30.42
-28.80
-26.30
-23.29
-20.07
-16.82
-13.64
-10.59
-7.71
-5.02
-2.56
-0.38
1.46
2.89
3.91
4.57
5.00
5.32
5.62
5.91
6.21
6.58
7.16
8.15
9.69
11.85
14.57
17.72
21.25
25.18
29.66
34.89
40.89
47.41
53.91
59.66
63.94
66.30
66.64
65.20
62.42
58.70
54.36
49.52
44.20
38.46
32.44
26.44
20.84
15.97
12.00
8.90
6.47
4.45
2.64
0.94
-0.67
-2.11
-3.33
-4.30
-5.00
-5.43
-5.63
-5.64
-5.50
-5.27
-4.96
-4.58
-4.13
-3.65
-3.22
-2.92
-2.81
-2.93
-3.29
-3.87
-4.71
-5.84
-7.26
-8.94
-10.79
-12.71
-14.61
-16.44
-18.20
-19.88
-21.41
-22.67
-23.49
-23.75
-23.41
-22.61
-21.57
-20.55
-19.75
-19.26
-19.03
-18.95
-18.86
-18.63
-18.17
-17.41
-16.28
-14.73
-12.78
-10.55
-8.28
-6.27
-4.81
-4.09
-4.16
-4.86
-5.98
-7.24
-8.38
-9.23
-9.61
-9.47
-8.82
-7.84
-6.77
-5.88
-5.34
-5.13
-5.13
-5.18
-5.14
-5.00
-4.78
-4.54
-4.32
-4.10
-3.87
-3.60
-3.28
-2.87
-2.31
-1.47
-0.20
1.62
3.97
6.66
9.32
11.51
12.86
13.21
12.70
11.61
10.33
9.11
8.09
7.29
6.76
6.56
6.81
7.57
8.79
10.24
11.68
12.90
13.82
14.58
15.36
16.36
17.64
19.19
20.88
22.60
24.22
25.63
26.73
27.42
27.64
27.43
26.90
26.20
25.41
24.52
23.39
21.88
19.94
17.61
14.87
11.64
7.73
3.06
-2.03
-6.74
-9.93
-10.59
-8.28
-3.39
3.09
9.94
16.23
21.42
25.30
27.79
28.79
28.33
26.71
24.59
22.78
21.86
21.96
22.77
23.76
24.48
24.78
24.75
24.53
24.20
23.60
22.52
20.66
17.90
14.19
9.61
4.33
-1.44
-7.38
-13.18
-18.51
-23.18
-27.11
-30.39
-33.14
-35.47
-37.45
-39.10
-40.45
-41.52
-42.40
-43.05
-43.31
-42.86
-41.42
-38.94
-35.74
-32.56
-30.25
-29.46
-30.34
-32.50
-35.23
-37.82
-39.96
-41.72
-43.37
-45.03
-46.49
-47.21
-46.69
-44.77
-41.76
-38.25
-34.85
-31.86
-29.23
-26.70
-24.05
-21.24
-18.42
-15.75
-13.28
-10.91
-8.45
-5.76
-2.84
0.11
2.83
5.12
6.90
8.27
9.38
10.36
11.25
11.95
12.37
12.45
12.25
11.89
11.51
11.20
10.96
10.75
10.53
10.31
10.10
9.89
9.60
9.12
8.34
7.19
5.75
4.15
2.62
1.38
0.55
0.16
0.14
0.35
0.65
0.95
1.22
1.48
1.79
2.14
2.48
2.66
2.59
2.24
1.75
1.29
1.08
1.24
1.74
2.49
3.33
4.12
4.77
5.24
5.47
5.38
4.92
4.02
2.71
1.12
-0.53
-2.01
-3.15
-3.88
-4.25
-4.35
-4.29
-4.14
-3.92
-3.62
-3.25
-2.87
-2.53
-2.25
-2.04
-1.88
-1.69
-1.48
-1.23
-0.94
-0.60
-0.16
0.37
0.97
1.56
2.02
2.27
2.23
1.96
1.51
1.02
0.56
0.27
0.21
0.45
0.95
1.56
2.01
2.05
1.49
0.38
-1.06
-2.50
-3.64
-4.34
-4.64
-4.69
-4.68
-4.70
-4.72
-4.61
-4.23
-3.53
-2.58
-1.56
-0.68
-0.10
0.13
0.10
-0.06
-0.22
-0.33
-0.43
-0.56
-0.70
-0.81
-0.83
-0.70
-0.49
-0.29
-0.27
-0.55
-1.16
-2.02
-3.02
-3.99
-4.81
-5.46
-5.97
-6.39
-6.77
-7.09
-7.27
-7.27
-7.06
-6.64
-6.06
-5.36
-4.56
-3.69
-2.76
-1.82
-0.96
-0.27
0.13
0.18
-0.10
-0.60
-1.17
-1.68
-2.12
-2.64
-3.45
-4.73
-6.48
-8.56
-10.71
-12.73
-14.60
-16.43
-18.39
-20.49
-22.53
-24.17
-25.16
-25.46
-25.34
-25.16
-25.20
-25.44
-25.59
-25.22
-24.04
-21.96
-19.11
-15.62
-11.48
-6.40
0.01
8.11
18.04
29.58
42.16
54.94
66.93
77.21
84.96
89.67
91.19
89.92
86.85
83.48
81.48
82.07
85.41
90.45
95.19
97.56
96.27
91.35
83.85
75.22
66.38
57.41
47.70
36.52
23.66
9.72
-4.01
-15.93
-24.62
-29.19
-29.63
-26.83
-22.43
-18.25
-15.61
-14.71
-14.61
-13.77
-11.06
-6.49
-1.39
2.04
1.69
-3.53
-13.33
-26.31
-40.59
-54.40
-66.27
-75.16
-80.37
-81.67
-79.26
-73.70
-65.96
-57.29
-48.90
-41.70
-36.10
-32.24
-30.42
-30.83
-33.38
-37.84
-43.93
-51.23
-58.98
-65.85
-70.10
-70.51
-66.01
-56.22
-41.93
-25.46
-9.95
1.71
8.03
9.09
5.50
-1.18
-8.95
-16.02
-21.28
-24.11
-24.24
-21.70
-12.83
1.67
16.88
27.17
30.24
27.58
22.50
17.74
14.69
13.02
10.91
6.82
0.08
-9.37
-21.38
-35.01
-49.27
-61.06
-67.12
-65.77
-57.00
-42.52
-25.16
-8.04
6.73
18.06
25.98
30.77
32.55
31.73
29.48
27.60
26.05
25.22
24.96
24.89
24.59
23.82
22.75
21.72
20.86
19.95
18.95
18.00
17.65
18.56
21.19
25.69
31.82
39.26
47.59
56.68
66.23
75.79
84.57
91.62
96.12
97.61
96.21
92.54
87.58
82.10
76.37
70.03
62.28
52.31
39.82
25.35
10.20
-3.83
-15.18
-23.03
-27.64
-30.22
-32.58
-36.54
-43.33
-53.30
-65.73
-79.19
-92.00
-102.78
-110.87
-116.41
-120.12
-122.81
-124.93
-126.03
-124.66
-118.67
-105.80
-84.68
-55.58
-20.77
15.95
50.25
78.56
99.06
111.88
118.63
121.37
121.73
120.41
117.48
112.75
106.23
98.18
88.84
78.24
66.12
52.12
36.15
18.75
1.01
-15.61
-29.77
-40.71
-48.51
-54.01
-58.38
-62.77
-67.90
-74.09
-81.54
-90.40
-100.53
-110.83
-118.76
-120.55
-112.41
-92.42
-61.92
-25.63
9.92
38.77
57.63
66.52
68.00
65.42
61.50
57.71
54.53
52.12
50.63
50.17
50.51
50.97
50.52
48.20
43.50
36.55
28.14
19.53
12.06
6.87
4.55
5.03
7.63
11.44
15.68
19.94
24.04
27.76
30.59
31.67
30.11
25.48
18.17
9.39
0.77
-6.31
-11.27
-14.50
-17.05
-19.95
-23.62
-27.67
-31.17
-33.25
-33.77
-33.40
-33.37
-34.78
-37.93
-42.14
-46.06
-48.44
-48.73
-47.31
-45.01
-42.66
-40.57
-38.42
-35.44
-30.80
-23.82
-14.06
-1.44
13.76
30.31
46.00
58.19
64.87
65.59
61.73
55.84
50.54
47.61
47.07
47.53
47.45
46.21
44.35
42.99
42.98
44.43
47.10
49.91
51.38
50.34
46.47
40.37
33.13
25.94
19.77
15.85
14.33
14.47
15.05
15.12
14.04
11.30
6.52
-4.06
-19.73
-35.27
-44.68
-45.61
-39.47
-29.41
-18.56
-9.19
-2.28
3.61
8.71
12.64
14.69
14.69
13.14
10.91
8.89
7.74
8.19
9.79
11.76
12.92
12.44
10.12
6.26
1.49
-3.50
-7.86
-11.49
-14.89
-19.17
-25.10
-32.68
-41.17
-49.55
-56.88
-62.51
-66.42
-68.97
-71.11
-73.38
-75.53
-76.80
-76.49
-74.35
-70.53
-65.40
-59.24
-52.78
-46.26
-39.19
-30.76
-20.75
-9.82
0.73
9.49
15.47
17.36
14.70
8.29
-0.38
-10.03
-19.89
-29.54
-38.57
-41.10
-34.29
-21.07
-7.76
1.24
5.20
5.83
5.45
5.81
7.56
9.40
9.76
8.18
5.39
1.98
-0.87
-2.70
-3.47
-3.39
-3.43
-4.33
-5.93
-7.46
-8.05
-7.14
-4.56
-0.40
5.15
11.50
17.84
23.77
29.29
34.53
39.55
44.28
48.58
52.34
55.30
57.29
58.56
59.47
60.35
61.32
62.18
62.59
62.17
60.45
57.10
52.03
45.47
37.82
29.60
21.24
12.98
4.84
-3.38
-12.01
-21.25
-31.16
-41.65
-52.50
-63.55
-74.59
-85.43
-95.79
-105.26
-113.19
-118.76
-121.01
-119.07
-112.49
-101.41
-86.76
-70.00
-52.75
-36.25
-21.18
-7.67
4.36
14.86
23.66
30.67
36.17
40.95
46.00
52.02
59.06
66.47
73.20
78.28
81.20
81.91
80.70
77.93
73.97
69.20
64.05
59.03
54.55
50.82
47.74
45.04
42.32
39.23
35.58
31.36
26.73
21.93
17.29
13.12
9.67
6.99
4.73
2.05
-2.23
-9.26
-19.65
-32.95
-47.66
-61.58
-72.75
-80.19
-84.16
-85.85
-86.61
-87.23
-87.66
-87.37
-85.54
-81.97
-76.99
-71.18
-64.84
-57.74
-49.18
-38.29
-24.75
-8.48
9.48
27.54
44.15
58.25
69.60
78.86
87.26
95.82
105.78
117.03
128.45
137.90
142.54
139.24
125.26
99.28
61.81
16.89
-29.75
-71.06
-100.26
-112.59
-106.99
-86.48
-55.44
-25.81
-3.76
6.67
4.75
-7.43
-26.20
-47.80
-68.81
-85.92
-96.25
-96.52
-85.50
-64.36
-36.76
-7.70
17.66
36.26
48.37
56.83
66.18
79.45
97.17
116.97
134.56
144.60
143.03
128.97
104.85
75.89
47.61
24.26
5.44
-7.98
-16.92
-24.04
-31.57
-39.76
-47.54
-54.07
-59.33
-63.93
-68.22
-72.65
-77.13
-80.95
-83.15
-83.34
-81.74
-79.15
-76.24
-73.19
-70.15
-66.99
-64.09
-60.95
-58.00
-56.13
-56.07
-57.44
-58.90
-59.15
-57.47
-54.29
-50.79
-48.75
-49.17
-51.63
-53.81
-52.77
-46.61
-35.25
-20.47
-4.51
10.67
24.70
36.31
45.92
54.59
63.20
72.29
81.83
91.88
101.55
108.97
111.52
107.50
96.99
82.04
66.55
54.42
49.16
51.79
60.69
72.40
83.61
92.16
96.88
97.78
95.11
90.35
84.76
79.13
73.92
70.26
70.00
74.51
84.17
88.86
80.34
55.84
19.71
-20.23
-56.54
-82.75
-100.01
-110.64
-117.40
-121.46
-123.09
-121.50
-116.76
-109.59
-101.05
-91.84
-82.89
-75.36
-69.01
-62.79
-55.82
-47.53
-38.38
-29.16
-20.81
-13.49
-6.83
-1.07
4.23
9.25
13.68
17.09
19.37
20.55
20.93
20.65
19.90
18.82
17.28
14.95
11.62
7.44
2.85
-1.45
-4.81
-6.73
-6.92
-5.64
-3.62
-1.87
-1.25
-2.40
-5.48
-10.22
-15.97
-21.63
-26.07
-28.31
-27.88
-24.89
-20.08
-14.45
-8.92
-3.99
0.49
5.01
10.13
16.14
22.99
30.26
37.29
43.31
47.52
49.25
48.01
43.67
36.57
27.48
17.46
7.45
-2.01
-10.91
-19.59
-28.34
-37.00
-44.78
-50.54
-53.26
-52.63
-49.16
-44.07
-38.57
-33.39
-28.54
-23.51
-17.77
-11.18
-4.12
2.77
8.89
13.95
18.03
21.36
24.04
25.92
26.71
26.24
24.68
22.63
20.91
20.26
21.02
22.97
25.46
27.76
29.28
29.89
29.79
29.36
28.84
28.23
27.40
26.16
24.52
22.60
20.63
18.73
16.89
15.02
12.98
10.79
8.50
6.20
3.94
1.74
-0.42
-2.59
-4.81
-7.13
-9.50
-11.82
-13.94
-15.69
-16.95
-17.67
-17.97
-18.01
-18.00
-17.99
-17.96
-17.85
-17.58
-17.00
-15.97
-14.40
-12.25
-9.62
-6.36
-2.46
2.01
6.92
12.21
17.84
23.68
29.53
35.10
40.60
45.94
50.68
54.23
56.24
56.67
55.75
53.76
50.84
47.87
45.37
43.47
42.31
42.26
43.70
46.61
50.30
53.57
56.21
57.82
57.78
55.56
51.14
45.03
37.92
30.42
17.12
-2.92
-26.62
-49.33
-68.18
-82.54
-92.68
-98.95
-101.66
-102.24
-100.53
-96.75
-91.83
-86.87
-82.42
-78.15
-73.36
-66.45
-57.60
-47.36
-37.22
-28.90
-23.63
-21.62
-22.09
-23.86
-25.82
-26.88
-26.50
-24.63
-21.83
-19.23
-18.03
-19.00
-22.25
-27.18
-32.80
-37.65
-40.97
-42.06
-41.00
-38.59
-35.84
-33.47
-31.45
-29.02
-24.92
-18.17
-8.82
1.80
11.53
18.36
21.22
20.39
17.30
13.94
12.26
13.65
18.55
26.57
36.75
47.74
58.09
66.33
71.18
71.73
67.80
59.91
49.39
38.12
28.04
20.64
16.48
15.05
15.15
15.46
15.03
13.61
11.58
9.67
8.70
9.14
10.96
13.64
16.41
18.49
19.37
18.90
17.30
15.26
13.39
11.94
10.72
9.40
7.67
5.47
2.94
0.52
-0.83
-0.38
2.03
5.95
10.75
15.94
21.37
27.10
33.36
40.96
50.06
59.76
68.36
74.28
76.60
75.36
71.12
64.76
57.99
52.02
47.23
43.47
40.70
38.92
37.90
36.42
27.63
8.46
-18.58
-47.17
-71.90
-90.28
-102.14
-108.42
-110.81
-110.90
-108.91
-104.84
-99.01
-92.06
-84.47
-77.57
-70.70
-63.63
-56.39
-48.46
-39.75
-30.82
-22.63
-15.72
-10.69
-7.38
-5.49
-4.65
-3.93
-2.55
-0.16
3.22
7.31
11.64
15.80
19.19
21.43
22.73
23.50
24.11
24.65
25.01
24.98
24.50
23.52
22.16
20.83
19.88
19.48
19.47
19.46
19.05
17.99
16.34
13.95
10.89
7.25
3.07
-1.47
-6.00
-9.98
-12.83
-14.15
-13.91
-12.43
-10.29
-8.17
-6.52
-5.53
-5.06
-4.90
-4.69
-4.17
-3.13
-1.65
-0.07
1.32
2.35
3.12
3.77
4.50
5.50
6.81
8.17
9.14
9.46
9.14
8.50
7.76
7.05
6.57
6.36
6.06
5.11
3.11
-0.20
-4.91
-11.37
-19.92
-30.65
-40.97
-47.69
-48.86
-44.91
-37.90
-30.02
-23.18
-18.54
-16.33
-16.03
-17.01
-18.76
-20.84
-23.52
-25.97
-27.49
-27.60
-25.98
-22.64
-18.07
-13.06
-8.33
-4.22
-0.64
2.60
5.81
9.15
12.61
15.86
18.44
19.89
19.96
18.65
16.12
12.65
8.74
4.86
1.26
-2.17
-5.75
-9.83
-14.53
-19.78
-25.25
-30.42
-34.73
-37.77
-39.29
-39.25
-37.69
-34.71
-30.49
-25.20
-18.95
-11.82
-3.99
4.24
12.61
20.91
29.04
36.97
44.65
51.94
58.68
64.38
68.54
71.04
72.18
72.58
72.94
73.77
75.37
77.98
81.21
84.41
87.02
88.47
88.36
86.51
83.04
78.48
73.45
67.84
61.11
52.64
41.84
28.75
14.05
-1.16
-17.41
-32.55
-43.60
-49.05
-49.43
-46.47
-41.29
-34.44
-26.31
-17.67
-9.31
