1513831772.00
64.000000
-0.00
-0.00
-0.00
-0.00
-0.00
-0.00
-0.00
-0.00
-0.00
-0.00
0.00
0.01
0.01
-0.00
-0.03
-0.05
-0.05
0.00
0.13
0.36
0.66
1.01
1.37
1.72
2.06
2.40
2.79
3.24
3.80
4.42
5.06
5.66
6.20
6.68
7.15
7.68
8.31
9.14
10.09
11.04
11.88
12.56
13.14
13.76
14.65
15.96
17.91
20.32
22.90
25.38
27.58
29.57
31.68
34.32
37.81
42.54
48.15
54.10
59.83
64.97
69.58
74.14
79.34
85.71
93.76
103.00
112.62
121.73
129.77
136.75
143.30
150.75
157.77
166.64
177.95
191.79
206.97
220.57
228.25
225.36
208.53
176.87
132.76
80.05
23.07
-34.94
-92.44
-149.16
-205.23
-260.37
-313.74
-363.87
-409.83
-450.91
-486.50
-515.74
-537.23
-549.22
-549.96
-538.37
-514.20
-478.66
-433.86
-382.41
-326.96
-269.75
-212.51
-156.49
-102.73
-52.10
-5.57
35.98
71.90
101.89
126.11
145.06
159.45
169.98
177.26
181.71
183.61
183.17
180.68
176.49
170.99
164.60
157.67
150.45
143.06
135.60
128.10
120.62
113.21
105.94
98.90
92.13
85.67
79.53
73.73
68.26
63.13
58.37
53.96
49.91
46.22
42.88
39.87
37.20
34.84
32.80
31.08
29.65
28.52
27.68
27.12
26.82
26.76
26.94
27.32
27.84
28.38
28.81
28.92
28.48
27.25
25.06
21.80
17.40
11.90
5.32
-2.20
-10.46
-19.16
-27.98
-36.50
-44.23
-50.76
-55.77
-59.08
-60.63
-60.51
-58.84
-55.80
-51.43
-45.74
-38.73
-30.49
-21.24
-11.34
-1.28
8.78
18.12
26.25
32.98
38.22
41.89
43.75
43.50
40.68
35.17
27.16
17.39
6.99
-2.86
-11.24
-17.88
-23.11
-27.65
-32.16
-36.93
-41.61
-45.34
-47.34
-47.00
-44.73
-41.39
-38.00
-35.43
-34.19
-34.22
-35.02
-35.56
-34.08
-28.27
-15.38
7.01
39.84
81.88
129.73
178.90
225.36
266.78
302.12
330.96
351.87
361.80
356.93
334.76
296.24
246.46
193.54
145.35
107.24
80.46
62.39
48.81
35.65
20.46
2.16
-16.73
-34.98
-52.30
-69.15
-86.26
-104.09
-122.52
-141.37
-160.90
-181.69
-204.90
-230.46
-255.92
-276.39
-286.12
-280.99
-260.75
-229.71
-193.97
-159.84
-130.67
-106.27
-84.34
-62.92
-42.16
-24.20
-12.07
-5.56
-2.71
0.27
6.66
17.23
29.55
38.95
40.64
30.53
9.10
-22.99
-64.45
-113.83
-168.82
-225.10
-275.92
-313.38
-332.41
-328.99
-305.65
-268.44
-224.00
-176.87
-128.19
-76.76
-13.44
48.55
105.62
150.55
177.37
184.23
174.49
155.26
134.30
117.08
103.67
93.75
84.35
73.96
63.61
56.10
53.95
57.45
64.17
69.04
69.87
65.48
57.47
49.10
43.38
41.55
42.74
44.75
44.68
42.12
37.23
31.35
26.21
23.38
23.64
26.79
31.51
35.41
36.90
35.06
30.69
26.06
23.67
24.83
28.65
32.33
32.31
26.46
14.88
0.01
-14.32
-24.18
-26.52
-19.77
-4.16
18.19
43.57
67.09
84.03
90.97
87.17
74.94
58.85
44.08
34.27
30.34
30.62
32.31
33.13
32.55
31.77
32.61
36.24
42.08
47.55
48.75
42.19
26.54
3.79
-21.16
-42.44
-55.98
-61.66
-62.82
-64.17
-69.04
-77.86
-88.78
-99.12
-106.77
-110.12
-108.05
-99.11
-82.27
-58.43
-31.49
-7.91
5.58
4.95
-9.62
-35.26
-67.63
-102.38
-135.47
-162.61
-179.27
-181.62
-168.34
-141.91
-109.59
-80.73
-63.53
-61.95
-74.67
-96.30
-119.64
-138.43
-142.38
-125.74
-88.30
-35.63
23.56
81.55
133.58
177.77
213.36
239.86
255.72
259.96
253.05
237.53
217.26
195.62
175.22
155.76
135.75
112.74
85.16
53.29
19.53
-12.64
-40.61
-63.15
-81.01
-96.07
-111.29
-129.68
-153.85
-186.02
-223.58
-264.00
-302.95
-334.37
-351.52
-349.57
-327.43
-288.33
-238.48
-184.63
-132.36
-84.22
-40.29
0.80
40.64
80.90
124.06
173.99
235.48
311.79
402.38
500.87
595.46
671.73
717.53
727.32
704.03
657.01
597.63
534.80
472.19
408.50
340.05
263.80
178.87
86.68
-10.05
-107.70
-201.21
-283.79
-347.76
-386.85
-398.64
-385.79
-354.88
-313.44
-266.27
-213.98
-154.80
-88.23
-18.34
46.19
95.28
122.07
125.15
109.51
83.87
56.63
32.71
12.51
-6.06
-24.94
-44.11
-63.59
-82.73
-100.62
-116.47
-129.86
-141.12
-150.86
-159.29
-165.87
-172.53
-180.73
-190.24
-199.03
-204.31
-204.79
-201.12
-195.33
-190.11
-192.46
-209.39
-245.37
-300.43
-369.97
-446.62
-521.40
-585.62
-609.48
-575.45
-486.56
-366.57
-245.41
-142.70
-63.77
-4.61
40.77
76.47
100.22
109.33
105.30
93.26
83.11
81.91
91.39
108.67
128.84
144.77
152.10
152.11
151.21
157.89
178.54
216.21
268.42
332.27
403.05
468.85
516.41
533.63
513.46
457.00
373.89
278.75
186.28
105.20
37.92
-16.61
-58.18
-83.50
-88.00
-70.03
-34.24
8.67
44.62
65.16
65.37
47.82
19.90
-9.99
-36.55
-58.68
-77.85
-98.83
-121.71
-145.45
-165.94
-180.69
-187.57
-185.96
-177.02
-162.85
-146.25
-129.55
-114.77
-101.19
-86.08
-65.34
-34.90
5.58
55.86
114.74
180.92
244.23
294.29
321.10
318.11
284.44
226.19
155.59
87.79
36.48
8.83
4.70
16.83
34.97
50.31
58.88
61.45
60.80
58.98
55.66
50.11
42.21
33.55
26.74
24.67
28.23
35.89
44.37
49.91
50.61
46.80
42.59
39.83
40.63
45.86
54.35
63.75
71.53
76.38
78.51
79.53
81.64
87.15
97.51
112.38
130.19
148.26
163.39
172.41
172.93
163.88
146.03
122.07
95.26
69.49
48.07
32.79
23.70
19.35
17.18
13.55
9.80
5.64
0.95
-4.41
-10.68
-18.10
-26.58
-35.76
-46.52
-59.15
-73.73
-89.37
-105.09
-120.44
-135.26
-149.30
-162.09
-176.01
-192.30
-210.43
-227.77
-241.63
-250.63
-254.68
-254.23
-249.91
-247.24
-249.99
-258.34
-269.23
-279.22
-286.84
-292.54
-297.54
-302.99
-315.86
-340.23
-374.60
-413.00
-448.55
-477.00
-496.84
-508.08
-471.53
-369.74
-215.92
-46.62
104.27
221.72
305.72
362.65
399.80
423.19
430.85
421.68
398.82
368.07
335.82
305.71
278.55
253.73
230.20
202.11
165.56
127.00
91.57
63.38
43.95
32.63
27.85
27.87
28.20
25.74
20.25
13.04
6.43
1.85
-0.43
-0.78
0.29
0.87
-0.38
-3.39
-7.64
-11.99
-15.65
-18.40
-20.37
-21.76
-23.14
-25.11
-27.69
-30.91
-34.49
-38.19
-41.88
-45.58
-49.24
-52.60
-55.62
-58.19
-60.35
-61.98
-62.87
-62.79
-61.42
-59.89
-56.95
-52.34
-46.06
-38.51
-30.12
-21.39
-12.77
-4.57
3.12
10.63
18.06
25.55
33.13
40.70
48.04
55.03
61.80
68.26
74.67
81.12
87.48
93.25
97.56
99.46
98.22
93.72
86.34
77.17
67.15
56.84
46.21
34.84
21.61
5.99
-11.70
-30.22
-47.75
-62.79
-74.39
-82.74
-88.86
-94.05
-99.46
-106.10
-114.63
-124.89
-135.52
-143.27
-143.75
-132.78
-108.54
-73.09
-32.46
5.53
33.95
49.50
52.68
46.72
35.04
20.10
2.37
-18.34
-42.02
-67.42
-92.66
-115.97
-136.79
-155.59
-173.03
-189.72
-205.51
-219.32
-229.63
-235.02
-234.50
-227.48
-216.39
-203.05
-188.85
-174.44
-159.59
-143.65
-125.94
-106.24
-85.02
-63.36
-42.36
-23.14
-6.60
6.64
16.19
21.78
23.17
20.20
12.86
1.71
-12.26
-27.70
-43.11
-56.97
-68.16
-76.00
-80.35
-81.54
-79.96
-76.33
-71.33
-65.65
-59.85
-54.38
-49.50
-45.35
-41.97
-39.31
-37.18
-35.54
-34.31
-33.53
-33.16
-33.23
-33.63
-34.21
-34.72
-34.96
-34.67
-33.75
-31.99
-29.41
-26.01
-21.89
-17.14
-11.89
-6.21
-0.18
6.20
12.91
20.05
27.71
35.94
44.82
54.29
64.17
74.18
83.89
92.76
100.10
105.32
107.90
107.57
104.38
98.73
91.41
83.36
75.62
69.05
64.92
63.90
65.96
70.27
75.92
81.89
87.92
93.79
99.24
104.48
109.61
114.35
118.27
121.16
123.25
125.52
128.94
133.93
141.94
153.42
167.59
182.69
197.34
210.63
223.75
237.81
253.04
272.70
297.91
325.95
351.31
368.94
375.14
372.08
363.25
351.32
346.89
357.03
381.79
414.90
450.02
481.89
516.13
559.48
615.59
697.16
807.42
933.93
1051.89
1136.66
1169.39
1154.57
1106.03
1040.08
990.60
983.00
1023.10
1097.34
1184.44
1259.28
1315.78
1352.26
1252.44
959.79
504.77
-9.21
-477.73
-802.68
-1021.23
-1172.66
-1280.83
-1356.42
-1391.02
-1371.88
-1302.36
-1204.08
-1104.31
-1028.96
-977.82
-940.39
-904.01
-845.25
-751.53
-630.76
-507.28
-407.71
-352.93
-339.95
-356.58
-389.79
-421.07
-438.88
-443.58
-443.85
-448.16
-461.81
-477.33
-485.66
-481.70
-461.71
-427.13
-384.62
-341.96
-303.76
-271.22
-239.99
-206.79
-171.60
-134.82
-96.28
-55.11
-10.08
38.38
86.28
128.04
157.52
171.19
169.66
157.12
138.55
118.02
98.39
82.03
71.11
66.38
65.82
64.24
55.69
37.22
11.89
-11.67
-23.40
-17.02
6.14
37.89
67.02
84.63
87.75
79.81
67.85
57.98
52.54
49.12
43.65
33.77
20.96
9.62
3.59
2.96
3.21
-2.30
-18.46
-45.47
-78.91
-112.59
-141.91
-165.01
-180.90
-187.96
-183.52
-165.65
-134.88
-94.36
-48.21
0.84
52.66
108.96
169.96
231.46
284.49
318.67
326.79
307.20
263.27
201.06
127.51
49.19
-27.83
-97.26
-152.32
-186.82
-194.88
-176.31
-140.81
-103.90
-77.64
-65.33
-63.20
-65.30
-66.86
-66.41
-65.32
-65.52
-67.33
-69.04
-68.35
-63.62
-54.55
-41.16
-24.56
-6.39
11.72
29.27
46.91
65.65
86.26
109.25
136.29
168.55
205.55
244.35
279.65
304.99
314.93
307.64
280.36
238.22
189.97
143.79
104.58
72.79
45.78
20.54
-4.65
-30.03
-54.12
-75.76
-94.45
-109.58
-120.10
-125.11
-124.56
-119.99
-115.21
-114.10
-119.73
-133.47
-154.74
-181.63
-212.45
-244.67
-275.66
-303.36
-325.30
-338.98
-342.20
-333.07
-310.09
-274.10
-226.42
-170.08
-109.91
-50.39
5.85
58.81
110.64
165.99
221.76
270.36
306.68
325.02
321.98
298.94
261.37
215.47
172.56
135.22
103.57
75.25
46.97
16.90
-14.41
-45.23
-73.64
-97.90
-117.71
-131.09
-134.90
-125.71
-100.85
-60.36
-8.71
45.43
91.17
117.48
118.62
95.33
54.81
7.74
-36.05
-71.85
-100.72
-126.76
-153.69
-180.50
-202.34
-212.77
-208.60
-193.35
-176.64
-169.13
-176.13
-194.49
-213.44
-220.57
-206.39
-167.78
-108.74
-37.78
35.72
104.59
164.19
211.34
239.22
240.62
215.33
172.91
127.63
89.60
61.15
38.80
17.74
-4.77
-26.37
-40.58
-41.68
-27.83
-2.07
29.37
60.11
85.42
99.81
101.01
92.34
80.00
68.98
61.96
55.46
45.95
32.39
16.11
0.64
-10.15
-15.27
-14.51
-9.36
-1.21
8.71
18.96
28.04
35.60
42.67
50.90
62.01
72.49
78.96
77.99
67.92
50.36
30.96
16.14
9.68
12.91
19.58
22.52
16.35
-0.90
-27.37
-58.56
-89.29
-116.51
-138.58
-156.92
-173.14
-187.71
-198.58
-200.94
-190.32
-164.89
-127.04
-82.01
-36.25
5.89
42.51
72.58
95.12
108.12
110.58
103.98
93.32
85.13
85.15
95.16
112.07
130.15
142.72
144.86
134.44
111.62
77.60
33.62
-19.30
-79.63
-142.92
-202.40
-248.89
-273.30
-269.94
-238.41
-185.02
-119.81
-53.00
10.01
67.95
122.11
174.16
223.99
269.92
309.56
341.25
364.32
379.72
387.16
384.86
371.03
345.11
309.07
266.62
221.88
169.77
110.53
48.65
-8.73
-54.76
-85.74
-101.49
-104.93
-100.44
-94.00
-89.37
-89.20
-95.48
-107.94
-123.25
-134.62
-133.65
-113.85
-71.02
-9.34
58.33
114.83
145.94
145.93
119.42
77.86
33.60
-5.25
-36.58
-63.01
-88.74
-116.52
-147.46
-181.59
-219.03
-259.66
-301.53
-339.89
-367.06
-375.06
-357.75
-314.32
-250.07
-175.38
-102.65
-41.76
2.35
30.55
46.43
53.63
53.26
44.51
27.39
4.76
-16.64
-28.92
-26.98
-12.68
5.30
15.24
8.37
-16.47
-52.68
-88.65
-113.11
-118.73
-104.59
-74.12
-32.50
14.75
62.42
104.03
132.61
142.36
131.45
102.91
64.95
28.29
1.77
-8.42
-2.60
12.01
24.73
28.02
20.80
9.03
2.05
7.89
30.19
65.50
104.54
136.78
153.95
150.01
123.67
78.17
19.99
-42.25
-99.69
-143.72
-167.25
-161.03
-126.57
-75.26
-23.79
13.27
29.21
26.04
11.76
-3.97
-13.75
-14.90
-7.39
5.90
20.44
30.98
32.23
20.35
-5.53
-43.05
-86.65
-124.46
-145.23
-144.05
-125.18
-99.36
-78.13
-66.17
-61.84
-58.17
-46.98
-24.04
8.65
44.28
75.22
97.32
112.02
120.70
128.96
142.50
163.62
190.89
221.39
253.29
287.02
322.92
359.27
391.86
413.67
416.80
396.21
352.76
293.86
230.52
171.00
119.18
75.19
37.18
2.89
-29.23
-59.73
-88.61
-116.34
-146.94
-185.40
-235.06
-296.00
-365.46
-438.34
-507.55
-564.69
-586.13
-555.32
-472.55
-357.59
-238.16
-136.02
-60.49
-10.33
21.24
41.49
53.34
57.90
56.73
54.15
55.35
63.57
78.88
98.00
115.52
124.50
120.72
102.12
73.62
43.00
16.78
-1.76
-13.64
-22.83
-34.30
-48.89
-63.54
-71.91
-68.33
-50.71
-20.82
15.60
50.94
79.09
98.67
111.61
122.93
137.70
153.82
168.73
182.72
191.79
188.55
170.40
139.39
102.72
69.35
46.29
36.75
38.10
44.05
49.57
53.82
58.28
64.72
72.43
77.68
76.50
65.68
44.79
17.18
-9.48
-27.87
-34.27
-30.20
-23.34
-18.09
-16.74
-20.03
-28.03
-38.61
-51.99
-69.45
-92.10
-119.18
-146.61
-169.62
-183.99
-187.84
-181.73
-168.90
-153.12
-136.76
-119.90
-100.81
-79.13
-57.29
-40.26
-33.48
-40.72
-62.36
-94.23
-128.45
-155.72
-168.85
-164.12
-141.40
-102.73
-51.93
4.69
58.80
101.17
124.66
126.45
110.38
86.11
65.43
58.06
65.98
81.36
91.62
89.26
76.13
60.59
50.24
46.80
45.03
37.52
20.37
-4.19
-28.72
-44.62
-45.77
-30.72
-2.57
36.16
77.02
111.26
133.78
146.81
152.38
149.13
133.51
100.56
50.71
-10.61
-73.97
-130.03
-173.86
-207.52
-237.82
-271.87
-312.44
-355.62
-393.17
-415.38
-415.61
-393.12
-353.42
-304.92
-254.74
-205.71
-156.16
-103.19
-44.95
17.48
80.50
139.46
191.07
234.87
272.78
307.98
342.58
377.98
414.87
453.68
493.56
531.48
562.21
579.58
578.74
557.07
515.83
459.49
394.24
325.42
256.09
187.31
119.50
53.66
-9.95
-71.52
-132.08
-192.60
-253.43
-313.96
-372.27
-425.24
-459.90
-464.48
-434.86
-378.72
-310.55
-243.71
-186.42
-142.03
-111.03
-92.47
-85.87
-87.97
-94.05
-97.40
-91.10
-71.13
-38.20
3.05
42.18
68.67
77.31
69.18
50.71
29.67
11.91
0.21
-4.90
-3.63
3.18
13.92
25.26
33.43
35.41
29.50
16.68
1.17
-10.20
-10.50
3.15
27.51
54.64
75.48
84.03
80.23
67.36
51.05
39.25
36.27
39.82
43.21
40.56
30.66
17.09
4.64
-3.52
-7.44
-9.90
-13.92
-20.40
-27.80
-33.59
-35.75
-34.02
-29.79
-25.15
-22.48
-23.10
-26.79
-31.76
-35.84
-37.42
-36.26
-33.23
-29.77
-27.57
-27.53
-29.46
-31.99
-33.44
-32.43
-28.49
-22.16
-14.32
-6.43
0.50
6.14
11.11
16.35
22.81
30.86
40.06
49.43
57.62
63.89
67.86
70.36
72.19
74.41
77.49
81.60
86.70
92.42
98.29
102.71
103.77
98.99
86.91
67.71
43.66
18.83
-2.75
-17.80
-25.34
-25.92
-21.41
-13.61
-4.13
5.12
12.08
13.87
8.47
-4.91
-24.39
-46.36
-66.13
-79.21
-83.50
-78.69
-67.11
-51.59
-35.72
-22.07
-12.79
-8.54
-8.10
-9.85
-11.54
-12.13
-11.41
-10.47
-9.99
-10.08
-10.10
-8.97
-7.99
-10.31
-20.81
-42.71
-75.46
-112.88
-145.94
-166.46
-167.17
-148.00
-115.16
-79.15
-49.07
-31.10
-22.69
-17.65
-10.48
2.60
22.19
46.14
69.78
88.03
96.60
93.04
76.56
47.49
7.23
-42.77
-99.25
-156.32
-204.88
-235.15
-240.44
-219.98
-179.51
-127.83
-74.12
-24.39
18.23
52.82
79.42
98.09
109.79
116.73
123.00
133.05
150.05
174.51
203.89
233.66
258.12
272.36
272.91
258.91
231.53
193.25
146.80
94.75
39.95
-14.27
-63.44
-103.58
-131.51
-146.76
-149.87
-142.52
-127.03
-104.58
-76.63
-45.15
-15.01
7.96
18.62
14.63
-2.27
-26.76
-51.44
-70.56
-81.20
-84.06
-82.63
-80.97
-81.63
-84.38
-87.46
-89.03
-88.93
-88.17
-88.15
-88.91
-88.48
-83.51
-70.50
-48.15
-17.39
18.82
58.10
98.90
139.95
179.25
212.53
234.41
239.72
226.67
194.10
146.55
91.98
38.32
-9.75
-52.09
-89.78
-122.02
-143.83
-147.82
-127.71
-83.68
-22.95
41.44
94.47
124.86
128.68
111.25
84.01
60.56
51.07
59.50
83.05
114.27
145.04
167.29
174.80
163.75
134.19
90.55
40.60
-5.69
-40.62
-61.07
-69.99
-72.71
-74.46
-78.18
-83.65
-89.55
-94.20
-97.40
-99.34
-99.29
-96.04
-88.95
-78.96
-68.49
-61.77
-61.71
-69.17
-81.38
-93.66
-101.27
-100.95
-92.37
-76.64
-56.38
-33.83
-11.79
7.45
22.01
31.11
36.19
39.55
44.25
51.41
60.09
67.07
69.20
65.06
55.66
44.33
34.06
26.82
21.50
15.75
6.83
-6.11
-21.25
-35.58
-45.81
-51.06
-52.39
-53.04
-55.96
-62.22
-69.81
-74.01
-70.23
-55.74
-32.77
-7.17
13.25
23.03
21.71
13.22
4.01
-1.40
-1.90
-0.03
1.24
0.28
-2.04
-3.78
-4.55
-5.91
-12.01
-26.23
-49.90
-80.24
-111.06
-133.89
-140.14
-124.41
-85.93
-30.69
30.66
85.46
124.22
143.54
146.24
139.07
127.88
115.93
103.35
89.37
73.90
57.93
43.46
32.17
25.55
24.12
27.99
36.36
47.19
56.55
59.15
50.38
27.64
-8.11
-50.72
-92.39
-124.53
-139.04
-130.11
-96.63
-42.70
21.67
83.12
127.91
146.25
135.04
99.09
49.44
-0.71
-39.01
-57.56
-53.27
-28.77
7.02
41.79
63.66
65.91
48.54
17.94
-16.42
-45.70
-64.78
-71.98
-68.49
-57.86
-44.92
-35.27
-33.59
-42.00
-60.05
-83.79
-107.17
-123.81
-129.46
-123.46
-109.30
-92.59
-79.08
-73.25
-76.35
-86.13
-97.06
-102.52
-96.05
-74.61
-40.06
2.15
43.72
77.72
100.63
112.95
118.54
122.33
127.81
133.42
140.60
146.92
149.00
144.01
128.68
104.07
74.62
45.97
22.47
6.20
-4.20
-10.43
-12.28
-6.66
11.47
44.39
88.21
132.80
165.75
176.76
162.57
127.56
78.18
24.40
-24.86
-64.78
-95.38
-118.80
-136.62
-147.09
-147.16
-135.60
-114.63
-91.01
-73.42
-68.76
-78.69
-98.73
-119.42
-129.50
-120.69
-90.58
-43.95
8.93
56.42
89.38
103.89
101.84
89.30
73.89
62.44
58.70
62.10
68.49
70.70
62.30
40.56
8.68
-24.52
-48.41
-55.43
-44.55
-19.57
11.23
39.65
62.12
81.31
101.84
123.80
141.71
143.49
118.93
65.59
-8.36
-87.16
-154.22
-195.69
-205.07
-186.32
-152.25
-117.97
-94.90
-85.99
-86.75
-89.38
-86.66
-76.12
-57.69
-32.74
-1.96
33.98
74.30
117.08
156.61
187.07
205.44
211.60
206.08
192.15
168.75
135.32
92.91
44.50
-5.69
-53.95
-98.13
-136.01
-164.54
-181.28
-183.88
-171.17
-143.94
-105.11
-60.13
-15.65
17.48
28.04
8.37
-39.43
-101.87
-158.25
-188.80
-182.65
-142.05
-83.30
-21.71
31.72
73.32
105.46
133.50
161.84
192.62
226.25
262.02
297.46
328.90
351.06
357.37
341.93
301.22
236.99
156.07
68.20
-16.58
-91.25
-153.01
-202.88
-243.94
-280.21
-313.33
-341.85
-361.51
-366.83
-353.64
-320.86
-271.19
-204.75
-127.63
-49.38
19.26
69.16
95.28
97.51
80.74
52.10
19.65
-10.11
-32.13
-42.34
-39.33
-24.54
-3.25
16.41
25.12
15.60
-15.35
-65.25
-126.68
-190.68
-248.69
-294.24
-322.22
-328.71
-310.75
-267.68
-202.49
-121.78
-35.85
44.56
110.12
155.57
180.39
188.28
185.79
179.53
174.72
173.18
174.14
175.24
174.21
170.12
162.88
153.51
142.91
132.62
124.35
119.91
120.05
122.72
123.85
117.87
101.61
75.70
45.70
19.28
2.48
-2.82
-0.40
3.78
4.20
-0.66
-8.82
-16.00
-18.85
-16.91
-11.48
-5.27
0.20
4.25
6.99
8.10
6.58
1.52
-7.38
-18.17
-27.91
-32.94
-30.60
-19.17
1.70
30.97
66.88
103.06
132.77
149.61
150.58
136.87
113.69
87.22
61.55
38.39
17.28
-1.89
-18.50
-30.65
-36.91
-36.85
-31.91
-25.11
-19.47
-16.89
-17.02
-18.01
-16.46
-9.90
3.57
24.18
49.97
76.64
97.71
106.34
97.32
69.61
25.73
-25.30
-72.57
-107.69
-127.44
-133.73
-131.10
-123.96
-114.81
-104.50
-93.02
-81.22
-70.83
-63.35
-59.17
-57.31
-56.08
-53.90
-50.24
-45.45
-40.67
-37.07
-35.03
-34.00
-32.98
-31.23
-28.77
-26.41
-25.07
-25.38
-27.15
-29.20
-30.09
-28.88
-25.70
-21.77
-18.71
-17.79
-19.75
-24.69
-31.73
-38.75
-42.58
-39.26
-25.67
-0.92
32.22
67.90
99.45
121.73
133.27
136.31
135.45
134.96
135.47
135.10
129.75
114.38
86.67
50.36
12.36
-19.84
-41.30
-51.22
-52.69
-50.38
-47.91
-46.27
-44.22
-40.45
-34.85
-29.07
-25.25
-24.70
-27.12
-30.73
-33.36
-33.29
-30.62
-26.69
-23.28
-21.67
-21.98
-23.38
-24.59
-24.65
-23.42
-21.71
-20.66
-20.99
-22.55
-24.36
-25.37
-24.86
-22.97
-20.55
-18.73
-18.44
-20.21
-24.18
-29.86
-35.94
-39.82
-38.34
-28.85
-10.96
12.85
37.74
58.46
72.08
78.59
80.40
79.93
77.52
71.05
57.49
35.72
8.22
-18.96
-38.82
-46.41
-41.15
-26.81
-9.43
5.57
15.77
22.21
28.17
36.78
49.28
64.30
78.58
88.20
89.99
82.79
67.94
49.25
32.36
23.39
26.92
43.36
68.12
92.34
106.21
102.48
79.29
41.27
-1.65
-37.30
-55.17
-50.37
-25.12
11.86
48.06
71.67
75.83
60.77
32.78
0.62
-28.62
-51.43
-67.67
-79.03
-87.10
-92.73
-97.04
-103.31
-112.37
-127.56
-150.67
-180.01
-210.13
-233.52
-243.22
-235.89
-213.48
-182.26
-150.47
-124.62
-107.52
-97.78
-91.82
-85.39
-76.38
-65.37
-54.66
-46.80
-42.40
-40.55
-38.64
-34.39
-25.30
-10.17
10.96
37.24
67.29
99.80
132.90
165.15
188.10
194.49
182.22
156.21
124.09
92.66
70.77
58.92
56.26
60.22
68.65
78.79
85.28
84.37
73.88
53.93
26.33
-3.71
-30.25
-47.18
-52.04
-47.03
-38.07
-31.48
-30.20
-32.59
-32.24
-23.38
-3.50
23.62
50.04
67.55
72.07
65.89
55.19
47.82
47.56
54.04
62.48
67.29
64.69
54.49
40.37
26.85
18.57
16.80
20.05
24.49
26.37
23.94
17.86
11.18
6.17
4.04
2.96
0.07
-7.49
-20.43
-36.49
-51.57
-60.50
-60.50
-51.13
-35.71
-19.16
-6.63
-1.50
-3.78
-10.86
-17.34
-18.64
-11.70
2.80
21.81
41.36
57.44
67.75
70.82
67.28
58.29
46.15
33.04
20.92
11.91
6.92
6.51
9.78
15.83
22.75
29.15
34.09
35.59
35.49
37.39
44.74
55.76
64.42
62.78
46.70
18.05
-16.27
-46.44
-66.26
-74.81
-76.14
-74.43
-73.09
-72.89
-72.13
-68.82
-60.49
-47.32
-30.99
-14.44
0.16
11.89
20.28
25.53
26.90
24.19
16.22
3.24
-13.52
-30.84
-44.80
-52.60
-52.86
-47.48
-39.36
-32.52
-29.47
-31.54
-38.25
-47.51
-56.96
-63.24
-64.37
-59.14
-48.92
-36.18
-24.16
-15.87
-12.81
-15.93
-24.29
-36.79
-51.02
-64.56
-74.40
-78.10
-75.01
-65.92
-54.24
-43.16
-35.58
-31.95
-31.49
-32.41
-32.69
-31.27
-26.65
-18.27
-5.22
11.97
32.14
52.85
70.86
83.42
87.92
83.97
72.27
55.84
38.17
23.14
13.88
11.42
15.32
22.88
31.32
37.58
40.11
38.01
31.93
24.45
19.09
20.41
30.78
49.89
73.65
96.46
112.82
119.18
115.20
102.24
83.12
60.11
36.06
14.57
0.08
-4.18
1.16
11.55
19.22
17.31
2.19
-24.48
-55.95
-83.35
-98.90
-98.62
-81.47
-49.41
-5.22
45.34
92.88
127.85
144.80
145.37
135.27
120.95
105.76
90.30
75.19
57.79
37.18
13.91
-10.91
-37.36
-65.82
-96.99
-128.23
-155.05
-172.95
-178.70
-172.33
-156.97
-137.79
-119.01
-103.18
-90.24
-79.35
-69.89
-61.01
-52.96
-45.85
-40.22
-35.12
-28.97
-19.70
-6.15
10.99
30.58
50.38
67.98
80.86
87.72
88.04
82.84
74.19
64.96
57.33
53.81
54.77
57.24
57.49
52.36
41.39
26.92
11.92
-0.41
-9.49
-16.00
-21.88
-28.01
-33.94
-38.68
-41.40
-43.01
-44.39
-46.65
-49.02
-49.66
-45.91
-36.48
-23.11
-9.38
-0.33
1.51
-3.63
-11.80
-18.25
-19.53
-15.00
-7.71
-1.23
1.19
-0.50
-5.17
-10.09
-13.05
-13.08
-9.94
-4.45
3.25
12.23
21.78
29.91
35.08
36.56
34.94
32.23
30.14
29.96
31.02
32.79
34.69
36.99
39.93
42.61
43.06
38.96
29.75
16.83
4.17
-4.17
-5.79
-1.15
6.80
14.53
19.21
19.97
16.67
10.31
1.80
-7.56
-15.76
-20.51
-19.57
-12.77
-1.54
10.43
19.80
23.93
22.35
16.47
8.77
2.62
0.37
4.33
15.10
32.26
53.33
74.95
93.58
106.20
111.45
107.99
96.07
76.68
52.84
28.64
8.51
-3.87
-8.06
-6.29
-4.53
-8.29
-20.71
-41.04
-65.93
-92.16
-117.34
-141.00
-162.50
-182.38
-200.45
-216.36
-229.34
-238.83
-244.67
-245.80
-240.52
-218.68
-174.99
-112.80
-45.19
12.22
49.16
63.40
59.83
45.84
28.32
10.66
-6.57
-22.64
-35.06
-39.51
-32.33
-12.17
18.54
54.28
88.68
116.58
135.86
147.54
154.26
157.93
159.03
156.73
147.03
130.98
110.91
89.90
71.38
57.65
49.35
45.40
43.45
41.22
37.78
32.81
27.33
24.21
25.22
31.59
43.62
60.19
78.48
94.20
101.63
94.19
70.91
35.80
-3.22
-37.45
-60.82
-71.80
-72.80
-68.49
-62.86
-57.29
-51.57
-44.96
-37.55
-30.58
-25.57
-23.15
-22.80
-23.03
-21.89
-18.25
-12.22
-4.92
2.03
7.32
10.51
12.05
12.96
14.35
16.74
19.60
22.13
23.11
21.56
17.21
10.48
2.40
-5.87
-13.13
-18.56
-21.78
-22.74
-21.62
-18.67
-14.24
-8.75
-2.92
2.68
7.41
10.64
11.80
10.49
6.54
0.04
-7.13
-14.91
-22.57
-29.23
-34.12
-36.93
-37.89
-37.74
-37.39
-37.58
-38.80
-40.67
-42.38
-43.11
-42.47
-40.82
-39.11
-38.50
-39.83
-43.32
-48.11
-52.75
-56.04
-57.35
-56.99
-56.05
-55.72
-57.05
-60.84
-67.48
-76.81
-87.46
-96.38
-99.19
-91.66
-71.81
-41.59
-6.68
25.68
49.58
62.76
66.96
66.39
65.08
65.22
66.69
68.34
69.34
69.85
70.65
72.22
74.03
74.40
71.91
65.54
55.55
43.34
30.92
20.14
11.98
6.42
2.47
-1.08
-5.20
-10.16
-15.51
-20.42
-24.14
-26.41
-27.60
-28.52
-30.00
-32.53
-36.10
-40.07
-43.66
-46.11
-47.17
-46.95
-45.89
-44.35
-42.35
-39.42
-34.63
-27.22
-16.92
-4.26
9.55
22.90
34.46
43.53
50.34
55.97
61.53
67.61
73.81
78.96
81.50
80.36
75.61
68.58
61.44
56.14
53.86
54.65
58.35
64.56
72.73
81.34
86.52
85.28
76.00
60.36
43.39
31.19
27.46
31.13
36.33
35.78
24.88
3.46
-24.12
-51.85
-74.13
-87.58
-90.85
-84.32
-69.73
-49.18
-26.17
-4.23
13.34
24.25
26.59
19.02
1.66
-23.26
-50.20
-72.25
-83.22
-81.10
-68.55
-51.26
-34.72
-21.56
-11.46
-2.40
6.63
15.19
21.14
22.42
18.47
10.44
1.42
-5.50
-7.79
-5.11
0.68
5.94
6.94
2.23
-6.88
-15.91
-20.31
-17.43
-8.36
2.83
11.39
14.25
11.76
6.68
2.66
2.05
5.21
10.61
16.12
20.21
22.17
22.12
19.85
14.51
4.71
-10.18
-28.59
-46.39
-58.02
-59.43
-50.13
-34.13
-18.21
-8.60
-8.14
-14.89
-24.21
-31.04
-33.10
-31.16
-28.09
-26.69
-28.50
-33.76
-41.88
-51.49
-60.07
-64.11
-59.19
-42.40
-13.70
22.74
59.93
90.72
110.52
119.42
120.45
117.79
113.83
108.86
101.34
89.76
73.75
53.87
32.16
10.59
-8.54
-22.70
-29.46
-27.24
-16.40
0.64
19.62
36.46
47.52
50.29
43.45
27.39
5.21
-17.82
-34.63
-40.47
-34.47
-22.91
-15.75
-21.97
-44.02
-75.18
-103.07
-115.81
-112.00
-96.57
-79.10
-67.67
-64.48
-66.18
-65.89
-59.31
-47.06
-34.61
-27.49
-28.90
-36.96
-45.76
-49.61
-45.54
-36.44
-29.40
-32.26
-48.03
-74.09
-104.33
-131.42
-149.90
-156.42
-151.41
-136.31
-112.35
-79.19
-35.38
19.43
83.92
153.50
222.31
283.05
329.31
357.00
364.98
355.12
330.26
293.98
243.48
180.38
110.40
42.87
-12.60
-50.95
-72.52
-82.54
-86.91
-89.54
-90.04
-86.02
-76.47
-62.79
-49.69
-41.02
-39.00
-42.14
-46.45
-46.65
-39.05
-23.78
-3.89
15.25
29.19
34.97
32.96
25.92
17.05
10.47
8.16
10.08
13.41
15.29
13.68
8.96
3.28
-1.46
-3.99
-5.85
-8.94
-14.92
-23.27
-31.84
-37.80
-38.87
-35.25
-28.06
-20.21
-13.94
-10.58
-9.55
-9.17
-7.85
-4.49
-0.20
3.59
4.62
2.00
-3.91
-11.28
-17.38
-20.49
-19.39
-15.02
-8.64
-2.29
2.81
6.18
7.84
8.58
8.33
7.50
5.77
3.70
1.88
1.35
3.00
6.16
9.76
11.31
9.44
3.53
-4.95
-13.79
-20.79
-24.21
-24.22
-21.04
-15.88
-9.23
-1.82
5.97
13.78
20.65
26.17
29.12
29.16
25.66
19.04
10.12
0.55
-7.33
-12.06
-12.37
-9.12
-3.67
1.75
5.76
7.91
8.45
8.44
7.82
6.58
3.75
-0.83
-6.90
-13.11
-17.48
-18.91
-16.65
-12.03
-6.70
-2.98
-2.15
-4.32
-8.46
-12.45
-14.97
-14.72
-12.17
-8.07
-3.80
0.01
3.67
7.58
12.51
17.76
22.56
25.28
25.06
21.69
16.09
10.16
5.18
2.30
1.41
2.60
5.37
9.44
14.45
19.27
22.93
23.70
20.59
13.50
4.56
-3.71
-9.57
-13.14
-17.50
-26.19
-42.24
-65.85
-93.99
-120.80
-140.62
-150.27
-149.10
-139.24
-123.09
-99.40
-70.32
-41.43
-18.49
-3.88
3.91
9.16
13.93
17.84
18.07
12.48
3.14
-3.45
0.75
18.56
48.05
80.77
106.73
118.17
113.03
95.96
75.47
59.69
51.76
50.39
50.23
46.24
36.34
22.27
8.91
0.94
0.36
4.55
8.56
6.89
-3.32
-21.41
-44.27
-67.57
-88.27
-104.84
-117.55
-124.34
-123.21
-112.95
-94.73
-73.33
-55.30
-43.21
-35.91
-30.81
-24.33
-14.25
-0.65
14.49
27.45
35.68
38.25
36.42
32.79
30.57
32.10
37.46
45.57
53.63
59.47
61.55
59.92
56.10
53.18
54.92
63.30
78.64
97.86
116.67
130.48
136.67
135.44
128.78
119.79
109.64
98.41
84.56
67.21
46.73
25.22
6.34
-6.84
-11.71
-8.28
2.01
16.16
31.12
44.36
53.57
57.48
54.62
44.95
29.19
10.09
-8.73
-23.59
-32.06
-34.76
-33.96
-33.54
-35.96
-41.96
-49.85
-56.92
-61.07
-61.20
-58.49
-54.47
-51.19
-49.44
-49.23
-49.75
-49.90
-49.60
-49.08
-49.81
-52.69
-58.22
-65.12
-71.31
-75.04
-75.31
-73.13
-70.22
-69.17
-71.77
-78.89
-89.50
-101.20
-111.65
-118.20
-119.45
-114.55
-104.17
-89.66
-72.89
-54.78
-35.29
-14.93
6.01
26.05
43.45
55.99
61.82
59.60
49.38
32.29
8.74
-20.10
-52.52
-85.60
-113.24
-128.18
-129.34
-117.56
-92.47
-56.56
-13.60
31.91
76.02
116.43
152.23
183.94
210.35
229.93
240.26
240.14
230.15
212.50
190.40
166.10
141.17
116.63
93.91
74.58
61.19
57.02
62.75
76.88
94.96
110.60
117.07
109.06
84.65
46.42
0.22
-47.24
-90.60
-127.35
-156.85
-180.82
-203.00
-226.57
-251.93
-275.87
-292.24
-294.11
-276.34
-237.96
-179.63
-109.07
-36.84
27.10
76.08
108.35
123.05
120.03
100.58
70.85
41.33
24.43
28.85
55.14
93.12
125.63
137.15
121.86
85.73
41.62
2.69
-23.78
-37.39
-42.38
-43.77
-44.65
-46.03
-48.18
-51.93
-56.65
-60.21
-58.35
-46.33
-21.41
15.48
59.06
99.77
128.93
142.26
140.53
128.31
111.10
93.46
78.66
69.08
66.29
70.27
78.02
82.91
77.78
56.77
18.85
-30.80
-82.43
-125.49
-152.45
-159.35
-149.45
-129.69
-107.00
-85.60
-66.84
-50.54
-36.52
-25.08
-16.74
-11.90
-9.87
-9.34
-8.63
-6.75
-3.64
-0.02
3.10
4.97
5.17
4.16
2.87
2.32
3.07
5.02
7.51
9.73
11.09
11.28
10.60
9.70
9.27
9.68
10.88
12.50
14.06
15.18
15.69
15.71
15.58
15.65
16.10
16.96
18.11
19.37
20.62
21.78
22.85
23.80
24.69
25.44
25.92
25.95
25.38
24.04
21.90
18.98
15.36
11.24
6.83
2.43
-1.72
-5.34
-8.24
-10.28
-11.48
-11.86
-11.56
-10.76
-9.65
-8.42
-7.22
-6.15
-5.26
-4.56
-3.99
-3.38
-2.57
-1.32
0.57
3.28
6.94
11.59
16.99
22.85
28.81
34.51
39.62
43.89
47.22
49.70
51.62
53.05
54.25
55.51
57.13
59.31
62.19
65.80
70.25
75.65
81.68
88.21
95.23
102.84
111.16
120.27
130.18
140.86
152.26
163.61
174.25
183.57
191.02
195.99
197.83
195.67
188.06
177.87
166.13
153.70
141.25
129.37
118.43
108.67
100.12
92.74
86.60
81.20
76.40
72.29
69.21
67.56
67.81
70.37
75.48
83.30
93.27
104.75
117.01
129.13
140.03
148.53
153.44
153.76
148.90
138.42
122.49
101.72
76.91
48.81
17.88
-15.67
-51.79
-90.36
-131.15
-173.56
-216.84
-260.17
-303.04
-345.15
-386.37
-426.61
-465.84
-504.26
-542.23
-579.90
-616.50
-649.75
-675.97
-690.86
-690.93
-674.66
-642.88
-598.30
-544.49
-484.97
-422.80
-360.71
-301.41
-247.64
-201.95
-166.07
-140.50
-124.19
-114.81
-109.20
-104.00
-96.47
-85.06
-69.66
-51.54
-32.85
-16.06
-3.28
4.09
6.02
4.36
3.02
7.64
24.40
58.26
111.25
181.34
262.56
346.19
422.94
485.07
527.97
550.45
553.93
541.07
514.46
475.96
426.81
368.22
302.01
231.09
159.26
90.92
30.24
-19.57
-56.82
-81.56
-95.43
-100.86
-100.02
-94.15
-83.40
-67.56
-46.93
-23.05
1.39
23.30
40.16
50.71
55.02
53.98
48.57
39.34
26.34
9.59
-10.44
-32.36
-53.80
-71.85
-83.73
-87.65
-83.47
-72.64
-57.89
-42.09
-27.46
-15.00
-4.69
3.93
11.12
16.60
19.92
20.98
20.45
19.74
20.36
23.16
27.93
33.39
37.95
40.30
40.08
38.10
35.87
35.01
36.64
41.31
49.04
59.56
72.07
85.45
98.34
109.22
116.64
119.20
115.62
104.64
85.28
56.85
19.98
-22.94
-68.29
-112.62
-154.09
-193.40
-233.51
-278.31
-331.51
-393.51
-459.76
-521.41
-568.11
-591.46
-587.24
-555.94
-501.94
-434.63
-364.48
-300.70
-249.60
-214.12
-193.17
-180.91
-167.83
-143.31
-102.71
-45.59
25.81
107.79
194.56
277.69
347.13
392.95
408.12
386.24
328.09
243.04
146.30
52.33
-29.76
-96.26
-147.48
-157.39
-110.96
-14.99
103.15
214.93
304.69
369.07
411.42
435.43
447.43
446.21
428.70
394.53
347.59
292.57
231.54
170.81
117.52
77.56
49.89
29.63
12.71
-0.83
-8.89
-10.11
-3.89
9.82
22.92
33.48
39.54
40.62
39.75
40.87
45.53
54.02
66.17
79.22
87.95
91.67
87.74
75.87
56.56
28.01
-11.27
-60.55
-106.60
-136.42
-144.79
-134.81
-112.25
-82.38
-51.01
-32.98
-25.00
-22.92
-22.06
-22.06
-24.43
-30.51
-33.98
-37.06
-43.57
-55.55
-75.60
-102.93
-139.41
-186.85
-244.60
-294.71
-324.73
-329.59
-312.66
-306.30
-316.00
-341.54
-382.47
-424.14
-457.81
-479.60
-486.51
-476.11
-448.45
-403.09
-345.26
-281.47
-216.20
-153.08
-95.69
-45.67
-2.99
33.94
69.57
105.20
141.15
177.99
215.08
250.53
282.73
310.85
336.49
363.02
391.22
420.41
450.19
479.65
507.47
532.07
551.80
567.39
579.18
585.15
582.08
568.45
544.76
513.27
477.03
439.15
405.43
379.19
359.86
342.94
323.09
295.17
254.84
198.71
106.44
-22.16
-167.73
-302.17
-407.30
-479.40
-524.24
-550.20
-564.39
-570.75
-567.57
-558.69
-543.67
-524.75
-504.04
-482.12
-458.24
-432.11
-404.80
-376.94
-351.85
-333.49
-326.44
-331.37
-343.96
-357.29
-365.92
-368.26
-365.15
-360.11
-356.28
-355.44
-355.88
-353.85
-345.78
-330.08
-306.81
-276.15
-238.60
-194.71
-146.07
-94.44
-41.87
9.59
58.07
102.62
143.69
182.25
219.77
256.78
293.25
328.24
360.28
387.58
408.68
423.02
430.60
432.21
428.49
419.99
406.76
388.56
364.98
335.64
300.64
260.17
215.01
165.88
113.86
60.02
5.68
-47.68
-98.50
-144.95
-185.54
-218.84
-244.03
-260.69
-268.84
-268.96
-261.70
-248.02
-228.73
-204.82
-177.01
-146.08
-112.73
-77.59
-41.45
-4.98
31.00
65.80
98.52
128.41
154.68
176.58
193.57
205.08
210.89
210.74
204.86
193.44
176.91
155.93
131.14
103.42
73.46
42.14
10.10
-21.89
-53.18
-83.16
-111.08
-136.37
-158.31
-176.47
-190.29
-199.59
-204.29
-204.47
-200.55
-192.97
-182.49
-169.73
-155.40
-140.03
-124.09
-107.88
-91.48
-75.02
-58.36
-41.55
-24.44
-7.07
10.58
28.44
46.26
63.93
81.10
97.58
112.94
126.80
138.69
148.08
154.51
157.41
156.42
151.13
141.47
127.41
109.17
87.26
62.23
34.91
6.02
-23.48
-52.88
-81.37
-108.40
-133.44
-155.99
-175.83
-192.65
-206.39
-216.84
-224.12
-228.18
-229.07
-226.86
-221.60
-213.50
-202.58
-188.98
-172.72
-153.87
-132.52
-108.77
-82.91
-55.13
-25.90
4.43
35.24
65.98
95.98
124.49
150.93
174.62
195.15
212.04
225.22
234.59
240.32
242.80
242.43
239.88
235.68
230.56
225.02
219.52
214.26
209.30
204.68
200.14
195.56
190.60
185.08
178.71
171.39
163.18
154.17
144.64
134.75
124.77
114.66
104.31
93.44
81.53
68.18
52.92
35.69
16.51
-4.08
-25.46
-46.73
-66.89
-85.09
-100.40
-112.19
-119.77
-122.83
-121.14
-114.95
-104.99
-92.27
-78.22
-64.09
-51.06
-39.62
-29.90
-21.65
-14.48
-8.28
-3.11
0.62
2.76
3.42
3.44
4.12
6.92
13.06
22.98
36.48
52.55
70.49
89.54
109.82
131.78
155.92
182.67
212.07
244.43
279.26
315.57
350.51
379.95
399.23
405.43
399.33
385.30
370.37
360.16
356.99
358.54
359.89
356.20
344.97
326.97
304.17
278.92
252.20
224.65
197.17
171.71
150.80
135.63
126.12
119.53
112.95
103.98
92.41
79.70
67.89
58.92
52.69
48.40
43.81
37.23
27.24
13.99
-0.88
-15.04
-25.23
-29.83
-28.36
-22.87
-16.04
-10.78
-8.98
-10.81
-16.26
-24.29
-34.52
-45.88
-57.33
-66.94
-72.53
-72.87
-67.33
-57.50
-45.31
-33.50
-23.72
-17.00
-13.51
-12.46
-13.47
-15.44
-18.11
-20.82
-23.59
-26.12
-27.95
-28.79
-27.62
-24.47
-19.27
-13.26
-7.65
-4.16
-3.96
-6.95
-12.67
-19.18
-25.18
-29.27
-31.44
-31.88
-31.05
-29.59
-27.25
-24.43
-21.03
-17.80
-15.25
-14.06
-14.70
-16.83
-20.30
-24.14
-28.06
-31.41
-33.98
-34.81
-32.81
-27.38
-18.20
-6.93
4.44
13.36
18.72
20.49
19.91
18.81
17.77
17.20
16.15
14.43
11.99
9.76
8.77
8.91
9.61
8.77
5.04
-2.55
-13.16
-24.91
-35.58
-43.16
-47.53
-49.19
-49.97
-50.93
-52.86
-55.09
-56.31
-55.61
-51.93
-45.81
-37.85
-29.55
-21.84
-15.70
-11.63
-9.52
-9.72
-11.69
-15.42
-20.08
-25.12
-29.48
-32.05
-32.28
-29.43
-24.12
-16.86
-9.14
-1.96
3.58
6.74
7.60
5.86
2.21
-3.13
-9.22
-15.52
-21.00
-24.66
-26.10
-24.62
-20.89
-15.37
-9.44
-3.94
0.11
2.06
1.97
-0.41
-4.29
-9.34
-14.52
-19.37
-23.10
-25.06
-25.10
-22.67
-18.24
-12.00
-5.09
1.67
6.97
9.75
9.62
6.14
0.22
-7.40
-15.03
-21.51
-25.48
-26.17
-23.98
-19.66
-15.35
-12.61
-12.94
-16.20
-21.61
-27.63
-32.30
-34.75
-34.05
-30.69
-25.11
-18.55
-11.80
-5.44
-0.13
4.18
6.78
7.58
6.03
2.50
-2.52
-8.01
-12.64
-16.11
-18.00
-19.18
-19.98
-20.94
-21.62
-21.13
-19.00
-14.80
-9.79
-5.40
-3.74
-5.74
-11.45
-19.60
-27.71
-33.91
-36.43
-35.30
-31.25
-26.19
-21.59
-18.27
-16.27
-14.07
-10.59
-4.70
3.23
12.12
19.81
24.44
25.04
20.99
13.27
2.94
-7.46
-15.06
-16.48
-9.63
4.50
22.17
36.77
42.75
37.10
21.76
1.65
-17.48
-31.44
-39.66
-43.12
-43.92
-42.55
-38.80
-31.77
-21.57
-10.24
-0.32
5.04
4.49
-1.83
-11.67
-22.48
-31.72
-37.76
-40.76
-40.95
-39.56
-36.89
-33.24
-28.10
-21.22
-13.25
-5.10
0.87
3.05
-0.01
-7.92
-19.47
-32.35
-43.74
-51.74
-54.59
-52.19
-44.93
-34.49
-22.42
-10.25
0.71
10.27
17.90
23.90
27.95
30.22
30.50
29.00
26.47
23.30
20.65
18.79
18.33
19.12
21.28
24.40
27.53
29.74
29.22
25.08
16.55
4.33
-10.45
-25.73
-38.88
-47.82
-50.41
-46.32
-36.04
-21.81
-6.00
8.97
20.96
28.87
31.28
27.82
18.12
3.29
-14.90
-33.47
-48.85
-58.48
-60.22
-54.27
-41.70
-25.07
-6.78
10.65
25.04
35.02
38.96
36.46
27.34
12.96
-4.86
-23.29
-39.19
-50.34
-54.74
-52.32
-43.62
-30.60
-15.18
0.34
13.67
23.26
27.33
25.45
17.52
4.96
-10.46
-26.01
-38.67
-46.24
-46.76
-40.29
-27.64
-11.25
6.54
23.19
36.43
45.06
47.64
44.06
34.31
19.76
2.04
-16.25
-32.10
-43.19
-47.26
-44.00
-33.84
-18.99
-1.87
14.64
27.90
36.36
38.58
34.72
25.16
11.65
-3.91
-18.94
-30.77
-37.83
-38.95
-34.97
-27.09
-17.50
-7.64
1.18
8.00
12.47
13.60
11.35
5.50
-2.87
-12.58
-21.71
-28.35
-31.54
-30.48
-25.97
-18.79
-10.62
-2.53
4.22
8.72
10.75
9.81
6.54
1.30
-4.74
-10.82
-15.88
-18.99
-19.93
-18.32
-15.05
-10.78
-6.91
-4.10
-2.93
-3.50
-5.17
-7.82
-10.57
-13.35
-15.62
-17.49
-18.66
-18.75
-17.68
-14.81
-10.50
-4.93
0.79
5.87
9.21
10.16
8.85
5.27
0.53
-4.79
-9.56
-13.39
-15.74
-16.28
-15.24
-12.37
-8.41
-3.63
0.94
4.83
7.21
7.54
5.82
1.88
-3.32
-9.19
-14.35
-18.07
-19.48
-18.19
-14.68
-9.40
-4.03
0.22
1.72
-0.04
-5.20
-12.85
-21.04
-28.03
-31.53
-30.79
-25.66
-17.59
-8.12
1.22
9.11
15.35
19.24
20.74
19.23
14.88
7.92
-0.60
-8.95
-15.93
-20.06
-21.24
-19.51
-15.78
-10.60
-4.50
1.77
7.79
12.07
13.68
11.35
5.03
-4.76
-16.36
-27.25
-35.30
-38.19
-35.34
-26.91
-14.76
-1.05
11.95
22.15
28.70
30.74
28.60
22.43
13.08
1.50
-10.87
-22.04
-30.51
-34.65
-34.48
-30.42
-23.72
-14.67
-3.08
10.94
26.64
40.71
49.35
48.82
38.44
20.45
-0.10
-17.57
-28.69
-32.35
-30.57
-25.56
-19.32
-12.23
-4.19
4.29
12.12
16.73
16.46
10.27
-0.98
-15.22
-29.45
-40.56
-46.66
-46.44
-40.59
-30.16
-17.21
-3.27
10.29
22.14
31.42
36.43
36.27
30.06
18.62
3.56
-12.09
-24.77
-31.98
-31.87
-25.03
-13.01
1.34
15.59
27.62
35.96
40.10
39.14
33.16
22.07
7.11
-10.06
-26.68
-39.71
-47.19
-47.77
-42.42
-32.66
-20.96
-8.96
2.19
11.71
19.19
23.11
22.35
15.56
3.13
-13.26
-30.48
-44.39
-52.11
-51.71
-43.81
-29.99
-13.17
3.84
18.00
26.61
28.50
23.51
13.97
2.86
-6.43
-12.23
-14.34
-13.58
-11.38
-7.78
-2.88
3.93
11.94
19.94
25.98
28.46
27.13
22.15
14.98
6.45
-2.26
-10.35
-17.15
-21.53
-23.02
-20.90
-15.67
-7.95
0.51
8.11
13.33
15.40
15.24
14.02
13.69
14.70
16.60
17.38
15.54
11.06
5.18
0.85
-0.28
2.37
6.99
11.44
13.79
13.39
11.01
6.83
1.14
-7.02
-17.90
-31.11
-44.49
-54.68
-58.91
-55.28
-44.79
-29.78
-14.05
-0.46
9.15
14.43
16.33
15.35
12.39
7.37
0.82
-6.68
-13.39
-17.11
-16.46
-10.63
-1.22
9.58
18.74
24.51
26.17
24.24
20.06
14.07
6.87
-1.95
-12.00
-22.61
-31.86
-37.42
-37.87
-32.55
-23.15
-11.83
-1.57
5.88
9.71
10.32
9.07
6.69
4.12
1.19
-1.83
-4.94
-7.27
-7.73
-5.90
-1.55
3.87
9.02
12.15
12.86
11.35
8.51
5.57
2.58
-0.25
-3.66
-7.56
-11.80
-15.32
-16.93
-16.20
-12.85
-8.16
-3.15
0.66
2.78
2.93
1.31
-1.49
-5.51
-10.15
-15.35
-20.24
-24.32
-26.58
-26.29
-23.61
-18.69
-12.97
-7.41
-3.26
-0.68
0.35
0.18
-0.59
-2.30
-4.73
-8.25
-12.30
-16.43
-19.48
-20.44
-19.05
-15.09
-9.67
-3.54
1.92
6.11
8.27
8.17
6.29
3.00
-0.27
-2.63
-2.94
-1.10
2.79
8.13
13.73
18.89
22.17
22.96
20.45
14.93
6.87
-2.56
-11.67
-19.38
-24.26
-26.11
-24.73
-20.88
-15.10
-8.18
-1.34
4.55
7.79
7.58
3.18
-4.70
-15.01
-25.93
-35.28
-41.56
-43.02
-39.34
-30.45
-17.62
-2.28
13.63
27.77
38.29
42.83
40.38
30.51
14.78
-4.34
-23.33
-38.30
-46.76
-47.03
-39.88
-27.15
-12.40
1.05
10.67
15.68
18.13
20.78
26.82
37.03
50.29
63.21
72.54
76.38
74.03
66.84
55.92
43.04
29.57
17.66
9.28
5.46
5.99
8.07
8.62
4.60
-4.57
-17.70
-31.99
-44.02
-51.52
-52.66
-47.45
-36.35
-21.15
-3.72
13.72
28.70
39.46
43.89
41.30
31.42
15.76
-3.51
-22.92
-38.67
-48.02
-48.88
-41.79
-28.43
-12.10
4.25
17.97
27.43
32.35
32.36
28.09
19.71
8.22
-5.46
-19.45
-31.41
-39.50
-41.91
-38.75
-30.71
-19.86
-7.99
3.07
11.96
18.12
20.57
19.27
13.95
5.52
-4.98
-15.62
-24.22
-29.45
-30.02
-26.28
-18.73
-8.86
2.27
13.27
22.73
29.50
31.82
29.01
20.58
7.69
-7.90
-23.24
-35.04
-40.96
-39.22
-30.53
-16.64
-0.80
14.22
26.12
33.74
37.21
36.43
32.06
24.05
13.23
0.48
-12.17
-22.20
-27.86
-27.90
-23.36
-15.91
-8.25
-2.15
1.21
1.66
-0.03
-3.61
-8.21
-13.77
-19.62
-25.41
-30.09
-32.51
-32.08
-28.19
-21.75
-13.62
-5.55
1.37
6.08
8.16
8.09
6.28
4.19
2.67
2.88
5.03
9.29
15.33
22.03
28.38
32.40
32.90
28.86
20.92
10.34
-0.92
-10.65
-17.82
-21.48
-21.97
-19.51
-15.07
-9.26
-2.77
3.47
9.32
14.07
17.83
20.20
21.32
20.85
18.77
15.45
10.92
6.11
1.32
-2.59
-5.39
-6.51
-5.72
-3.42
0.08
3.33
5.44
5.18
2.49
-2.45
-8.78
-15.12
-20.69
-24.32
-25.85
-24.97
-22.20
-17.76
-12.11
-6.08
-0.08
4.60
7.37
7.32
4.53
-0.82
-7.87
-15.14
-21.54
-25.37
-25.99
-22.83
-16.48
-7.65
2.49
12.24
20.27
24.55
24.06
18.08
7.51
-6.12
-20.44
-32.75
-41.42
-44.92
-43.38
-37.16
-27.75
-16.41
-4.62
5.96
14.43
19.41
20.68
18.06
12.59
5.34
-2.10
-8.15
-12.19
-13.47
-12.38
-8.95
-3.77
3.02
10.89
18.82
25.89
30.40
31.63
28.95
23.08
14.81
5.54
-3.07
-9.89
-13.17
-12.22
-6.34
3.76
16.94
31.30
44.36
54.32
59.19
58.36
51.57
39.90
24.74
8.44
-6.02
-16.20
-19.67
-16.22
-6.73
6.03
19.31
30.52
37.76
40.44
37.79
30.01
17.09
0.22
-18.95
-37.64
-52.54
-61.27
-62.04
-55.40
-42.85
-27.32
-11.40
2.71
13.42
20.32
22.73
20.87
14.61
4.85
-7.38
-20.06
-30.64
-37.28
-38.33
-34.07
-25.39
-14.38
-2.78
7.83
16.27
22.08
24.28
22.68
16.81
7.36
-4.63
-17.08
-27.37
-33.65
-34.29
-29.64
-20.68
-9.66
1.50
11.09
17.96
21.97
22.69
20.55
15.48
8.18
-0.80
-10.08
-17.82
-22.70
-23.37
-20.23
-14.10
-6.95
-0.11
5.39
9.27
11.92
12.84
11.83
7.77
0.47
-9.71
-20.80
-29.98
-34.73
-33.22
-26.19
-15.42
-4.28
4.58
9.24
9.44
6.82
3.26
1.28
1.85
5.13
9.72
14.26
17.86
19.91
20.83
20.27
18.23
14.12
8.32
1.61
-4.62
-8.76
-10.64
-10.41
-9.60
-9.15
-9.90
-11.49
-13.13
-14.08
-13.24
-10.72
-6.43
-1.34
3.71
7.41
8.69
7.22
2.82
-3.28
-9.96
-15.41
-18.65
-18.97
-16.19
-11.30
-5.14
0.46
4.28
4.84
1.91
-4.13
-11.50
-17.40
-19.70
-16.73
-9.40
0.24
9.17
15.63
19.42
21.25
22.38
22.28
19.98
13.79
3.68
-9.00
-21.43
-30.47
-34.67
-33.46
-28.13
-19.71
-9.50
1.85
13.85
25.20
34.52
39.48
38.80
31.78
19.84
5.25
-8.85
-19.46
-25.44
-26.44
-24.02
-19.65
-14.97
-10.49
-6.18
-2.02
2.39
6.23
9.03
9.65
7.74
3.14
-3.30
-9.86
-15.09
-17.08
-15.45
-10.18
-2.49
6.55
15.97
24.75
32.28
36.96
37.61
32.83
22.77
8.52
-7.35
-21.46
-31.33
-35.02
-32.83
-25.93
-16.72
-7.14
1.42
7.86
11.94
12.73
9.90
2.96
-7.28
-19.46
-31.24
-40.04
-44.51
-43.75
-38.66
-30.34
-20.54
-10.44
-1.04
6.68
12.37
14.98
14.21
9.67
2.50
-5.59
-11.91
-13.85
-10.61
-2.52
8.00
18.79
28.14
36.24
44.11
52.15
59.84
64.44
63.49
55.03
39.87
20.50
0.91
-14.91
-24.73
-27.37
-23.98
-16.22
-6.53
3.53
12.80
20.30
25.48
26.76
23.27
14.21
0.64
-15.41
-30.70
-41.95
-47.44
-46.35
-40.03
-30.10
-18.80
-7.55
2.67
10.99
17.06
19.72
18.52
12.65
2.50
-11.09
-25.84
-38.37
-45.66
-44.78
-35.37
-18.60
2.15
23.39
41.90
55.55
63.75
65.96
62.55
53.48
39.73
22.64
4.79
-10.61
-21.26
-25.43
-23.82
-17.80
-9.86
-1.71
5.51
11.08
14.79
15.55
12.76
5.52
-5.55
-19.02
-31.92
-40.70
-43.07
-37.79
-26.51
-11.90
2.42
14.12
22.12
26.50
28.12
26.77
22.34
14.05
2.41
-11.38
-24.78
-34.89
-40.01
-39.05
-33.06
-23.36
-12.12
-0.91
8.80
15.93
20.13
20.67
17.93
11.96
3.75
-6.00
-15.89
-24.18
-29.51
-30.16
-25.95
-17.12
-5.39
7.40
19.10
27.77
32.41
31.90
26.46
16.41
3.51
-10.18
-21.85
-28.92
-30.42
-26.35
-18.94
-10.40
-2.85
3.11
8.01
12.67
17.62
21.66
23.44
20.97
13.49
0.91
-15.14
-31.60
-45.06
-51.77
-49.79
-39.11
-22.76
-5.09
9.16
16.60
16.67
10.71
2.50
-4.04
-5.14
0.97
14.10
31.62
48.59
60.23
62.47
54.93
40.31
23.44
8.81
-1.26
-6.75
-9.80
-11.98
-14.43
-16.60
-17.97
-17.98
-16.50
-14.14
-11.13
-8.00
-4.53
-1.19
1.86
3.93
4.11
2.30
-1.62
-6.41
-10.80
-12.95
-11.99
-7.62
-0.66
6.72
12.75
15.43
14.52
10.57
5.50
1.20
-0.99
-0.54
1.26
3.10
2.89
-0.21
-6.30
-13.81
-20.22
-23.32
-21.24
-14.44
-4.35
5.99
14.17
18.41
18.20
14.50
8.24
1.11
-5.85
-11.27
-14.52
-15.08
-12.90
-9.10
-4.57
-0.83
1.47
2.10
1.94
1.84
2.68
5.05
8.04
10.48
9.77
3.96
-8.00
-24.49
-41.43
-53.71
-56.61
-48.98
-32.84
-13.71
2.69
12.07
13.55
10.04
5.76
5.28
10.43
20.75
33.21
44.55
52.46
55.68
54.85
50.67
44.01
34.99
24.15
12.22
0.77
-8.03
-13.17
-14.21
-12.80
-10.87
-10.54
-12.49
-15.88
-19.10
-19.78
-17.18
-11.34
-4.23
2.05
5.56
5.51
2.65
-2.15
-7.24
-12.03
-15.79
-18.43
-19.61
-18.53
-15.15
-9.42
-2.82
3.03
5.83
4.52
-0.63
-7.39
-12.06
-12.05
-6.14
3.42
13.02
18.62
18.63
14.52
9.47
7.14
8.40
12.11
14.96
14.55
10.08
3.03
-3.54
-7.55
-7.62
-4.66
0.02
4.62
8.11
10.38
11.22
10.89
8.54
3.85
-3.62
-12.83
-22.15
-29.45
-32.89
-32.55
-29.18
-24.91
-21.05
-18.51
-16.89
-15.20
-12.91
-9.36
-5.21
-0.82
2.77
5.18
6.02
5.41
4.08
2.34
1.18
0.74
1.43
2.93
5.18
8.30
11.96
16.29
20.26
23.15
23.67
21.54
16.95
11.03
5.61
1.52
-0.53
-1.51
-2.36
-4.41
-7.86
-11.91
-15.44
-16.73
-15.53
-11.98
-7.61
-3.66
-1.32
-0.85
-1.51
-2.80
-3.62
-3.94
-3.58
-3.04
-2.32
-1.11
0.73
3.77
7.36
10.93
13.08
13.15
10.68
6.06
0.50
-5.27
-9.97
-13.44
-15.20
-15.45
-13.96
-10.57
-5.78
-0.09
4.66
7.16
6.04
1.53
-5.41
-12.92
-18.82
-22.04
-21.68
-18.34
-12.55
-5.46
2.40
10.63
18.59
25.89
31.00
32.96
30.54
23.96
14.06
2.85
-6.98
-13.57
-15.22
-12.22
-5.45
2.91
11.07
17.82
22.49
25.72
27.68
28.90
28.92
27.54
24.37
19.53
13.61
6.49
-1.53
-11.03
-21.87
-33.48
-44.16
-51.78
-54.77
-52.13
-45.19
-35.85
-26.69
-18.46
-10.47
-0.75
12.27
27.24
40.90
48.13
45.92
34.29
17.64
2.17
-7.45
-9.64
-7.39
-4.78
-5.50
-10.00
-16.52
-22.06
-24.07
-22.19
-16.78
-9.59
-1.90
5.21
11.62
17.53
23.01
28.16
31.77
32.95
30.32
23.83
14.18
3.42
-5.77
-11.62
-12.91
-10.68
-6.36
-2.14
1.01
2.91
4.01
5.12
5.69
5.16
2.21
-3.30
-10.92
-18.88
-24.83
-27.29
-25.14
-19.25
-10.79
-1.86
6.20
12.19
15.54
16.44
14.65
10.86
5.30
-1.01
-7.35
-12.53
-15.40
-15.62
-12.78
-7.96
-2.13
3.05
6.64
7.92
6.89
4.49
1.40
-0.90
-1.92
-1.15
0.76
3.11
5.13
5.99
5.84
4.43
2.23
-0.99
-5.09
-10.37
-16.62
-22.75
-27.63
-29.22
-26.70
-19.81
-10.00
1.03
11.54
19.99
26.00
28.69
27.92
23.19
14.98
4.04
-7.96
-18.74
-26.71
-30.16
-28.94
-23.22
-14.36
-3.65
7.42
17.22
24.91
29.21
29.83
26.33
19.26
9.25
-2.24
-13.05
-21.39
-25.06
-23.42
-16.41
-5.54
7.55
20.84
32.27
40.47
43.62
41.07
32.46
19.03
2.58
-14.24
-28.67
-39.02
-43.82
-43.15
-37.25
-27.34
-14.52
-0.46
12.67
23.00
28.17
27.24
19.87
7.51
-7.90
-23.50
-36.20
-43.85
-44.44
-37.94
-25.08
-8.24
10.18
27.54
41.48
50.76
54.03
51.26
42.57
29.36
13.30
-3.02
-16.75
-25.82
-28.40
-24.64
-15.27
-2.44
11.89
25.52
36.48
43.54
45.20
41.18
31.42
17.34
0.81
-15.46
-28.62
-37.06
-39.74
-37.67
-32.20
-25.47
-18.74
-12.88
-8.31
-4.81
-2.99
-2.92
-5.26
-9.76
-16.06
-22.82
-28.19
-30.91
-29.67
-24.76
-16.71
-7.10
2.98
12.41
20.40
26.76
30.64
31.81
29.48
23.76
14.93
4.47
-5.16
-11.74
-12.93
-8.50
0.76
12.23
23.42
32.18
37.34
38.92
36.66
30.93
21.40
8.75
-5.85
-19.61
-29.06
-31.83
-26.92
-16.66
-4.57
5.02
9.72
9.14
4.85
-0.54
-5.59
-9.25
-12.08
-14.21
-15.81
-16.04
-13.91
-9.43
-3.16
2.60
6.05
5.54
1.21
-5.88
-13.76
-20.20
-24.18
-24.80
-22.59
-17.95
-11.85
-4.68
3.25
11.18
18.53
23.55
25.14
22.10
14.80
4.32
-7.13
-16.87
-23.22
-24.78
-21.95
-15.50
-7.13
1.91
10.66
18.26
24.53
28.55
29.93
27.81
22.25
13.55
3.00
-7.32
-15.65
-19.89
-19.45
-14.18
-5.37
5.64
17.23
27.52
35.15
38.14
35.58
26.86
13.15
-3.66
-20.74
-35.14
-45.20
-49.65
-48.92
-43.58
-34.96
-24.06
-12.12
-0.82
8.45
13.62
13.86
8.68
-0.73
-12.80
-25.09
-35.00
-40.81
-40.87
-35.22
-24.29
-9.85
6.40
22.45
36.20
46.21
50.62
48.83
40.60
27.39
11.21
-4.99
-18.11
-26.23
-27.88
-23.53
-14.11
-1.65
12.18
25.57
36.72
44.43
46.98
43.86
34.81
21.10
4.44
-12.64
-27.38
-37.97
-42.68
-41.42
-34.41
-23.19
-9.35
5.09
17.85
27.47
32.28
31.98
26.56
17.44
6.25
-4.81
-13.62
-19.31
-21.30
-20.51
-17.65
-13.87
-9.44
-4.55
0.47
5.67
10.13
13.53
15.05
14.65
12.13
7.83
2.57
-3.11
-7.82
-10.97
-11.64
-9.93
-5.94
-0.25
5.98
11.95
16.15
17.93
16.57
12.56
6.54
-0.37
-6.83
-12.35
-16.10
-18.16
-18.12
-16.10
-11.92
-5.74
1.42
8.59
13.79
15.95
14.06
8.61
0.54
-8.38
-15.88
-20.48
-20.66
-16.59
-8.91
0.49
9.92
18.02
23.83
27.56
28.98
28.49
25.75
21.05
14.55
7.14
0.26
-5.24
-8.24
-9.00
-7.66
-5.06
-1.43
3.06
7.99
13.06
16.70
17.82
14.96
8.02
-2.55
-15.00
-26.60
-34.95
-37.45
-33.39
-23.12
-8.89
6.78
21.31
32.54
39.57
41.32
37.73
28.58
14.92
-1.79
-18.90
-33.21
-42.40
-44.58
-40.02
-29.80
-16.26
-1.37
12.97
25.08
33.95
37.94
36.36
28.64
15.78
-0.45
-17.09
-30.84
-39.52
-41.51
-37.36
-28.22
-16.25
-3.16
9.56
20.52
28.95
33.40
33.26
27.92
18.21
5.39
-8.32
-20.38
-29.18
-33.17
-32.36
-26.99
-18.38
-7.78
3.37
13.37
21.31
25.95
27.10
24.54
19.13
11.76
3.87
-3.04
-8.55
-12.31
-15.19
-17.63
-20.11
-22.07
-22.64
-21.40
-18.02
-13.70
-9.43
-6.68
-5.86
-7.10
-9.81
-12.93
-16.04
-18.24
-19.54
-19.49
-18.22
-15.46
-11.02
-5.29
1.51
8.00
13.23
15.92
15.90
13.33
9.11
4.65
0.59
-2.22
-3.95
-4.52
-4.34
-3.34
-1.40
1.15
4.20
6.65
7.96
7.41
5.46
2.78
0.34
-0.96
-1.48
-1.54
-2.25
-3.87
-6.44
-8.95
-10.08
-9.05
-5.11
0.95
8.24
14.95
19.86
21.92
20.82
17.51
13.01
9.17
7.04
7.49
10.05
13.84
17.69
20.11
20.83
19.61
17.44
15.17
13.95
14.14
15.28
16.60
16.33
13.53
7.26
-2.02
-13.47
-25.33
-35.42
-42.13
-43.64
-39.67
-30.40
-17.48
-2.75
11.55
23.14
30.56
32.31
28.28
18.89
6.12
-7.78
-20.17
-28.84
-33.24
-33.25
-29.93
-24.16
-16.87
-8.40
0.85
10.41
20.27
29.63
37.75
42.36
40.98
31.21
12.99
-10.29
-32.84
-47.67
-50.69
-41.60
-24.83
-6.58
7.84
15.85
18.97
20.00
22.06
26.05
31.51
36.63
39.85
40.58
38.16
32.91
24.86
14.66
3.14
-8.06
-17.08
-22.69
-23.82
-21.09
-15.38
-8.62
-2.34
1.94
3.36
1.98
-2.02
-7.26
-12.77
-17.23
-20.26
-21.66
-21.37
-19.84
-16.81
-12.78
-7.84
-2.84
1.92
5.89
8.66
10.13
9.17
5.14
-3.03
-15.16
-30.41
-46.59
-60.81
-70.63
-73.68
-69.44
-58.12
-41.65
-22.29
-3.00
13.27
24.54
29.10
27.15
19.55
8.65
-3.21
-13.50
-20.18
-22.62
-20.50
-14.83
-6.41
3.37
13.61
23.23
30.93
36.07
37.62
35.61
29.95
21.35
10.39
-1.66
-12.82
-21.32
-25.01
-23.37
-16.76
-7.33
2.52
10.54
15.44
17.54
17.27
15.68
12.65
7.92
0.74
-8.67
-18.39
-25.94
-28.25
-24.27
-14.80
-3.14
6.84
12.49
13.08
10.70
7.71
6.12
5.57
4.61
1.51
-3.95
-9.64
-13.11
-12.21
-7.71
-2.21
0.51
-1.77
-8.48
-16.75
-22.22
-22.43
-17.08
-9.03
-1.93
1.01
-1.40
-7.94
-16.83
-26.01
-35.05
-44.15
-54.06
-64.73
-74.58
-81.79
-84.25
-81.79
-75.89
-70.01
-67.88
-71.90
-82.04
-95.16
-107.35
-115.17
-118.02
-117.51
-116.32
-115.50
-113.17
-106.00
-90.74
-67.73
-40.43
-14.44
6.23
21.17
33.43
47.72
66.33
88.32
109.34
124.89
132.51
133.14
130.55
128.54
129.66
133.76
139.04
143.14
144.59
143.31
140.10
136.50
133.58
132.07
132.14
133.77
136.77
140.87
145.56
149.58
151.41
148.96
140.64
125.74
105.43
82.70
61.39
45.38
36.70
35.28
38.75
43.68
46.88
46.68
43.37
38.20
32.16
24.60
13.50
-3.54
-27.53
-56.78
-87.20
-113.55
-131.65
-139.67
-138.42
-130.21
-117.63
-102.96
-87.90
-73.56
-60.44
-48.24
-35.78
-21.04
-1.13
26.57
62.56
104.15
145.61
178.92
195.80
190.04
159.72
108.35
43.82
-24.91
-90.38
-147.34
-194.15
-227.55
-243.68
-240.92
-221.27
-188.85
-148.95
-107.49
-68.09
-31.37
4.79
43.35
85.97
132.15
179.33
223.99
257.04
272.27
268.25
248.80
220.97
191.26
163.57
138.99
116.52
94.14
70.20
45.37
17.38
-15.73
-54.57
-97.81
-142.15
-183.47
-215.46
-233.07
-234.93
-223.71
-203.96
-180.37
-156.45
-134.14
-114.34
-97.51
-83.84
-73.03
-64.65
-57.79
-51.45
-45.10
-38.62
-32.29
-26.48
-21.63
-17.86
-15.14
-12.93
-10.63
-7.90
-4.68
-1.21
2.17
5.05
7.24
8.69
9.71
10.70
11.92
13.43
15.14
16.90
18.48
19.80
20.82
21.68
22.54
23.44
24.35
25.19
25.86
26.25
26.29
25.92
24.84
23.13
20.76
17.74
14.24
10.56
7.08
4.20
2.17
1.05
0.76
1.11
1.94
3.14
4.67
6.46
8.47
10.78
13.38
16.41
19.81
23.27
26.21
27.94
27.99
26.43
23.83
20.79
17.96
15.63
13.77
12.21
10.98
10.32
10.77
12.80
16.27
20.82
26.01
31.47
37.14
43.22
50.08
58.09
67.42
77.38
87.14
95.77
102.35
106.28
107.27
105.37
100.49
96.01
93.38
93.23
95.33
98.73
102.10
104.20
104.24
102.14
98.57
94.16
89.89
86.63
84.80
84.29
84.47
84.54
83.86
82.26
79.69
76.49
73.14
69.91
66.90
64.13
61.66
59.56
57.92
56.44
54.78
52.75
50.37
48.01
46.13
44.94
44.09
42.69
39.50
33.65
25.03
14.43
3.24
-7.19
-15.86
-22.47
-27.28
-30.86
-33.83
-36.83
-40.50
-45.16
-50.41
-54.68
-55.64
-51.08
-40.25
-24.64
-7.66
6.67
15.44
18.01
15.93
12.02
8.81
7.72
8.94
11.95
16.16
21.25
26.94
32.77
37.81
40.74
40.10
34.48
23.17
6.39
-14.66
-38.14
-62.34
-86.32
-110.35
-135.69
-163.84
-195.87
-232.09
-272.13
-315.08
-359.21
-401.38
-436.70
-459.20
-463.70
-448.00
-414.43
-369.42
-321.30
-277.27
-241.13
-212.77
-189.48
-168.04
-146.32
-123.81
-101.15
-79.32
-59.24
-41.81
-28.24
-19.93
-18.08
-23.06
-33.83
-47.97
-62.23
-73.50
-79.82
-80.98
-78.54
-75.05
-72.96
-73.49
-76.12
-78.78
-78.89
-74.45
-65.01
-51.67
-36.66
-22.31
-10.27
-1.19
5.24
9.81
13.38
16.53
19.37
21.49
22.05
20.09
14.96
6.88
-2.90
-12.34
-19.26
-22.16
-20.77
-15.94
-9.23
-2.07
4.64
10.81
16.81
23.23
30.43
38.50
47.29
56.54
65.86
74.71
82.42
88.16
91.32
91.76
89.96
87.00
84.08
81.95
80.49
78.71
75.19
68.82
59.56
48.56
37.87
29.58
24.99
23.99
25.10
25.97
24.43
19.25
10.60
-0.04
-10.46
-18.48
-22.60
-22.27
-17.84
-10.31
-0.88
9.22
18.95
27.39
33.93
38.33
40.89
42.41
43.99
46.65
51.01
56.60
62.51
67.87
72.09
75.01
76.93
78.66
81.50
86.83
95.05
105.74
117.68
129.15
138.28
143.65
144.86
142.94
140.11
138.03
138.42
142.79
151.81
164.43
178.01
189.42
196.40
198.45
193.90
183.04
168.59
154.40
143.02
134.32
126.26
116.12
101.60
75.23
32.77
-23.84
-87.68
-151.98
-213.16
-270.31
-322.91
-369.15
-415.84
-466.55
-517.85
-560.61
-586.56
-592.07
-577.61
-546.76
-505.93
-477.28
-480.11
-521.24
-592.94
-681.54
-774.71
-864.36
-947.04
-941.75
-808.82
-571.64
-301.19
-60.03
125.43
256.38
344.95
404.25
444.87
461.33
449.61
414.23
368.39
324.37
288.64
262.88
246.02
236.39
222.43
195.84
153.40
104.71
58.53
18.59
-14.78
-42.24
-62.85
-79.68
-92.91
-98.98
-92.88
-74.40
-48.96
-23.65
-4.05
8.10
11.54
7.57
-0.32
-7.12
-8.50
-6.40
-1.23
6.87
17.78
29.68
40.23
47.79
52.03
53.43
53.28
54.07
58.09
66.83
80.71
99.15
121.34
146.88
175.81
208.61
246.18
288.57
335.00
384.53
436.92
492.40
550.91
610.40
665.48
707.86
728.23
719.59
679.89
612.66
525.42
427.91
330.83
245.49
183.58
155.29
166.28
214.27
287.91
368.62
437.26
480.84
496.30
489.60
470.86
449.28
429.48
411.52
390.86
363.78
329.88
291.97
253.86
218.08
184.97
153.50
122.46
87.31
45.40
-2.37
-52.09
-99.80
-143.96
-185.79
-228.14
-273.96
-331.48
-405.52
-494.30
-589.23
-679.53
-756.79
-816.52
-857.88
-882.42
-901.28
-924.12
-954.81
-991.06
-1028.76
-1065.75
-1101.71
-1135.72
-1111.77
-995.52
-791.40
-543.59
-304.66
-107.86
37.73
138.68
207.47
256.57
285.93
293.09
278.83
250.68
219.81
196.81
188.01
193.94
211.54
227.70
232.76
223.59
205.15
186.53
176.75
181.26
200.18
231.19
266.09
297.19
319.46
331.28
327.44
306.98
278.67
246.88
215.04
182.42
146.21
102.78
50.47
-9.02
-69.13
-118.71
-147.26
-146.93
-116.78
-62.20
7.12
80.18
144.91
188.03
201.97
188.75
160.20
129.67
105.81
90.84
82.16
75.29
67.37
60.06
53.71
48.35
42.52
34.27
22.81
8.77
-6.68
-22.58
-38.99
-58.95
-85.97
-124.04
-174.61
-233.58
-291.97
-339.20
-366.86
-371.52
-355.70
-325.49
-287.83
-247.35
-203.98
-154.97
-98.28
-34.82
31.43
95.05
151.38
196.93
222.49
220.12
188.61
135.07
70.37
3.49
-60.01
-116.72
-164.72
-203.00
-230.35
-246.30
-253.70
-255.00
-253.08
-250.23
-247.15
-243.80
-239.84
-234.21
-226.07
-215.51
-203.22
-189.90
-178.27
-169.12
-162.17
-156.55
-150.67
-143.09
-133.17
-121.12
-108.09
-95.45
-84.02
-74.41
-67.11
-62.20
-59.43
-58.44
-58.82
-60.17
-62.01
-63.36
-63.24
-60.57
-54.14
-42.54
-24.47
1.05
34.10
73.80
118.25
164.69
210.03
251.48
287.30
316.99
341.22
361.14
377.84
391.92
403.51
412.57
419.25
424.20
428.44
432.94
438.55
446.07
456.48
470.68
488.60
507.92
523.48
528.13
514.89
479.81
424.06
353.65
277.32
203.84
139.52
87.23
46.92
16.93
-4.80
-20.52
-33.33
-47.89
-69.52
-102.23
-146.64
-198.58
-249.65
-289.83
-311.09
-310.73
-292.78
-265.23
-236.24
-211.38
-192.44
-178.14
-166.06
-153.31
-138.03
-120.72
-101.21
-77.86
-49.20
-15.18
22.39
60.10
95.76
128.02
154.00
174.66
195.23
220.50
251.74
284.82
310.71
321.64
311.80
274.54
210.90
130.44
44.81
-34.90
-99.94
-144.63
-162.54
-151.13
-119.39
-77.21
-30.78
14.86
57.72
99.17
117.03
96.57
72.54
57.88
37.19
2.98
-46.30
-104.92
-161.80
-204.87
-221.70
-206.33
-166.38
-111.67
-49.34
12.14
63.15
93.77
96.07
70.76
26.16
-27.29
-74.83
-101.14
-99.31
-72.84
-33.65
2.61
24.32
26.18
8.87
-19.23
-44.38
-54.40
-42.30
-8.06
41.84
98.26
151.76
195.35
225.35
241.14
242.83
230.95
207.07
174.18
137.40
91.37
36.72
-21.17
-74.11
-116.21
-146.46
-167.17
-181.19
-189.51
-191.43
-184.26
-167.62
-144.29
-119.56
-99.13
-86.26
-82.34
-86.12
-95.00
-105.02
-114.60
-124.77
-138.43
-158.83
-185.65
-217.61
-252.38
-286.63
-314.65
-330.47
-328.83
-307.21
-267.54
-216.38
-163.45
-117.95
-86.34
-66.99
-56.31
-50.46
-47.11
-45.76
-46.89
-50.88
-56.64
-61.97
-64.44
-63.89
-62.32
-63.16
-69.73
-83.44
-102.89
-123.81
-141.63
-151.71
-152.22
-144.42
-131.80
-118.29
-106.21
-95.23
-82.05
-62.25
-32.34
7.96
55.70
105.90
152.99
192.51
222.09
242.70
257.92
273.22
294.09
324.44
365.23
413.29
461.28
499.36
519.18
516.47
492.91
454.97
411.19
368.82
330.84
294.85
254.76
206.14
149.26
90.79
41.31
10.66
3.70
17.90
44.09
62.41
56.73
21.33
-34.84
-93.93
-140.83
-170.53
-187.27
-198.52
-209.22
-217.91
-219.38
-208.98
-186.38
-156.33
-125.88
-101.12
-84.81
-75.83
-69.58
-60.68
-45.72
-24.60
-0.65
21.80
39.25
50.30
55.55
57.44
58.78
61.18
64.56
67.21
67.30
63.88
56.93
47.90
39.13
33.23
31.68
34.92
42.19
52.30
64.24
76.29
87.54
97.31
105.34
111.18
114.33
114.12
109.18
103.97
100.22
99.56
102.71
110.06
121.17
134.98
150.18
164.98
177.55
185.13
186.21
179.88
166.26
145.90
119.72
89.49
57.03
24.41
-7.13
-35.80
-60.14
-79.18
-92.43
-100.36
-103.50
-102.98
-100.61
-98.43
-97.26
-96.74
-96.49
-95.84
-94.76
-92.82
-89.83
-88.44
-90.53
-96.24
-103.48
-110.56
-116.46
-121.73
-126.88
-132.45
-144.85
-168.03
-201.76
-241.08
-281.21
-318.94
-353.73
-385.67
-414.60
-450.18
-498.50
-558.91
-623.81
-685.67
-739.81
-785.28
-822.77
-852.10
-886.28
-933.96
-995.02
-1060.26
-1119.92
-1167.69
-1202.10
-1224.80
-1156.61
-960.04
-653.93
-303.98
26.56
305.92
529.99
704.26
833.39
923.00
965.58
960.49
917.92
862.70
809.28
764.73
729.83
702.35
683.08
662.54
634.36
598.20
559.74
524.34
495.77
475.78
448.20
408.10
350.73
278.84
200.33
124.94
58.49
3.69
-39.75
-73.43
-96.11
-111.75
-122.22
-127.55
-125.87
-116.96
-100.43
-76.69
-46.38
-7.82
34.57
75.30
109.77
136.57
154.11
162.88
163.92
158.63
149.76
139.37
129.45
121.27
121.35
125.54
130.05
131.84
129.03
121.30
109.01
93.47
69.29
40.78
10.63
-19.19
-47.88
-74.48
-97.60
-115.47
-126.22
-128.15
-119.29
-101.94
-79.66
-56.35
-34.61
-15.72
0.16
13.79
27.79
46.23
70.59
101.54
135.32
168.14
194.75
209.38
200.57
165.72
115.03
65.03
30.37
16.62
20.41
32.52
44.13
49.85
49.01
43.73
33.88
17.08
-9.83
-46.36
-88.43
-130.10
-166.50
-193.96
-209.94
-215.28
-212.10
-203.15
-190.52
-176.10
-161.47
-148.74
-144.64
-147.62
-156.41
-168.30
-177.73
-176.48
-156.84
-115.71
-58.46
2.44
52.47
78.77
76.16
48.38
5.64
-38.88
-73.70
-92.81
-94.32
-77.59
-44.36
1.41
51.22
92.83
114.25
108.46
75.43
23.16
-34.93
-83.83
-109.71
-108.72
-88.19
-63.86
-42.97
-29.43
-26.03
-34.24
-55.61
-87.29
-123.71
-156.94
-177.87
-178.44
-155.65
-112.15
-54.75
7.97
71.52
133.48
192.74
248.12
298.21
340.28
371.54
390.23
378.58
329.10
248.29
153.85
63.29
-13.61
-75.18
-123.60
-161.95
-192.70
-214.44
-227.15
-232.30
-233.47
-234.58
-238.63
-246.88
-258.84
-272.87
-284.56
-290.94
-290.84
-285.20
-275.88
-264.33
-251.26
-236.74
-220.56
-201.20
-177.93
-151.34
-123.39
-96.34
-71.90
-51.02
-34.02
-20.78
-10.33
-1.88
4.86
9.66
12.13
12.21
10.13
6.34
1.46
-3.79
-8.78
-13.19
-16.99
-20.32
-23.30
-26.03
-28.60
-31.02
-33.44
-35.89
-38.41
-41.02
-43.66
-46.22
-48.49
-50.26
-51.22
-51.17
-49.81
-46.95
-42.56
-36.76
-29.82
-22.07
-13.99
-6.09
1.10
7.17
11.89
15.08
16.79
17.18
16.56
15.25
13.62
11.99
10.62
9.73
9.32
9.40
9.83
10.45
11.07
11.51
11.63
11.36
10.73
9.77
9.25
9.80
11.65
14.56
17.95
20.90
23.25
25.06
26.40
27.89
30.18
33.45
37.46
41.72
45.46
48.64
51.50
54.21
58.37
65.30
75.23
87.20
99.45
109.52
116.90
121.77
124.43
129.43
140.78
159.79
184.64
211.65
235.20
255.02
272.40
288.56
312.86
353.04
410.75
480.31
551.93
611.34
655.32
684.29
699.48
715.99
747.92
800.65
868.69
940.46
997.27
1037.57
1064.87
1082.87
1112.34
1172.23
1269.10
1394.55
1531.47
1653.03
1754.94
1840.33
1800.46
1569.03
1146.85
608.44
58.05
-358.21
-650.60
-852.01
-990.24
-1083.80
-1143.72
-1166.31
-1153.71
-1117.90
-1074.27
-1043.75
-1023.09
-1005.70
-990.41
-967.19
-926.57
-865.64
-788.07
-700.77
-618.08
-539.45
-465.23
-401.33
-347.80
-303.22
-269.10
-249.72
-249.54
-283.69
-344.85
-414.40
-473.93
-508.92
-513.74
-491.35
-449.47
-397.46
-346.43
-300.90
-264.32
-239.57
-225.49
-215.16
-200.27
-173.97
-133.41
-81.40
-22.51
35.77
81.70
107.62
113.46
104.96
90.12
75.15
62.78
53.10
44.24
34.33
23.29
12.85
5.07
1.43
1.96
5.31
10.13
13.62
13.13
7.02
-4.85
-21.32
-39.65
-56.36
-67.83
-71.42
-66.93
-56.57
-43.96
-32.38
-23.87
-18.21
-13.33
-6.21
5.81
23.21
44.14
64.07
77.43
79.11
66.81
42.73
13.11
-13.85
-31.42
-36.06
-27.75
-8.82
16.56
42.70
63.49
73.60
70.27
54.80
32.97
12.73
0.39
-3.11
-3.61
-10.31
-30.89
-67.76
-117.95
-175.43
-234.33
-285.26
-318.71
-328.86
-315.85
-285.49
-246.31
-206.58
-172.36
-146.19
-129.36
-116.45
-102.04
-82.05
-54.58
-20.35
17.78
56.26
92.90
124.53
150.37
171.07
188.13
202.55
213.75
219.71
218.16
208.25
191.34
170.56
148.12
124.11
96.66
63.34
23.97
-17.74
-54.13
-76.50
-79.07
-62.68
-34.74
-5.64
15.87
26.32
27.82
25.79
25.21
28.31
33.91
39.00
41.20
39.90
36.22
31.74
27.33
22.77
17.28
10.43
2.61
-4.92
-10.51
-12.71
-10.66
-4.38
5.70
18.49
32.47
45.52
55.19
59.25
56.72
48.51
37.35
27.10
20.80
19.35
20.92
22.03
19.54
12.49
2.60
-6.90
-13.06
-14.96
-13.93
-12.33
-11.92
-12.47
-12.18
-8.79
-1.39
8.97
19.39
26.39
27.40
21.61
10.27
-3.95
-17.91
-28.96
-35.59
-37.64
-36.18
-32.79
-29.04
-25.92
-23.79
-22.63
-22.24
-22.52
-23.29
-24.38
-25.40
-25.96
-25.70
-24.36
-21.86
-18.13
-13.39
-7.99
-2.73
1.29
2.84
1.08
-3.93
-11.28
-19.23
-25.75
-28.85
-27.29
-21.00
-11.34
-0.82
8.16
14.25
17.88
20.80
24.85
30.74
37.51
43.29
46.34
46.13
43.12
38.28
32.33
25.65
18.75
12.64
8.83
8.30
10.93
15.13
18.73
20.08
18.86
16.21
13.84
13.15
14.42
16.86
19.22
20.50
20.56
20.05
20.29
22.42
26.96
33.38
40.31
46.14
49.61
50.30
48.50
45.31
42.03
39.92
39.75
41.49
44.21
46.29
46.02
42.19
34.98
25.96
17.58
12.15
10.44
11.26
11.70
8.59
0.04
-13.36
-28.71
-42.11
-50.30
-52.17
-48.61
-41.61
-32.72
-22.16
-9.04
7.70
27.95
50.23
72.00
90.76
105.04
114.73
120.99
125.50
129.67
133.89
137.40
138.45
135.06
125.84
110.57
90.45
67.45
43.45
19.28
-5.43
-31.64
-59.91
-89.57
-118.69
-144.71
-165.57
-180.14
-188.22
-190.04
-185.85
-176.39
-163.30
-149.72
-139.47
-135.47
-138.14
-144.80
-151.13
-153.31
-150.30
-144.06
-138.38
-136.35
-138.50
-142.62
-145.02
-142.90
-135.66
-124.92
-113.04
-101.63
-90.74
-79.03
-64.87
-47.20
-26.03
-2.20
23.09
48.67
73.25
94.94
111.49
120.63
121.39
114.84
104.03
92.84
84.26
79.38
77.19
75.65
72.93
68.44
62.85
57.39
52.88
48.95
44.32
37.39
27.19
14.03
-0.61
-14.62
-26.29
-34.76
-40.10
-42.79
-43.49
-43.06
-42.46
-42.98
-45.48
-49.92
-54.52
-56.42
-53.03
-43.35
-28.87
-12.69
1.80
12.66
19.38
21.91
19.46
10.66
-4.78
-24.44
-42.60
-52.68
-50.52
-37.22
-19.21
-5.02
-0.89
-7.53
-20.54
-33.38
-41.65
-45.34
-47.92
-53.30
-62.14
-70.84
-73.28
-65.08
-46.55
-23.25
-3.35
6.94
6.13
-2.39
-13.50
-23.59
-32.42
-41.86
-52.82
-63.11
-67.63
-61.82
-44.70
-20.34
4.41
23.80
36.16
43.95
50.88
59.19
67.87
74.19
75.84
72.75
67.06
61.26
56.85
53.82
51.88
51.26
53.05
58.43
67.77
80.72
96.47
114.53
134.38
154.86
173.47
186.50
190.39
183.42
167.16
145.90
125.35
110.25
103.07
103.83
110.78
121.42
132.64
141.02
142.55
133.47
111.36
76.18
31.16
-17.87
-63.67
-99.95
-123.14
-133.22
-133.14
-126.99
-118.47
-109.47
-100.49
-91.28
-82.15
-74.36
-69.67
-69.37
-73.04
-78.78
-83.78
-85.97
-84.76
-81.03
-76.11
-70.57
-63.97
-55.29
-44.22
-31.21
-17.55
-4.64
6.70
15.97
23.06
27.43
28.61
26.51
22.00
16.88
12.80
10.79
10.51
11.09
11.69
12.08
12.38
12.25
10.90
7.01
-0.15
-9.98
-20.46
-28.62
-31.80
-28.59
-19.79
-7.77
4.02
12.25
14.78
11.38
3.87
-4.79
-11.50
-14.58
-13.91
-10.86
-7.04
-3.51
-0.89
0.66
0.51
-1.88
-6.96
-14.29
-22.39
-29.28
-33.08
-32.88
-28.72
-21.59
-12.71
-3.28
5.48
12.83
18.45
22.92
27.10
31.80
37.06
41.82
44.53
43.76
39.34
32.14
24.06
16.80
11.45
8.33
7.36
8.67
12.15
17.57
23.78
29.07
31.73
30.87
27.28
23.01
20.99
23.57
31.80
44.39
57.80
66.93
66.66
54.09
29.80
-1.52
-32.87
-57.28
-70.44
-71.97
-64.83
-53.90
-43.42
-36.09
-32.30
-30.92
-30.34
-29.23
-27.14
-24.18
-21.01
-18.12
-15.94
-14.93
-15.76
-19.44
-26.44
-36.14
-45.75
-51.44
-49.50
-38.62
-20.90
-0.90
16.38
28.43
36.26
43.89
55.39
72.29
92.70
112.56
128.66
140.20
149.18
158.27
168.56
178.64
185.10
184.80
176.60
161.91
143.33
123.24
102.89
82.63
63.20
46.10
33.48
26.56
24.82
25.64
25.19
19.88
7.18
-13.24
-39.94
-69.94
-99.98
-127.50
-151.53
-173.06
-193.57
-214.13
-233.69
-249.48
-258.09
-257.11
-246.21
-226.20
-198.55
-164.55
-126.33
-87.26
-52.07
-25.73
-10.92
-7.01
-9.08
-10.65
-6.38
5.51
22.61
39.81
51.10
51.96
39.73
15.41
-16.77
-50.40
-78.84
-96.90
-101.48
-91.79
-68.36
-34.38
6.29
48.59
85.82
109.78
112.85
91.26
46.43
-15.28
-87.99
-164.79
-238.59
-303.05
-352.86
-384.02
-393.54
-381.39
-352.30
-319.67
-296.02
-287.14
-290.48
-297.90
-300.85
-294.51
-280.41
-265.25
-262.01
-276.23
-301.64
-323.92
-329.07
-310.13
-268.73
-212.93
-118.50
13.01
157.48
284.91
379.55
441.79
477.98
493.98
494.20
483.30
461.31
430.40
395.64
359.84
322.09
278.56
226.36
166.74
105.19
49.98
9.36
-11.66
-13.10
0.40
21.96
45.40
66.86
83.92
91.05
85.63
68.31
43.54
18.47
0.88
-2.56
11.27
40.67
78.00
110.72
128.51
127.91
112.68
90.63
69.34
52.74
40.34
28.53
14.32
-1.82
-17.52
-28.97
-33.50
-30.80
-22.47
-10.69
2.60
16.27
29.16
39.93
47.41
51.36
53.73
58.68
71.62
94.16
126.27
163.83
199.83
227.71
244.11
249.79
247.79
240.84
229.03
211.34
187.72
161.61
139.57
128.05
129.44
139.39
147.68
141.91
114.40
65.66
4.14
-57.77
-109.63
-146.62
-170.16
-185.89
-201.62
-223.38
-253.18
-288.77
-324.12
-351.20
-361.77
-350.32
-317.19
-270.54
-222.22
-182.48
-156.28
-142.92
-138.37
-138.42
-139.95
-130.92
-103.24
-56.15
3.08
64.06
118.30
161.06
190.84
209.52
219.10
219.92
207.88
179.44
134.59
77.66
16.91
-38.93
-76.87
-89.12
-77.43
-51.58
-22.92
1.02
14.92
23.37
30.83
40.37
51.73
62.53
70.01
72.79
70.70
64.77
54.77
38.83
16.37
-12.11
-44.15
-75.46
-101.12
-116.80
-120.77
-113.33
-97.45
-76.47
-53.99
-33.21
-16.07
-3.54
4.93
9.98
12.81
14.22
14.99
15.99
17.61
20.39
23.91
27.67
30.31
30.78
28.59
24.07
18.72
13.73
10.43
8.74
8.25
7.99
7.18
5.70
3.57
1.40
-0.86
-2.96
-5.08
-7.16
-8.94
-10.29
-10.79
-10.69
-9.86
-8.85
-7.95
-7.45
-7.72
-8.62
-10.06
-11.16
-11.63
-10.93
-9.26
-6.99
-4.22
-1.02
3.15
8.02
13.32
17.87
20.61
21.16
19.89
18.16
16.95
17.02
17.57
17.46
15.54
11.41
5.96
0.50
-3.31
-5.08
-4.84
-3.59
-2.19
-0.86
0.49
2.55
5.13
7.91
9.71
9.83
8.23
5.68
3.81
3.68
6.14
10.55
16.01
21.26
25.50
28.87
31.80
35.32
39.49
44.18
48.32
51.00
51.95
51.62
51.41
52.36
55.33
59.54
63.72
66.32
66.33
64.03
60.49
57.58
56.25
56.76
57.73
56.86
51.75
40.70
24.11
4.22
-14.66
-28.26
-33.05
-27.93
-14.44
3.91
22.22
35.95
40.90
34.42
15.81
-12.49
-44.72
-73.36
-91.47
-96.20
-89.39
-76.92
-65.18
-58.14
-55.66
-54.65
-52.65
-49.70
-48.91
-53.43
-63.99
-77.85
-90.59
-98.50
-100.26
-98.17
-96.06
-97.31
-102.93
-111.52
-120.72
-129.27
-136.56
-141.69
-144.03
-143.07
-138.58
-130.69
-120.11
-108.60
-99.25
-93.85
-91.59
-89.57
-84.05
-71.56
-50.01
-19.38
24.34
75.68
123.24
157.67
177.34
186.00
188.22
186.36
181.44
173.26
161.40
147.41
133.85
122.79
113.52
103.74
90.92
73.58
52.30
28.79
6.21
-12.98
-28.23
-42.02
-56.62
-72.88
-89.00
-101.96
-110.20
-113.73
-115.15
-118.04
-123.80
-132.21
-141.02
-146.98
-147.02
-139.51
-122.89
-96.07
-58.36
-11.74
39.71
89.90
132.61
164.44
186.12
203.47
223.48
251.43
279.45
296.80
294.71
270.99
230.82
180.89
127.10
72.69
19.82
-28.96
-70.35
-100.11
-116.88
-121.64
-119.26
-115.78
-115.18
-119.07
-125.60
-131.87
-133.27
-127.44
-114.01
-95.48
-75.32
-56.71
-42.27
-32.74
-30.13
-33.66
-42.62
-54.07
-63.51
-65.87
-56.53
-33.60
3.38
48.87
96.99
141.17
176.70
202.31
220.24
236.51
248.76
270.09
295.27
315.79
321.07
303.43
261.66
200.25
128.16
53.54
-16.33
-79.57
-133.52
-174.45
-198.73
-203.74
-192.00
-170.12
-147.53
-131.05
-124.46
-125.39
-128.32
-129.19
-126.31
-121.32
-116.35
-112.46
-108.25
-102.20
-93.89
-84.43
-77.57
-76.38
-82.17
-93.13
-105.12
-113.27
-113.69
-105.16
-88.12
-65.52
-41.04
-18.58
-1.14
10.54
17.24
21.85
26.91
34.46
44.48
55.49
65.86
73.89
79.03
79.64
73.95
59.53
35.51
4.00
-29.19
-54.58
-63.71
-50.95
-17.84
27.91
74.82
112.04
133.49
138.36
131.46
118.19
103.34
88.56
73.62
58.09
42.48
29.28
20.22
16.37
15.76
15.28
11.84
4.12
-5.94
-14.91
-17.84
-12.16
2.31
22.31
43.09
60.36
71.14
75.62
74.64
70.17
63.35
55.08
46.32
38.21
32.43
29.07
28.05
27.80
27.56
27.77
30.26
36.93
47.11
58.28
65.06
63.31
51.54
32.47
11.70
-5.56
-16.14
-21.76
-25.90
-32.60
-42.97
-55.04
-65.06
-69.63
-68.90
-64.78
-61.06
-59.58
-59.70
-58.48
-52.52
-41.07
-25.83
-12.01
-4.25
-5.45
-14.62
-27.83
-40.50
-49.05
-53.91
-57.10
-61.98
-69.91
-80.01
-89.47
-94.81
-94.52
-87.97
-76.81
-62.65
-47.27
-32.02
-18.27
-8.00
-2.76
-4.85
-14.68
-31.71
-53.60
-76.97
-98.00
-112.46
-117.91
-112.34
-96.59
-72.82
-44.83
-16.72
8.15
27.30
40.71
48.42
51.66
50.68
45.40
35.59
21.77
6.62
-6.74
-14.08
-13.38
-4.57
9.64
25.21
38.82
48.31
54.77
59.73
65.16
71.22
76.73
79.67
78.14
72.16
61.76
48.35
32.70
15.62
-2.12
-19.28
-33.62
-43.22
-45.29
-38.86
-23.90
-2.27
22.95
48.13
69.10
83.30
88.44
84.59
72.86
55.95
37.12
19.26
4.79
-6.45
-15.09
-22.95
-30.71
-38.08
-43.67
-45.68
-43.57
-36.75
-26.30
-13.14
1.20
15.27
27.44
35.86
39.61
37.26
28.97
15.19
-2.51
-21.92
-40.26
-54.07
-61.01
-58.70
-47.17
-27.66
-3.08
23.12
47.72
67.57
81.31
87.46
86.20
78.03
64.63
48.38
31.74
17.10
4.55
-6.32
-17.33
-29.18
-41.34
-51.92
-58.52
-60.37
-57.29
-51.32
-44.29
-37.97
-33.16
-30.26
-30.06
-33.10
-41.22
-54.95
-74.05
-96.54
-119.41
-139.48
-153.63
-160.79
-160.12
-152.58
-139.59
-123.26
-106.12
-90.02
-75.95
-62.53
-48.59
-33.16
-17.91
-6.03
-0.35
-0.55
-1.31
4.69
24.35
58.57
101.87
143.95
174.62
188.24
184.48
168.14
144.42
117.68
90.10
63.30
39.55
21.37
11.05
6.97
4.85
-1.79
-18.27
-45.57
-80.30
-115.24
-143.62
-160.35
-164.91
-159.60
-148.36
-134.34
-118.10
-98.26
-71.92
-38.36
0.68
39.73
72.13
92.56
99.75
98.43
96.35
101.77
118.21
143.43
170.20
190.45
199.76
198.65
193.02
188.89
189.84
194.34
197.04
192.44
177.77
155.58
130.58
108.29
90.61
76.05
60.80
41.44
17.87
-7.17
-27.95
-40.02
-41.16
-33.24
-20.82
-9.17
-3.00
-3.97
-12.36
-26.27
-43.65
-62.24
-80.18
-96.22
-108.63
-116.85
-119.72
-117.24
-109.59
-97.82
-83.50
-68.28
-54.13
-41.19
-29.60
-18.22
-6.65
4.90
15.20
22.33
25.20
22.37
14.18
1.24
-14.75
-31.69
-47.10
-58.20
-63.33
-60.69
-50.48
-33.52
-11.91
11.78
34.78
53.92
67.33
72.85
70.22
59.81
43.41
23.52
2.92
-15.23
-29.30
-37.63
-40.30
-37.62
-30.73
-20.95
-9.56
1.56
11.77
19.95
25.98
29.67
31.20
30.70
28.06
23.60
16.33
6.05
-7.78
-24.59
-42.81
-59.87
-72.64
-79.25
-78.07
-69.73
-55.42
-37.34
-17.71
1.35
17.52
29.52
35.45
34.97
28.18
16.57
2.39
-11.72
-22.75
-29.26
-29.87
-24.98
-15.22
-1.83
13.87
30.57
46.13
59.30
68.06
71.72
70.19
64.67
57.11
49.30
42.83
36.84
30.20
20.81
8.07
-6.89
-21.16
-30.73
-32.91
-25.74
-10.30
11.04
34.54
56.57
74.46
86.33
92.47
92.97
88.92
80.65
68.81
54.29
38.48
23.30
9.15
-3.80
-16.96
-30.94
-45.29
-57.84
-65.92
-68.91
-67.80
-66.52
-68.30
-74.67
-83.65
-91.01
-92.85
-87.22
-76.60
-64.92
-56.64
-53.50
-54.27
-55.59
-53.71
-47.66
-38.11
-28.18
-20.14
-14.98
-11.48
-7.32
-1.15
7.17
14.71
18.43
15.71
6.77
-5.75
-17.81
-25.40
-27.41
-24.13
-18.06
-11.11
-4.28
2.84
11.28
20.92
31.29
39.89
44.83
44.60
39.47
30.95
21.02
11.95
4.08
-2.34
-8.30
-14.15
-19.75
-24.21
-25.95
-24.36
-18.45
-9.01
3.09
16.11
28.47
38.85
46.00
49.77
49.13
44.03
34.07
19.71
2.27
-15.92
-31.51
-42.08
-45.21
-40.86
-29.97
-14.96
1.43
16.79
28.67
36.23
38.37
35.53
28.49
19.00
9.10
0.45
-5.69
-10.36
-14.58
-20.01
-26.61
-32.97
-36.80
-36.01
-30.96
-23.09
-15.68
-10.87
-9.54
-10.85
-13.12
-15.17
-15.97
-16.33
-16.69
-18.10
-20.84
-24.85
-29.55
-33.00
-33.66
-29.20
-19.27
-5.00
10.30
22.45
28.23
26.53
19.95
11.90
6.17
3.77
3.15
1.20
-4.59
-13.10
-21.06
-23.08
-16.10
-0.47
19.27
36.68
46.90
48.12
43.54
37.69
35.02
36.62
40.60
43.36
41.60
35.26
25.89
17.10
11.19
8.78
8.25
6.90
3.15
-3.29
-9.61
-12.79
-10.08
-1.24
11.61
24.76
34.09
37.77
35.02
27.46
16.69
4.23
-9.15
-23.08
-36.27
-47.58
-54.35
-54.99
-48.75
-36.91
-22.06
-7.30
4.38
12.23
15.85
16.43
14.56
10.29
2.90
-8.23
-21.77
-35.56
-45.27
-47.75
-41.39
-27.28
-8.76
9.98
24.76
34.12
37.59
36.64
32.49
26.11
18.43
9.59
0.16
-10.17
-20.51
-30.23
-38.15
-43.54
-46.14
-44.78
-39.17
-28.39
-12.44
8.75
33.58
58.81
80.18
93.92
100.85
104.10
108.80
118.11
132.04
147.21
159.26
166.45
163.20
151.06
134.16
115.60
93.73
64.28
25.76
-17.39
-54.92
-77.84
-81.18
-69.09
-51.51
-38.62
-35.39
-39.21
-44.45
-45.68
-43.14
-40.21
-41.87
-51.56
-68.50
-88.79
-106.82
-119.97
-127.76
-132.49
-135.71
-137.75
-137.81
-134.03
-125.60
-112.09
-94.89
-75.78
-56.81
-39.50
-24.44
-11.86
-0.61
10.07
21.12
31.84
40.66
46.10
48.39
50.87
57.56
72.40
95.35
122.22
145.79
159.52
161.05
152.57
140.24
129.51
123.27
120.42
117.20
109.32
93.80
70.09
38.34
-0.72
-47.07
-99.85
-154.47
-203.45
-238.55
-255.02
-252.33
-234.76
-207.85
-177.20
-147.20
-121.13
-101.88
-90.30
-85.48
-83.02
-77.61
-64.45
-41.74
-12.43
19.21
47.66
69.29
83.14
90.77
94.44
96.28
98.07
101.36
108.61
121.14
136.06
148.90
153.30
143.94
120.17
87.83
55.48
31.43
17.56
9.91
1.61
-11.86
-30.36
-49.46
-62.70
-67.47
-65.10
-61.10
-61.19
-67.62
-79.17
-92.05
-103.34
-111.60
-118.42
-125.53
-133.66
-142.00
-147.38
-148.19
-144.40
-138.79
-134.43
-133.74
-136.75
-140.65
-140.99
-132.26
-111.34
-77.54
-34.30
12.47
55.91
90.85
116.07
133.73
148.82
164.46
181.11
195.41
202.78
200.27
188.89
174.27
162.94
160.21
165.81
175.20
181.88
181.69
175.22
167.01
163.54
168.30
180.28
193.73
201.60
199.48
187.61
170.06
150.97
132.25
111.82
85.56
49.92
4.36
-49.58
-105.95
-156.79
-196.16
-221.35
-233.66
-236.19
-232.34
-224.47
-213.27
-199.15
-181.99
-163.31
-144.92
-129.19
-116.91
-106.78
-96.18
-81.71
-62.07
-38.24
-13.75
7.99
24.87
36.95
44.92
48.06
44.88
33.10
12.55
-14.22
-39.88
-56.52
-60.07
-51.42
-36.72
-22.16
-11.75
-4.36
2.97
12.65
24.45
34.52
39.48
37.14
29.55
20.70
14.88
13.97
16.06
17.46
13.63
3.12
-12.91
-30.35
-44.63
-52.45
-52.23
-45.35
-33.52
-19.35
-4.22
10.53
23.49
33.53
39.28
41.00
38.78
33.98
27.43
19.83
11.38
2.65
-4.09
-6.51
-1.54
11.28
30.17
50.50
66.81
75.19
74.29
66.90
56.53
46.84
38.70
30.91
21.25
8.67
-4.54
-14.57
-16.29
-7.81
9.36
30.12
48.30
59.43
61.52
56.22
45.49
31.58
15.02
-4.19
-25.83
-48.59
-69.13
-84.31
-90.70
-87.34
-74.90
-56.04
-34.19
-12.62
5.51
18.76
25.64
26.17
20.45
9.49
-5.26
-21.78
-37.15
-49.32
-55.87
-56.17
-50.37
-39.86
-26.37
-11.83
1.41
11.91
17.51
17.42
11.31
0.24
-13.99
-29.05
-42.00
-51.05
-54.05
-50.44
-40.12
-24.20
-4.52
16.45
35.48
50.25
58.13
58.39
50.98
37.40
19.90
1.44
-14.16
-24.27
-26.39
-20.65
-8.65
6.35
21.00
32.65
39.49
41.72
39.28
33.06
23.43
11.04
-3.26
-18.07
-31.06
-40.68
-44.98
-43.89
-37.81
-28.12
-16.24
-3.45
8.58
18.89
25.41
27.08
22.81
12.99
-0.88
-16.08
-28.76
-36.13
-35.65
-27.49
-13.21
4.02
20.96
35.03
44.39
49.07
48.79
44.32
35.99
24.56
10.95
-3.36
-15.98
-25.37
-29.61
-28.68
-23.11
-14.44
-4.21
6.22
15.36
22.47
25.81
24.65
18.27
7.35
-6.35
-20.17
-30.76
-36.46
-36.24
-31.54
-24.31
-16.83
-10.33
-4.96
-0.52
4.03
8.24
11.82
13.57
12.69
8.75
2.24
-4.99
-11.28
-14.00
-12.06
-5.04
5.80
18.48
30.77
40.28
45.99
46.51
41.92
32.56
20.05
6.80
-4.61
-11.88
-15.33
-16.26
-17.81
-21.93
-28.99
-37.10
-43.16
-45.06
-41.61
-34.63
-26.33
-19.71
-16.62
-17.82
-22.49
-27.74
-30.42
-26.47
-14.24
5.71
29.62
52.27
68.96
76.41
74.52
64.14
47.68
27.35
5.89
-13.66
-28.45
-36.05
-37.43
-35.33
-34.89
-40.01
-51.93
-68.42
-84.54
-95.33
-96.67
-88.21
-71.59
-50.88
-30.20
-12.56
1.37
14.01
28.38
47.83
72.13
98.32
120.85
134.60
137.21
129.33
114.57
95.71
74.95
52.46
28.71
5.19
-15.28
-28.83
-33.74
-29.86
-20.51
-9.77
-1.54
2.15
1.43
-2.67
-8.23
-14.96
-22.45
-31.32
-41.37
-51.69
-60.45
-65.05
-64.23
-57.03
-45.15
-30.89
-17.38
-7.01
-1.06
0.03
-2.63
-8.61
-16.43
-25.36
-34.20
-41.86
-47.06
-48.19
-44.75
-36.02
-23.28
-8.10
6.92
19.22
26.87
28.68
25.63
18.81
10.76
3.09
-3.03
-7.60
-11.13
-13.50
-14.71
-13.21
-8.43
-0.01
10.71
21.42
29.47
32.70
31.23
25.76
18.66
11.33
4.50
-2.12
-9.05
-15.71
-21.38
-24.00
-23.09
-19.01
-13.62
-8.65
-4.59
-0.55
6.29
17.19
32.26
48.47
61.75
68.39
67.00
59.80
50.24
42.86
39.56
40.26
42.60
43.91
42.49
38.24
33.42
30.04
30.30
34.07
39.68
44.45
46.07
44.43
40.50
37.04
35.33
35.55
35.86
34.19
29.33
21.10
11.08
-0.06
-11.45
-23.55
-36.40
-49.48
-61.35
-69.78
-74.09
-74.05
-71.62
-68.46
-65.82
-63.35
-59.76
-54.31
-46.85
-39.85
-35.46
-35.86
-40.94
-48.76
-56.10
-59.32
-56.87
-48.06
-34.73
-18.96
-3.39
9.91
19.60
24.84
26.38
24.66
21.44
17.82
14.99
13.51
13.58
15.67
19.10
23.71
27.86
30.38
30.04
26.70
21.21
14.62
8.62
3.23
-1.38
-6.11
-11.19
-16.39
-20.70
-22.14
-19.60
-11.72
0.66
16.02
31.53
44.50
52.99
56.21
55.55
52.28
48.62
45.25
42.24
38.92
34.91
31.19
28.70
29.39
33.26
39.48
45.65
49.54
49.92
46.61
41.16
34.22
26.74
18.27
8.65
-1.79
-11.75
-18.97
-22.64
-22.46
-20.52
-18.84
-19.17
-21.44
-24.06
-25.57
-24.68
-22.64
-20.88
-21.28
-23.82
-26.97
-28.42
-26.53
-23.18
-21.97
-28.14
-44.22
-68.94
-96.55
-119.02
-129.65
-124.90
-106.98
-80.81
-52.97
-28.35
-9.34
4.22
14.41
22.58
30.02
36.00
39.92
41.15
40.24
38.92
38.67
40.51
42.76
43.22
39.24
30.28
18.10
6.22
-1.27
-2.80
1.39
7.97
13.49
15.35
13.02
7.79
1.26
-4.88
-10.97
-17.38
-25.12
-34.28
-44.25
-53.46
-59.31
-60.00
-53.65
-40.72
-22.92
-3.57
13.66
25.88
30.98
28.81
19.23
3.20
-18.41
-43.82
-70.14
-93.46
-108.69
-112.36
-102.51
-81.28
-53.53
-25.81
-3.47
11.91
22.59
34.32
51.32
74.80
100.52
121.34
130.52
125.43
109.57
89.68
73.90
66.44
67.42
73.03
78.49
80.61
77.99
71.67
62.07
49.71
34.10
15.27
-5.40
-25.33
-40.73
-49.34
-49.93
-44.08
-34.17
-22.93
-12.04
-1.93
7.04
15.32
21.97
26.42
27.70
25.71
21.00
14.67
8.45
2.78
-1.49
-4.68
-6.61
-6.91
-4.78
0.47
7.84
15.83
21.17
21.77
16.87
8.27
-0.69
-6.66
-7.41
-3.63
3.06
9.88
15.18
18.46
20.41
22.23
23.83
24.64
23.14
18.81
11.32
1.03
-12.21
-29.44
-51.89
-81.64
-119.02
-162.18
-206.16
-244.49
-270.93
-281.11
-274.32
-252.50
-220.62
-184.35
-148.40
-114.90
-83.46
-51.55
-15.22
28.26
80.50
139.63
197.54
243.00
268.06
272.63
262.36
244.32
221.57
194.05
159.89
118.72
73.95
32.00
-2.48
-28.20
-46.22
-60.04
-72.53
-84.35
-93.94
-97.36
-91.28
-74.41
-49.12
-19.55
7.84
27.51
37.17
37.62
33.09
27.68
24.26
22.85
21.56
18.06
11.60
4.23
-1.37
-2.12
2.50
10.98
20.35
27.57
31.19
31.16
29.50
27.60
26.40
25.22
22.76
18.46
12.73
7.63
4.82
5.65
9.30
13.71
16.37
15.56
11.51
5.13
-1.88
-9.25
-16.91
-25.09
-33.55
-41.20
-46.65
-47.89
-44.57
-37.20
-28.45
-21.07
-16.50
-14.75
-14.11
-12.88
-8.91
-2.03
6.35
13.34
16.33
15.39
11.65
7.12
2.19
-2.97
-9.63
-19.51
-34.32
-54.74
-79.19
-106.82
-137.00
-170.91
-208.06
-242.29
-265.06
-267.90
-255.39
-231.39
-200.87
-164.27
-124.50
-83.54
-42.33
-1.52
38.61
76.64
112.20
142.60
164.55
174.48
171.79
159.70
143.99
131.56
126.75
131.59
143.13
155.93
164.11
164.90
159.22
149.43
138.36
126.51
114.17
101.16
88.55
78.97
75.81
81.68
95.42
113.08
128.23
135.56
132.43
119.48
99.76
76.14
50.70
23.15
-6.78
-38.51
-69.02
-93.77
-108.72
-111.71
-104.46
-90.86
-76.27
-64.98
-59.07
-58.34
-60.70
-64.15
-66.43
-66.62
-63.85
-57.81
-48.36
-35.56
-20.39
-3.94
11.44
23.82
31.43
33.98
32.50
29.17
26.67
26.22
27.83
28.94
26.37
17.34
1.24
-19.65
-41.49
-59.77
-72.13
-78.05
-79.04
-76.74
-71.78
-63.51
-50.50
-32.82
-12.16
7.22
20.84
25.29
19.89
6.89
-9.80
-25.59
-37.53
-44.05
-45.23
-41.37
-32.70
-19.52
-2.49
16.53
35.41
51.75
64.33
73.37
80.41
87.14
93.42
97.15
94.23
80.67
53.76
13.28
-38.48
-95.53
-148.51
-187.89
-207.10
-205.90
-189.05
-163.68
-136.02
-110.09
-87.90
-69.58
-55.36
-44.68
-37.13
-31.48
-26.20
-20.01
-12.52
-4.85
1.84
6.44
10.17
15.72
26.38
44.19
68.15
94.36
116.83
131.78
136.92
133.93
126.74
120.13
117.76
120.36
126.16
130.56
129.02
116.11
92.30
61.57
30.70
5.09
-12.01
-19.18
-18.55
-13.97
-9.76
-8.64
-11.30
-17.01
-23.56
-29.21
-32.60
-33.27
-31.08
-25.77
-17.89
-8.66
-1.41
0.37
-6.31
-21.68
-43.06
-65.77
-84.42
-96.33
-101.07
-100.92
-98.06
-93.42
-86.07
-74.07
-57.03
-35.50
-12.33
9.65
28.14
42.35
52.97
61.29
68.87
75.65
81.22
83.78
81.72
74.13
61.66
47.01
33.02
22.82
17.18
15.49
15.49
15.27
14.20
12.46
11.39
10.82
10.05
7.24
1.16
-8.26
-19.73
-30.51
-38.75
-42.92
-43.31
-40.70
-36.29
-31.04
-26.15
-24.03
-26.92
-37.88
-57.91
-85.86
-117.89
-148.17
-171.22
-183.15
-184.09
-176.24
-163.88
-150.24
-136.66
-121.77
-101.58
-72.68
-33.11
14.64
65.21
110.88
144.64
162.27
163.02
151.13
131.92
111.02
91.98
76.67
65.42
58.18
55.62
58.16
67.98
85.28
108.48
134.02
157.94
178.28
195.80
214.18
230.37
240.96
239.66
220.98
183.60
133.00
80.34
37.33
12.92
4.78
6.66
10.02
8.04
-1.82
-18.20
-37.44
-56.30
-73.40
-89.55
-104.95
-119.61
-133.59
-147.63
-163.94
-185.30
-213.28
-246.67
-279.76
-302.48
-304.46
-278.79
-224.76
-148.01
-58.37
36.60
124.49
193.76
238.74
260.14
261.38
244.66
213.65
167.71
107.75
36.97
-38.30
-111.26
-177.36
-227.97
-257.34
-263.77
-249.88
-220.98
-184.12
-145.20
-108.48
-76.77
-51.67
-34.37
-24.11
-17.88
-10.78
0.97
18.75
39.43
56.97
65.25
60.46
43.75
20.30
-2.46
-18.53
-24.27
-19.47
-6.37
12.23
33.52
56.01
78.88
100.88
119.32
130.72
132.17
123.18
106.89
88.91
74.87
67.50
65.70
65.79
63.19
57.57
51.52
48.85
51.17
57.34
63.32
65.39
61.96
54.27
45.61
38.96
36.46
37.72
40.43
40.37
33.03
14.96
-14.64
-52.41
-93.34
-130.64
-158.77
-175.32
-180.77
-176.97
-165.04
-144.99
-116.00
-78.86
-36.54
5.98
43.09
70.93
89.30
101.28
110.26
118.43
124.76
124.95
117.32
103.82
85.92
65.59
44.08
21.11
-3.93
-30.13
-53.55
-67.95
-68.54
-55.12
-33.66
-14.65
-9.08
-23.77
-57.95
-104.69
-151.28
-185.51
-200.32
-196.30
-180.35
-161.06
-144.34
-130.53
-116.70
-98.14
-72.03
-39.02
-0.34
41.36
82.75
120.71
154.14
182.40
206.23
226.08
241.83
252.72
256.81
252.19
232.86
197.16
145.87
83.14
16.24
-45.38
-91.66
-115.61
-114.56
-91.75
-54.49
-13.58
20.09
38.45
37.49
17.60
-18.39
-65.46
-116.60
-162.27
-192.89
-200.13
-179.41
-131.66
-63.02
17.15
94.52
154.46
188.29
195.43
181.36
154.48
122.51
94.13
70.62
49.93
28.63
3.00
-28.82
-66.21
-104.98
-137.39
-155.52
-155.08
-136.99
-107.35
-76.10
-53.22
-46.21
-57.76
-85.89
-123.32
-160.72
-188.45
-200.64
-198.25
-185.90
-169.29
-151.48
-132.34
-109.82
-82.12
-50.35
-14.24
24.74
65.55
106.43
145.67
181.98
214.94
245.11
272.88
298.76
316.15
319.89
305.40
270.57
218.59
158.04
100.89
57.74
34.31
28.72
34.38
42.82
47.23
45.01
36.48
22.55
2.37
-26.52
-66.67
-117.71
-174.81
-230.14
-273.49
-295.72
-291.64
-261.50
-209.90
-144.84
-75.08
-4.52
59.20
108.82
140.62
156.65
162.70
163.90
164.07
158.63
140.84
104.85
50.06
-18.88
-94.35
-167.32
-226.23
-260.98
-266.42
-242.79
-196.11
-135.88
-73.30
-19.45
17.69
34.74
32.97
17.12
-5.60
-27.77
-43.19
-48.46
-43.35
-30.09
-10.26
13.53
37.94
60.66
81.41
100.76
118.77
131.86
138.40
139.35
137.35
136.35
134.56
127.47
109.28
75.23
24.96
-33.95
-87.59
-121.22
-125.83
-100.57
-51.19
12.73
81.85
144.96
190.77
211.73
211.20
190.63
149.38
85.58
4.36
-83.75
-165.16
-226.76
-259.26
-260.83
-237.59
-199.52
-155.71
-111.32
-68.32
-26.80
12.96
49.43
78.79
96.52
100.87
94.38
82.84
70.90
59.42
46.08
28.23
5.29
-20.19
-43.26
-60.13
-70.44
-76.40
-83.02
-94.33
-109.39
-122.78
-128.41
-123.33
-109.96
-93.35
-78.87
-69.09
-63.01
-56.73
-46.34
-31.43
-12.44
7.56
25.91
40.40
50.54
57.26
61.97
65.67
68.93
72.92
79.17
90.00
107.15
128.22
149.33
165.08
170.84
163.92
144.26
112.82
71.06
20.98
-34.11
-87.42
-130.06
-153.37
-153.12
-131.06
-94.71
-53.86
-15.87
15.49
40.71
61.26
78.03
90.01
95.04
91.56
79.14
59.46
35.11
9.55
-14.00
-32.89
-45.00
-50.15
-49.08
-44.08
-37.31
-30.73
-25.18
-20.30
-15.27
-8.01
2.74
17.84
35.98
54.46
69.48
77.46
76.91
68.16
54.59
40.55
31.13
30.01
38.68
55.58
75.23
90.72
94.29
81.51
52.24
11.67
-31.77
-69.94
-97.26
-113.54
-121.48
-125.42
-127.54
-127.44
-122.93
-112.47
-98.46
-86.71
-85.09
-98.22
-125.29
-158.93
-188.13
-202.74
-196.39
-168.59
-124.22
-71.98
-21.33
19.47
45.79
57.58
58.81
57.25
61.30
77.39
107.65
149.50
196.31
238.38
265.10
267.13
240.67
188.79
121.10
50.72
-10.25
-54.34
-79.98
-90.55
-94.54
-102.60
-118.59
-140.58
-161.95
-176.06
-176.98
-160.76
-127.15
-79.31
-22.30
37.29
91.85
134.70
159.98
165.60
154.04
131.02
105.07
86.06
82.20
94.02
117.74
144.08
163.68
176.17
178.48
166.89
139.79
94.62
33.68
-36.18
-108.27
-175.97
-231.75
-269.09
-285.14
-280.52
-257.72
-226.21
-185.83
-137.60
-85.30
-35.09
6.53
33.14
42.56
38.32
27.96
21.90
27.84
49.68
85.36
126.52
161.11
179.28
178.70
163.60
142.92
123.65
109.52
100.25
92.55
83.16
66.83
40.95
4.10
-41.51
-92.27
-143.53
-190.30
-228.92
-257.18
-275.09
-278.60
-267.56
-243.07
-208.17
-166.06
-118.63
-66.58
-10.43
47.17
100.89
142.03
163.38
160.77
135.93
97.14
56.83
27.62
18.26
31.98
65.67
113.32
165.70
211.37
239.29
240.98
212.84
157.11
81.66
-5.68
-89.60
-153.72
-189.40
-198.60
-190.87
-176.29
-161.00
-145.87
-130.66
-110.30
-80.74
-41.99
2.17
46.01
84.51
115.58
141.10
161.63
175.86
183.53
183.74
175.75
160.64
141.49
122.23
105.05
89.92
69.83
37.68
-10.34
-72.50
-141.77
-209.74
-269.76
-311.94
-331.53
-329.36
-310.28
-280.99
-247.67
-214.09
-182.42
-155.52
-130.25
-103.53
-73.27
-37.67
4.29
52.14
104.40
155.13
197.06
223.65
230.36
215.91
184.36
144.78
108.77
87.07
85.86
105.56
141.45
185.07
225.63
253.22
261.24
247.28
212.97
162.38
100.83
29.63
-43.94
-110.07
-160.88
-193.23
-208.68
-209.80
-198.84
-177.53
-149.65
-116.56
-82.19
-51.50
-28.64
-14.68
-5.87
3.46
18.64
41.33
72.04
104.86
132.30
147.33
147.35
136.16
119.84
103.65
90.29
80.48
71.24
58.17
37.76
6.52
-35.15
-84.07
-135.65
-184.65
-226.01
-257.94
-274.14
-274.06
-266.83
-255.02
-238.37
-216.39
-188.91
-153.00
-108.90
-57.45
-1.38
55.99
112.42
164.76
208.23
237.26
247.60
237.51
210.15
172.67
134.70
106.89
96.03
101.66
115.48
125.68
120.44
93.31
44.55
-19.89
-90.85
-154.08
-195.45
-208.55
-196.66
-170.00
-141.25
-113.93
-86.47
-54.80
-16.07
29.91
77.82
119.99
148.58
158.60
149.24
123.69
88.60
52.07
21.51
1.29
-6.12
-0.02
19.56
51.86
92.40
133.39
166.54
187.54
194.87
188.44
166.66
130.93
79.37
13.14
-61.71
-136.14
-201.21
-253.99
-289.41
-305.24
-303.69
-289.50
-267.15
-239.02
-209.68
-174.81
-131.57
-80.26
-23.88
33.30
89.56
143.85
192.70
231.20
256.12
265.21
257.69
238.97
207.55
163.49
111.47
59.38
15.49
-10.98
-15.66
-0.68
25.25
48.80
58.58
48.73
20.20
-19.57
-59.33
-90.06
-107.62
-114.04
-115.96
-118.72
-123.83
-129.58
-132.77
-131.48
-128.12
-128.25
-137.88
-159.79
-188.95
-213.31
-219.45
-198.11
-147.68
-75.03
8.60
93.13
165.34
214.47
236.01
232.10
208.72
173.96
136.34
104.17
82.79
71.59
65.75
57.60
40.60
11.31
-28.57
-73.72
-117.14
-150.02
-167.75
-170.08
-160.49
-143.62
-124.00
-104.28
-85.83
-68.23
-50.73
-32.82
-13.19
8.16
32.59
59.50
87.66
114.49
137.67
154.93
162.14
160.17
151.49
138.85
122.91
103.23
79.15
53.25
27.45
4.46
-12.84
-24.79
-33.57
-43.65
-58.27
-78.22
-100.26
-118.34
-126.19
-118.87
-96.43
-62.94
-25.39
10.39
38.98
58.12
69.32
75.78
80.92
85.12
86.70
82.41
70.12
49.84
23.29
-6.83
-38.72
-71.45
-104.67
-136.89
-165.10
-185.39
-193.86
-188.92
-170.84
-141.97
-104.64
-60.36
-10.29
43.76
96.47
139.99
165.29
166.54
143.95
105.25
63.55
32.39
21.57
32.85
60.84
95.39
126.23
145.97
151.70
144.80
128.42
107.11
84.61
63.49
44.46
26.46
7.34
-15.68
-43.69
-75.94
-107.99
-134.19
-149.46
-151.17
-140.54
-121.01
-97.77
-75.09
-56.60
-43.71
-37.31
-36.99
-40.35
-43.39
-40.32
-26.99
-2.62
28.99
61.75
88.73
104.96
109.48
103.93
91.51
73.94
51.10
19.67
-19.59
-60.88
-96.05
-118.84
-129.86
-133.46
-134.14
-132.64
-127.60
-112.60
-83.55
-43.09
0.83
37.69
60.33
67.49
64.45
58.12
57.04
66.38
85.78
111.03
133.80
148.07
151.89
147.57
139.60
132.26
126.77
121.21
112.99
100.00
81.68
58.77
33.58
6.47
-21.90
-50.72
-79.76
-108.68
-137.16
-165.24
-192.38
-217.50
-238.43
-251.73
-249.85
-227.68
-183.59
-120.32
-45.33
31.39
99.95
153.13
187.49
203.08
201.73
186.62
161.94
132.58
103.84
80.89
67.01
62.25
62.89
62.31
53.62
32.38
-2.56
-48.75
-100.12
-147.06
-179.83
-194.34
-193.80
-184.77
-171.49
-153.75
-128.39
-92.04
-45.45
5.74
52.05
84.23
97.92
94.28
78.31
56.25
34.45
17.79
9.39
10.58
20.40
37.81
63.00
95.93
131.79
164.37
188.36
200.87
206.68
204.07
189.05
159.82
114.07
53.55
-15.60
-85.41
-149.08
-198.45
-227.28
-241.95
-247.00
-239.03
-217.59
-185.86
-150.26
-118.50
-95.21
-82.25
-76.48
-70.48
-57.46
-34.63
-2.14
38.24
83.71
130.32
168.92
188.60
183.08
153.59
109.11
64.52
36.39
31.29
48.61
78.80
107.76
123.13
117.53
87.63
36.82
-26.08
-90.73
-143.37
-174.94
-184.43
-177.58
-163.13
-147.78
-133.81
-119.17
-103.31
-82.48
-56.50
-28.51
-2.84
16.45
26.86
28.76
24.64
16.96
9.61
5.05
5.27
12.44
28.40
53.65
86.02
118.95
143.99
156.88
157.82
150.45
138.44
125.54
107.55
79.24
37.61
-16.37
-77.48
-140.03
-196.46
-237.21
-256.54
-256.37
-243.77
-226.36
-212.22
-198.27
-178.85
-149.91
-110.34
-61.62
-5.97
52.94
111.23
165.10
210.28
240.95
251.18
238.00
204.47
160.16
119.52
96.58
99.77
128.37
172.55
216.62
244.78
246.48
218.37
164.80
94.76
19.16
-55.29
-119.10
-165.09
-192.29
-204.79
-208.16
-203.51
-191.59
-168.58
-132.89
-87.38
-39.43
1.93
30.41
42.19
38.41
24.06
6.23
-8.76
-16.37
-14.31
-1.99
20.82
52.76
89.70
124.26
149.05
160.59
160.40
152.77
140.81
129.05
114.18
92.73
62.78
24.75
-17.94
-61.42
-101.76
-135.19
-159.38
-174.96
-183.71
-188.04
-190.12
-190.02
-186.64
-178.55
-164.03
-141.87
-112.01
-75.05
-32.67
11.17
52.39
86.26
109.33
121.85
127.98
131.42
136.05
142.48
146.50
143.21
133.49
117.43
95.60
68.32
35.30
-5.03
-52.56
-105.63
-156.74
-196.18
-216.41
-215.57
-199.31
-176.77
-155.97
-140.04
-129.98
-118.37
-98.68
-69.40
-34.00
1.88
33.34
57.59
72.76
78.33
77.07
73.64
72.94
78.37
92.22
114.79
144.51
177.85
206.97
225.87
232.15
235.65
239.12
241.06
234.47
215.90
184.42
142.34
93.56
42.11
-9.93
-62.73
-115.46
-165.73
-209.16
-242.26
-262.68
-269.98
-265.61
-252.63
-236.18
-219.91
-205.83
-192.52
-177.75
-158.59
-133.45
-102.35
-66.99
-30.36
6.04
41.26
75.03
105.27
128.60
141.10
141.11
130.82
114.68
99.28
88.81
84.52
83.77
82.86
79.22
72.38
64.24
56.24
49.51
43.37
36.78
28.87
19.54
9.54
-1.10
-12.24
-24.72
-38.34
-52.05
-63.36
-69.89
-71.00
-67.81
-64.01
-62.68
-65.83
-72.66
-80.85
-87.82
-91.45
-91.58
-88.05
-81.23
-70.93
-57.44
-41.72
-25.12
-9.53
4.60
16.98
28.00
37.09
43.67
47.83
51.60
59.42
74.98
99.90
130.59
160.17
180.88
188.15
182.06
165.71
143.70
118.22
90.24
59.91
29.42
2.86
-15.59
-23.30
-22.14
-16.40
-11.77
-11.69
-16.49
-23.87
-30.42
-34.35
-35.00
-33.62
-31.07
-28.12
-24.56
-19.88
-14.41
-8.68
-4.33
-2.19
-2.70
-4.63
-6.23
-5.62
-2.13
1.80
2.28
-5.64
-24.22
-51.80
-82.01
-106.26
-118.12
-115.49
-102.74
-87.11
-75.69
-71.16
-71.30
-70.67
-63.42
-47.24
-23.05
4.83
32.23
56.22
76.06
92.14
103.54
108.15
102.26
83.92
54.02
17.93
-16.46
-41.43
-51.90
-48.22
-34.35
-16.86
-1.34
8.76
12.84
12.44
9.22
5.35
1.73
-0.73
-1.76
-0.79
2.69
8.28
15.21
20.95
23.35
20.56
12.88
2.12
-8.86
-17.11
-21.56
-21.81
-19.10
-14.21
-7.91
-0.16
9.10
18.78
27.60
32.96
33.33
28.06
18.72
7.77
-2.20
-9.46
-14.81
-19.68
-26.21
-34.89
-44.93
-54.05
-59.69
-60.66
-56.26
-47.58
-35.57
-21.73
-7.08
7.06
19.19
28.18
32.28
30.93
23.79
11.89
-3.22
-19.01
-32.51
-41.45
-43.65
-38.82
-27.50
-11.74
6.23
23.95
39.02
50.02
55.20
54.07
46.33
32.98
15.53
-3.49
-20.77
-33.56
-39.01
-36.23
-25.49
-9.06
10.12
28.75
43.72
53.62
57.40
55.64
49.14
39.55
28.42
17.33
7.69
-0.50
-7.24
-13.44
-19.14
-24.05
-26.98
-26.81
-23.67
-18.15
-12.44
-8.12
-6.60
-7.81
-11.09
-15.25
-18.79
-21.23
-21.88
-21.16
-19.29
-16.99
-14.50
-11.59
-8.24
-3.73
1.59
7.47
12.75
16.70
18.65
18.51
17.01
14.15
10.29
4.82
-2.31
-11.07
-20.39
-28.33
-33.26
-33.31
-28.62
-20.22
-10.64
-2.11
3.57
5.49
4.10
-0.18
-5.99
-12.86
-20.29
-28.41
-36.87
-44.95
-52.21
-57.65
-60.76
-60.58
-56.93
-50.26
-41.92
-33.61
-26.82
-23.38
-24.49
-30.46
-39.50
-48.36
-52.50
-47.06
-28.64
3.81
47.40
93.42
130.18
150.06
152.91
144.20
130.69
116.64
103.85
91.99
80.58
69.81
61.17
55.90
54.08
54.81
56.36
57.29
56.80
55.26
53.79
53.85
55.48
56.96
55.30
47.58
32.72
11.55
-13.00
-37.45
-58.91
-76.19
-90.00
-100.93
-109.24
-114.17
-115.40
-113.12
-108.66
-103.86
-99.92
-96.59
-92.15
-84.95
-74.36
-61.61
-48.42
-35.87
-23.63
-9.95
7.01
27.96
51.37
74.55
95.09
112.58
127.94
141.21
149.96
149.09
132.88
97.62
44.14
-22.24
-93.19
-157.00
-204.69
-232.27
-240.25
-230.12
-202.12
-155.91
-93.32
-20.48
52.72
115.49
160.77
187.78
201.18
207.11
208.70
204.14
188.56
157.93
112.47
58.16
4.68
-38.63
-66.68
-80.24
-84.77
-86.70
-90.03
-94.85
-97.67
-93.74
-79.81
-56.04
-26.42
2.64
24.91
36.62
37.76
31.66
23.13
16.08
12.03
10.05
8.33
5.86
3.75
4.36
9.81
20.33
33.84
46.80
55.79
58.99
56.72
50.76
42.93
34.12
24.15
12.69
0.24
-11.28
-19.08
-20.52
-14.51
-2.11
13.69
29.14
41.04
47.79
49.58
47.67
43.93
40.17
37.78
37.70
40.40
45.73
52.82
60.12
65.48
67.27
65.14
60.26
55.03
52.06
53.02
57.74
66.09
75.57
83.11
86.24
84.00
77.09
67.34
56.84
47.21
39.30
33.06
28.36
25.23
23.85
24.32
26.32
29.05
31.51
32.78
32.21
29.81
26.18
22.29
19.05
17.03
16.29
16.38
16.61
16.15
14.54
11.73
7.99
3.69
-0.94
-5.93
-11.53
-18.03
-25.59
-33.83
-41.89
-48.65
-53.22
-55.39
-55.76
-55.57
-56.31
-59.19
-64.80
-73.07
-83.33
-94.36
-104.36
-110.97
-111.68
-104.44
-88.64
-65.50
-38.06
-10.18
14.44
33.27
45.19
50.34
49.63
44.31
35.86
25.94
16.42
9.11
5.25
5.19
8.14
12.54
16.55
18.77
18.79
17.26
15.60
15.27
17.00
20.24
23.17
23.21
17.94
6.01
-12.30
-34.96
-58.60
-79.22
-92.97
-96.87
-89.38
-70.78
-43.26
-10.67
22.29
51.03
72.15
84.14
87.39
83.82
76.04
66.65
57.72
50.59
45.96
44.01
44.53
47.01
50.80
55.26
60.07
65.37
71.59
79.15
88.05
97.82
107.75
117.32
126.71
136.73
148.42
162.15
176.85
190.01
198.35
199.10
191.24
175.85
155.65
133.82
112.80
93.58
75.88
58.91
42.25
26.30
12.06
0.41
-8.68
-16.38
-24.74
-35.87
-51.12
-70.62
-93.10
-116.49
-138.63
-158.15
-175.06
-190.99
-208.85
-231.84
-261.82
-297.80
-335.20
-366.64
-384.14
-381.86
-358.50
-317.86
-267.87
-218.28
-178.31
-154.78
-151.07
-166.43
-195.72
-230.07
-258.47
-270.48
-259.33
-224.18
-170.53
-108.52
-49.82
-4.50
20.81
23.18
2.67
-38.21
-94.48
-157.90
-217.17
-259.57
-274.76
-258.82
-216.42
-159.78
-104.16
-61.90
-37.92
-28.73
-25.10
-16.61
4.24
39.95
87.92
141.81
193.21
233.64
256.05
256.40
234.36
193.03
137.38
72.33
1.60
-71.83
-144.41
-211.08
-265.49
-301.83
-317.03
-312.08
-291.58
-261.60
-227.32
-191.91
-157.06
-124.66
-98.16
-82.41
-82.05
-99.34
-132.85
-177.56
-226.29
-271.62
-307.28
-328.95
-334.70
-324.86
-301.81
-269.50
-232.63
-195.49
-160.94
-129.95
-101.96
-75.64
-49.69
-23.21
4.17
32.40
61.18
90.01
118.39
145.98
172.85
199.41
226.18
253.29
280.21
305.88
328.99
348.58
364.57
377.83
390.24
404.52
423.90
451.40
488.46
533.37
580.48
621.04
645.70
647.95
626.70
586.59
535.69
482.08
430.89
383.44
338.51
294.59
251.45
210.14
171.67
135.71
100.29
62.78
21.47
-23.39
-69.70
-114.53
-155.55
-191.99
-224.83
-256.10
-288.00
-322.51
-361.22
-405.33
-455.10
-508.88
-562.27
-608.38
-639.55
-650.00
-638.12
-607.04
-563.23
-513.76
-463.65
-414.93
-367.34
-320.02
-273.02
-227.45
-184.50
-144.19
-104.81
-63.56
-18.15
31.82
84.28
135.25
180.16
215.48
239.58
252.83
257.12
255.02
249.09
241.67
234.63
229.17
225.56
223.04
220.22
215.94
209.94
202.89
195.69
188.53
180.55
170.41
157.39
142.32
127.39
115.16
107.05
102.61
99.86
96.43
90.64
81.97
70.77
57.82
44.08
30.74
19.19
10.68
5.72
3.64
2.77
1.18
-2.46
-8.38
-15.70
-22.92
-28.51
-31.32
-30.81
-27.01
-20.38
-11.73
-2.14
7.24
15.38
21.61
25.97
29.31
33.11
38.95
47.79
59.42
72.33
84.25
93.01
97.23
96.65
91.93
84.37
75.67
67.51
61.11
56.56
52.46
46.17
34.76
16.41
-8.67
-38.13
-68.13
-94.41
-113.19
-121.46
-117.15
-99.25
-68.23
-26.50
21.58
70.69
116.02
154.76
186.65
213.27
236.55
257.17
273.67
282.82
281.00
265.74
236.81
196.47
148.83
98.75
50.82
8.43
-26.50
-53.74
-74.67
-91.95
-108.56
-126.67
-146.40
-165.47
-180.01
-186.37
-183.43
-173.72
-162.64
-156.25
-158.59
-170.03
-187.31
-205.03
-217.73
-221.64
-215.58
-200.87
-180.57
-158.46
-137.59
-119.21
-102.33
-84.40
-62.96
-37.18
-8.47
20.20
45.75
66.26
81.15
90.51
94.38
92.67
85.88
75.77
65.49
58.80
58.65
65.89
78.83
93.55
104.99
108.02
98.36
73.19
31.80
-23.49
-86.93
-149.57
-200.64
-230.05
-231.34
-203.85
-153.20
-89.58
-24.53
32.52
76.31
106.27
125.23
137.74
148.13
159.23
171.53
183.41
191.90
194.04
188.21
174.51
153.99
127.58
95.33
56.75
12.09
-36.64
-85.90
-132.31
-174.66
-214.47
-254.48
-295.88
-336.11
-369.05
-387.64
-387.24
-367.87
-333.66
-290.22
-241.66
-189.55
-134.30
-78.29
-28.09
6.22
15.19
-4.84
-48.03
-99.73
-141.30
-157.13
-140.28
-94.48
-31.41
34.57
91.59
133.14
158.11
169.06
169.96
164.73
156.81
149.24
144.96
146.61
155.95
172.91
195.07
217.85
236.19
246.67
249.01
245.80
240.34
234.04
225.08
209.43
183.81
148.44
107.83
68.86
37.79
17.66
7.72
4.65
4.30
3.05
-1.64
-11.07
-25.07
-41.62
-57.23
-68.02
-71.35
-66.88
-56.47
-43.07
-29.35
-17.07
-7.28
-0.99
0.56
-3.72
-13.91
-28.60
-44.86
-59.09
-68.08
-69.92
-64.35
-52.77
-37.65
-21.83
-7.77
2.93
9.71
12.72
12.56
10.04
6.22
2.44
0.13
0.26
2.83
6.62
9.51
9.37
5.05
-2.98
-12.77
-21.78
-27.87
-30.12
-28.86
-25.32
-20.90
-16.91
-14.36
-14.11
-16.84
-22.78
-31.35
-40.98
-49.70
-56.12
-60.49
-64.93
-72.79
-87.07
-108.66
-135.33
-161.80
-181.11
-186.48
-173.45
-141.34
-93.76
-38.09
16.00
58.58
81.67
81.24
58.51
19.84
-24.75
-64.22
-89.60
-96.22
-84.42
-58.27
-23.32
15.61
55.22
93.25
127.41
154.73
172.11
177.50
171.14
155.56
134.63
112.13
90.76
72.04
56.65
45.06
37.70
34.65
35.39
38.71
42.98
46.59
48.23
46.98
42.40
34.59
24.31
13.03
2.63
-5.24
-9.70
-10.90
-9.76
-7.27
-3.95
0.25
5.69
12.48
20.10
27.52
33.65
37.80
39.91
40.37
39.60
37.80
34.87
30.65
25.34
19.62
14.54
11.13
9.96
10.78
12.59
14.04
13.92
11.76
7.92
3.46
-0.28
-2.29
-2.26
-0.60
1.83
4.32
6.59
8.82
11.32
14.01
16.17
16.56
14.01
8.09
-0.59
-10.53
-19.95
-27.49
-32.57
-35.30
-36.08
-35.12
-32.45
-28.14
-22.68
-17.02
-12.29
-9.24
-7.75
-6.80
-5.08
-1.76
2.91
7.55
10.38
10.04
6.33
0.27
-6.53
-12.48
-16.57
-18.25
-17.23
-13.37
-6.88
1.41
10.09
17.50
22.62
25.43
26.91
28.38
30.62
33.35
35.43
35.54
32.81
27.40
20.26
12.68
5.90
0.71
-2.44
-3.36
-2.13
0.85
4.74
8.23
9.86
8.61
4.34
-1.96
-8.64
-14.18
-17.97
-20.46
-22.71
-25.42
-28.14
-29.43
-27.55
-21.61
-12.17
-1.04
9.59
18.04
23.57
26.30
26.58
24.69
20.69
14.82
7.83
1.01
-4.13
-6.36
-5.05
-0.43
6.57
14.61
22.43
29.14
34.45
38.31
40.75
41.75
41.07
38.59
34.47
29.65
25.75
24.54
26.50
30.75
35.55
39.23
40.92
40.66
39.25
37.73
36.86
35.86
33.81
30.91
28.95
30.32
36.39
46.59
58.44
68.23
70.78
62.43
43.19
17.20
-9.21
-30.46
-43.44
-48.23
-47.77
-48.67
-57.55
-77.96
-109.14
-147.56
-189.55
-232.15
-273.40
-298.09
-293.55
-257.60
-201.22
-139.29
-81.70
-32.58
7.71
40.21
66.41
85.79
97.83
103.41
105.18
106.07
106.86
107.62
107.53
105.68
99.85
88.22
70.46
48.03
25.75
5.79
-10.85
-23.87
-33.05
-39.33
-43.80
-47.21
-49.63
-50.88
-51.43
-51.62
-51.45
-50.53
-48.86
-46.72
-44.61
-43.08
-42.58
-43.78
-46.65
-50.41
-53.73
-55.72
-55.97
-54.93
-53.51
-52.69
-53.52
-56.67
-62.54
-71.01
-80.73
-88.66
-90.43
-81.80
-60.86
-29.71
5.87
38.42
61.84
73.70
75.64
71.70
65.89
60.37
55.17
49.42
42.76
36.00
30.56
27.47
26.56
26.50
25.59
22.42
16.83
9.75
2.85
-2.40
-5.32
-6.38
-6.87
-8.23
-11.43
-16.39
-22.05
-26.74
-28.92
-27.79
-23.54
-17.24
-10.18
-3.39
2.87
9.08
16.21
24.99
35.52
46.93
57.72
66.26
71.41
73.07
72.09
70.03
68.59
69.14
72.18
77.08
82.04
84.28
80.85
69.76
50.91
26.53
0.71
-21.87
-37.46
-44.35
-43.23
-36.74
-28.37
-21.20
-16.91
-15.50
-15.59
-15.43
-13.89
-11.13
-8.47
-7.57
-9.32
-13.15
-17.33
-19.87
-19.64
-17.06
-13.76
-11.71
-12.12
-14.88
-18.57
-21.29
-21.55
-18.96
-14.25
-8.92
-4.66
-2.68
-3.36
-6.11
-9.75
-12.86
-14.34
-13.81
-11.37
-7.71
-4.06
-1.91
-2.47
-6.31
-13.00
-21.00
-28.18
-32.45
-32.55
-28.39
-21.07
-12.42
-4.44
1.27
3.83
3.12
-0.32
-5.55
-11.34
-16.36
-19.40
-19.66
-17.04
-12.31
-6.84
-1.98
1.56
4.11
6.80
10.91
17.07
24.85
33.02
40.10
45.02
47.34
46.99
44.03
38.50
30.64
21.24
11.78
4.15
-0.03
0.03
3.98
10.66
18.47
25.87
31.42
34.04
33.16
29.04
22.87
16.52
12.03
10.77
12.87
17.12
21.49
24.11
24.14
22.11
19.46
17.76
17.85
19.50
21.51
22.13
19.56
12.50
0.63
-15.15
-32.63
-48.96
-61.47
-68.68
-70.71
-68.96
-65.20
-60.54
-55.04
-48.05
-39.02
-28.14
-16.44
-5.28
4.25
11.70
17.10
20.52
21.85
20.81
17.38
12.01
5.66
-0.49
-5.49
-8.80
-10.33
-10.13
-8.22
-4.52
0.84
7.25
13.55
18.31
20.45
19.82
17.35
14.69
13.46
14.50
17.49
21.13
23.84
24.55
23.11
20.15
16.66
13.29
10.15
6.79
2.69
-2.38
-8.06
-13.52
-17.83
-20.39
-21.26
-21.14
-21.00
-21.51
-22.79
-24.41
-25.89
-27.15
-28.62
-31.04
-34.68
-38.94
-42.26
-42.79
-39.23
-31.42
-20.41
-7.90
4.28
14.75
22.62
27.47
29.24
28.24
25.14
20.98
16.91
13.87
12.30
11.95
12.06
11.73
10.49
8.60
6.94
6.58
8.19
11.71
16.38
21.29
25.80
29.79
33.38
36.49
38.50
38.49
35.77
30.43
23.51
16.53
10.83
7.00
4.80
3.43
1.91
-0.52
-4.19
-8.92
-14.06
-18.59
-21.47
-22.06
-20.35
-17.11
-13.53
-10.81
-9.64
-10.03
-11.41
-12.96
-13.98
-14.05
-13.22
-11.80
-10.35
-9.44
-9.46
-10.54
-12.44
-14.74
-16.95
-18.60
-19.14
-18.08
-15.01
-9.95
-3.59
2.81
7.83
10.58
11.14
10.44
9.69
9.61
10.03
10.00
8.49
5.18
0.74
-3.38
-5.71
-5.52
-3.08
0.62
4.33
7.16
8.68
8.83
7.71
5.37
1.88
-2.56
-7.50
-12.29
-16.29
-18.99
-20.15
-19.86
-18.40
-16.22
-13.88
-11.94
-10.78
-10.49
-10.82
-11.26
-11.21
-10.20
-8.03
-4.95
-1.64
1.00
2.26
2.09
1.30
1.28
3.29
7.76
14.01
20.71
26.64
31.36
35.18
38.49
40.94
41.23
37.87
30.20
19.18
7.19
-3.09
-9.92
-13.12
-13.75
-13.13
-12.03
-10.47
-8.17
-5.12
-1.77
1.25
3.64
5.70
8.03
11.07
14.59
17.70
19.34
18.80
16.00
11.62
6.75
2.54
-0.08
-0.62
1.00
4.28
8.24
11.60
13.27
12.73
10.30
7.01
4.17
2.84
3.46
5.84
9.51
14.02
19.18
24.88
30.93
36.83
41.89
45.42
47.03
46.68
44.46
40.42
34.39
26.15
15.67
3.42
-9.58
-21.81
-31.54
-37.21
-37.88
-33.73
-26.61
-19.95
-17.95
-23.99
-38.87
-59.91
-81.71
-98.30
-105.73
-103.64
-94.92
-83.79
-73.60
-65.63
-59.41
-54.06
-49.33
-45.78
-44.05
-44.10
-45.10
-46.13
-46.92
-48.13
-50.81
-55.53
-61.91
-68.79
-74.80
-78.86
-80.14
-77.80
-70.96
-59.18
-43.01
-24.29
-5.70
10.35
22.71
31.91
39.61
47.73
57.67
69.90
84.14
99.63
115.32
130.01
142.46
151.55
156.58
157.44
154.51
148.47
140.05
130.03
119.14
108.10
97.42
87.19
77.00
66.09
53.79
39.98
25.30
10.88
-2.09
-13.05
-22.31
-30.85
-39.59
-48.77
-57.64
-64.78
-68.87
-69.35
-66.75
-62.23
-56.87
-51.04
-44.32
-36.01
-25.93
-14.81
-4.19
4.21
9.14
10.25
8.00
3.29
-2.91
-9.79
-16.64
-22.77
-27.49
-30.36
-31.38
-31.10
-30.24
-29.34
-28.30
-26.49
-23.16
-18.06
-11.74
-5.40
-0.27
3.06
4.95
6.24
7.71
9.42
10.85
11.40
11.06
10.68
11.49
14.23
18.56
23.09
26.14
26.68
24.90
21.98
19.22
17.22
15.63
13.57
10.41
6.23
1.79
-2.14
-5.28
-7.97
-10.70
-13.52
-15.72
-16.22
-14.30
-10.21
-5.16
-0.65
2.32
3.58
3.52
2.32
-0.62
-6.42
-15.74
-27.74
-39.65
-47.69
-48.74
-41.83
-28.78
-13.33
0.44
9.79
14.09
14.54
13.20
11.88
11.59
12.43
13.76
14.58
13.81
10.61
4.74
-3.24
-12.02
-19.89
-25.39
-27.92
-28.03
-27.10
-26.77
-28.21
-31.80
-37.14
-43.41
-49.45
-54.07
-56.09
-54.50
-48.71
-39.11
-27.28
-15.94
-8.14
-5.74
-9.03
-16.67
-26.52
-36.82
-46.95
-57.50
-69.52
-83.40
-97.28
-108.27
-113.45
-111.06
-101.18
-85.63
-67.42
-49.74
-35.15
-23.79
-14.56
-5.38
6.46
24.09
50.73
89.04
140.00
201.69
270.15
337.68
394.50
431.64
444.05
432.33
402.28
362.26
310.24
247.12
175.82
102.01
32.95
-25.09
-68.64
-97.60
-114.58
-123.54
-126.75
-125.81
-121.69
-114.98
-106.28
-96.53
-86.88
-78.53
-72.46
-67.92
-63.86
-59.30
-53.60
-46.63
-38.75
-30.65
-23.08
-16.64
-10.86
-5.07
1.26
8.42
16.28
24.32
31.79
37.95
42.26
44.76
45.68
45.14
43.35
40.51
36.47
31.23
25.18
18.94
13.43
9.63
7.85
8.17
10.47
13.58
16.42
18.57
20.01
21.14
22.81
25.16
28.36
32.62
36.66
39.42
40.91
41.43
41.55
42.17
42.88
43.07
42.11
37.41
26.63
8.82
-17.13
-52.85
-93.47
-137.08
-182.56
-217.63
-234.07
-228.61
-203.16
-164.78
-121.43
-78.26
-38.72
-3.70
27.55
54.81
71.79
81.71
88.08
93.32
99.65
106.84
114.27
121.24
125.77
125.89
120.59
113.83
106.66
99.72
90.93
78.62
62.28
41.99
18.85
-4.95
-28.26
-51.13
-73.47
-98.44
-128.29
-163.37
-202.08
-241.52
-278.45
-311.31
-340.12
-365.08
-390.39
-418.86
-450.79
-483.28
-511.70
-531.51
-540.12
-536.87
-497.12
-408.49
-274.00
-113.02
49.26
193.44
310.42
398.86
461.52
503.04
524.58
528.68
517.99
496.99
470.92
444.05
417.85
392.27
366.61
336.73
301.31
260.34
216.01
171.59
129.77
90.31
52.45
15.99
-20.36
-56.98
-93.97
-130.33
-164.53
-195.31
-224.59
-253.72
-282.43
-309.79
-334.13
-354.65
-370.69
-381.78
-388.00
-392.82
-398.48
-404.85
-410.02
-411.65
-408.79
-401.20
-388.69
-350.07
-275.56
-169.71
-50.09
63.80
159.49
232.30
282.89
315.06
332.30
335.53
326.48
307.98
284.05
259.37
234.19
207.29
178.34
145.53
105.80
58.48
5.57
-46.88
-91.59
-123.59
-141.86
-140.09
-123.50
-104.12
-92.61
-94.70
-108.02
-126.24
-143.72
-159.38
-169.06
-170.70
-162.74
-143.51
-113.79
-73.65
-24.38
31.33
81.44
116.75
130.38
122.59
112.37
108.02
114.35
132.75
162.42
192.27
219.71
243.60
264.25
282.53
296.20
304.21
305.47
298.99
284.39
267.58
253.11
242.86
236.16
228.47
216.68
198.71
173.58
123.76
46.04
-51.06
-151.69
-241.24
-314.54
-371.36
-414.23
-445.73
-469.43
-483.31
-485.72
-477.21
-458.83
-435.33
-408.08
-378.27
-346.53
-313.10
-275.56
-232.91
-186.37
-135.72
-86.61
-40.11
3.61
44.78
83.79
122.51
161.77
200.74
242.58
281.83
318.91
353.70
384.99
411.51
433.77
453.70
474.24
504.52
541.00
583.16
624.57
654.81
664.76
651.29
617.62
530.54
451.00
379.04
319.10
272.18
237.91
216.89
210.56
218.32
235.34
233.74
184.44
86.47
-39.91
-167.68
-277.14
-360.03
-416.96
-452.49
-465.45
-461.17
-437.87
-396.59
-343.17
-286.77
-237.10
-201.64
-188.84
-196.56
-217.83
-237.77
-245.14
-237.08
-218.15
-195.86
-176.45
-163.03
-153.30
-145.15
-136.33
-127.90
-122.96
-123.22
-126.54
-127.14
-118.22
-94.37
-56.04
-9.12
36.46
71.19
90.30
95.00
90.80
83.49
77.24
73.26
70.59
67.74
64.15
60.61
58.28
57.83
58.48
59.25
58.85
56.65
52.84
48.23
44.02
40.80
39.58
38.28
35.39
29.71
20.80
9.03
-4.71
-19.05
-33.83
-47.65
-60.43
-72.07
-82.50
-91.33
-97.90
-101.54
-101.36
-97.17
-89.03
-77.72
-63.94
-48.49
-32.08
-15.29
0.50
15.25
28.50
39.99
49.17
55.85
59.94
61.51
61.69
59.80
56.17
50.81
44.05
36.07
27.28
18.14
9.15
0.82
-6.61
-12.42
-16.61
-19.21
-20.53
-20.99
-21.11
-21.40
-22.29
-24.97
-28.80
-33.69
-39.35
-45.35
-51.28
-56.65
-61.02
-63.85
-64.66
-62.97
-58.85
-52.29
-43.35
-32.40
-19.85
-6.29
7.77
20.44
31.60
40.80
47.90
52.93
55.88
57.03
56.60
55.08
52.64
50.90
49.08
47.05
44.96
42.86
40.84
38.91
37.21
35.47
33.58
31.10
27.90
23.87
19.05
13.46
5.71
-2.85
-11.54
-19.89
-27.70
-34.70
-40.73
-45.51
-49.12
-51.68
-53.14
-53.75
-53.70
-53.06
-51.42
-48.75
-44.52
-38.66
-31.13
-21.94
-11.44
-0.15
11.36
22.61
33.19
43.20
52.21
59.80
65.61
69.13
69.95
67.93
63.34
54.56
44.14
33.89
24.97
17.85
12.39
8.02
4.19
0.64
-2.47
-4.14
-3.96
-1.80
1.90
6.33
10.36
13.15
14.26
13.84
13.00
12.54
13.52
16.59
22.36
30.12
37.65
40.96
35.30
17.67
-11.79
-48.23
-84.43
-112.03
-125.22
-122.34
-105.93
-80.78
-51.45
-21.50
6.53
30.15
46.91
55.14
54.50
46.24
32.69
15.80
-3.27
-23.77
-45.38
-67.03
-86.64
-101.67
-108.60
-106.48
-95.42
-77.41
-55.74
-34.82
-18.79
-10.24
-9.47
-13.89
-19.56
-21.90
-17.71
-5.56
13.47
36.72
60.73
81.86
97.48
105.84
106.20
100.51
91.22
80.74
71.33
64.91
62.21
62.66
63.31
59.91
48.04
25.48
-7.20
-45.55
-82.60
-112.25
-131.00
-138.99
-137.98
-129.17
-112.22
-85.84
-49.75
-6.49
37.57
74.70
98.25
105.05
97.93
83.00
66.87
53.14
42.11
31.37
18.53
3.12
-12.80
-25.54
-32.78
-34.06
-31.66
-28.42
-26.75
-27.44
-30.14
-34.39
-39.86
-47.20
-55.91
-63.94
-68.43
-65.42
-51.89
-27.22
5.74
42.23
75.43
99.37
109.75
105.21
87.67
61.28
31.82
4.41
-16.50
-28.91
-31.98
-25.81
-11.15
10.76
37.02
63.60
85.42
98.37
99.80
89.57
69.90
43.85
14.72
-15.92
-47.41
-80.41
-112.61
-140.88
-161.76
-172.02
-169.87
-154.37
-126.63
-89.45
-47.33
-5.53
30.45
55.84
68.34
67.52
55.82
36.90
15.12
-5.72
-23.09
-35.42
-42.24
-42.61
-36.22
-23.66
-6.19
13.90
34.28
52.96
69.50
83.05
92.89
96.92
93.21
81.01
61.75
39.14
16.73
-2.87
-19.52
-33.66
-45.39
-53.10
-53.79
-44.84
-25.04
2.92
34.51
64.26
87.46
101.16
103.66
94.31
72.88
40.78
0.39
-43.49
-84.53
-115.32
-129.49
-124.11
-99.36
-58.81
-8.05
45.55
90.34
114.94
114.23
92.44
62.03
32.63
8.92
-7.87
-20.21
-31.41
-44.56
-61.96
-83.35
-107.47
-130.68
-147.79
-152.86
-142.72
-118.04
-83.07
-43.86
-6.25
24.28
46.45
59.30
63.10
58.76
48.38
35.43
23.48
15.38
11.62
11.08
11.58
11.59
10.72
9.76
10.25
12.37
15.13
15.63
11.76
2.71
-9.43
-20.37
-24.66
-17.55
2.26
32.45
67.08
99.72
124.81
139.12
141.65
132.59
113.08
83.72
45.89
1.48
-45.90
-89.36
-122.51
-143.20
-153.73
-156.09
-149.82
-131.83
-100.19
-56.37
-6.76
38.24
69.31
81.00
74.55
55.14
30.98
6.40
-15.23
-30.95
-39.12
-38.98
-31.56
-19.41
-6.19
4.78
11.87
15.60
18.08
20.72
24.59
29.88
35.84
42.18
48.69
54.94
59.99
62.40
60.35
53.13
40.90
25.03
7.51
-9.93
-25.22
-35.81
-39.03
-33.23
-18.22
3.40
26.63
45.46
53.75
48.03
28.91
0.10
-33.23
-66.54
-94.54
-113.03
-121.00
-121.25
-119.43
-114.14
-101.52
-78.88
-46.34
-5.72
39.57
86.20
129.72
162.12
174.71
163.00
131.29
96.08
65.12
40.42
20.56
1.12
-20.33
-42.77
-62.40
-73.72
-73.15
-60.67
-38.81
-9.93
20.72
47.04
64.98
73.00
71.67
60.87
40.46
12.24
-18.98
-47.14
-65.82
-69.77
-58.63
-34.17
-2.63
27.15
46.89
51.28
39.58
16.19
-10.22
-30.42
-37.51
-31.44
-18.08
-6.05
-4.33
-18.91
-50.76
-95.25
-143.09
-181.83
-201.59
-198.23
-174.03
-135.61
-90.65
-46.29
-7.99
20.25
37.76
45.79
46.70
44.46
43.72
49.02
63.03
86.23
113.29
138.00
154.91
161.41
157.94
146.05
127.42
103.03
74.21
42.63
11.29
-16.64
-38.63
-52.67
-57.88
-54.02
-41.86
-22.80
1.09
27.63
54.27
77.29
91.96
94.01
79.30
47.41
3.57
-41.97
-77.40
-94.08
-90.32
-70.74
-43.91
-17.58
3.94
19.93
31.24
38.12
39.68
34.94
24.68
11.93
0.73
-5.82
-7.30
-6.44
-8.04
-16.66
-34.16
-58.74
-85.41
-108.64
-124.50
-131.92
-131.40
-123.23
-106.65
-80.97
-47.63
-11.50
19.51
37.79
39.43
26.66
6.27
-13.15
-25.49
-29.60
-29.09
-29.94
-36.15
-47.01
-56.62
-57.16
-42.04
-9.79
35.12
85.19
130.70
163.50
178.04
172.71
148.39
109.46
62.96
17.95
-15.87
-31.76
-27.14
-5.10
27.05
59.44
84.05
96.21
94.45
79.74
53.14
16.82
-26.04
-70.98
-113.65
-149.32
-174.31
-187.38
-184.93
-167.38
-136.30
-94.72
-43.39
11.11
59.94
96.96
120.40
132.82
135.89
130.59
116.52
93.45
62.17
25.88
-9.81
-41.02
-64.22
-78.24
-83.07
-79.49
-68.87
-53.10
-34.30
-14.45
4.28
19.84
28.58
26.87
13.77
-8.17
-33.65
-57.73
-77.03
-90.37
-97.87
-100.04
-96.27
-84.31
-64.04
-34.37
2.61
42.83
81.63
115.94
144.88
169.85
192.93
213.79
229.36
233.97
218.80
182.35
131.20
78.08
36.60
15.90
15.86
28.09
38.66
35.30
12.91
-25.96
-72.43
-118.90
-159.92
-193.25
-217.55
-231.74
-234.12
-223.22
-200.40
-170.22
-139.46
-113.17
-92.46
-69.79
-38.15
3.89
49.50
87.00
107.84
111.09
103.69
96.16
97.08
107.97
122.43
131.22
125.74
102.80
65.19
20.32
-23.18
-59.14
-83.73
-97.18
-103.35
-106.10
-106.19
-101.78
-90.74
-73.30
-53.08
-35.88
-27.19
-29.21
-39.95
-53.98
-64.89
-68.20
-61.57
-44.90
-19.87
9.87
39.37
63.67
79.36
86.94
88.69
88.76
90.61
95.68
101.99
105.71
104.04
95.84
85.23
77.18
75.39
79.09
83.78
83.27
71.83
47.33
12.02
-28.22
-66.38
-95.30
-110.03
-108.29
-91.25
-63.29
-31.03
-2.10
17.07
21.48
11.49
-8.28
-30.97
-50.64
-63.86
-69.89
-70.47
-67.59
-63.02
-57.89
-53.92
-52.77
-55.34
-60.12
-62.57
-56.99
-39.49
-9.45
28.45
64.76
89.12
94.49
80.16
51.62
18.24
-10.42
-27.08
-28.35
-15.13
8.99
39.04
69.20
92.68
102.02
90.61
56.78
5.89
-50.03
-95.47
-116.98
-108.69
-74.21
-23.11
26.79
61.32
76.28
76.35
69.93
63.61
59.70
57.68
56.74
56.64
57.86
59.13
56.24
44.35
21.77
-7.71
-35.16
-50.75
-49.09
-30.83
-2.25
28.21
53.63
70.33
76.74
71.64
53.82
23.01
-17.33
-59.96
-96.77
-121.69
-133.66
-136.55
-135.91
-134.95
-132.36
-122.65
-100.48
-64.08
-17.40
31.94
75.03
104.32
116.70
111.97
92.49
61.61
25.09
-11.44
-41.15
-57.98
-59.07
-45.82
-24.13
-1.56
15.20
23.04
22.87
18.96
16.43
19.08
27.96
40.70
53.24
61.87
65.43
64.86
62.33
58.22
50.73
37.99
18.37
-7.02
-35.04
-61.50
-81.76
-94.30
-99.73
-99.97
-95.37
-85.24
-68.10
-44.18
-16.96
7.73
23.19
26.18
18.03
5.31
-4.39
-5.46
2.31
14.05
23.54
26.01
21.90
15.38
11.60
13.01
18.67
24.81
27.39
25.41
20.26
15.98
15.24
18.72
23.86
26.95
25.10
17.88
8.10
-0.57
-4.24
-1.90
4.93
12.65
17.29
16.72
11.36
4.62
0.47
2.71
11.91
25.96
40.69
51.51
55.17
50.05
36.06
14.32
-11.88
-38.68
-61.77
-77.59
-84.48
-82.39
-73.18
-58.55
-40.14
-18.32
5.85
30.05
49.91
59.46
54.15
32.29
-2.72
-44.11
-83.22
-113.23
-130.09
-132.73
-122.29
-100.05
-68.23
-30.04
9.15
43.94
69.92
85.12
90.22
86.56
75.60
57.65
31.95
-1.55
-39.63
-75.48
-100.70
-107.77
-93.22
-58.14
-7.89
47.59
96.42
128.44
137.79
123.34
88.74
39.83
-18.07
-74.66
-120.06
-149.22
-162.77
-163.82
-155.59
-139.95
-119.22
-97.41
-73.65
-47.40
-18.51
12.85
46.10
79.19
109.48
134.53
149.38
152.86
144.83
126.55
100.74
71.82
45.13
26.53
20.37
26.52
43.04
63.27
79.68
87.77
87.87
82.83
75.25
65.43
52.25
35.70
17.27
1.16
-8.28
-7.89
1.25
15.21
28.44
36.90
39.82
38.42
34.95
30.45
24.67
15.98
3.24
-13.35
-31.91
-49.05
-61.70
-67.34
-66.23
-59.89
-51.85
-46.12
-46.47
-55.18
-71.53
-91.94
-109.94
-118.28
-110.77
-85.56
-46.05
-0.53
39.85
65.99
73.30
63.70
43.20
19.69
-1.19
-17.03
-27.41
-34.43
-40.22
-46.19
-52.10
-56.73
-57.61
-51.94
-37.28
-12.72
18.50
49.82
72.09
78.14
65.46
39.31
8.72
-16.27
-27.80
-24.33
-9.58
8.88
24.06
31.87
31.83
26.13
17.14
6.57
-6.03
-20.85
-37.07
-51.57
-59.73
-57.47
-43.09
-19.01
9.56
35.59
53.69
61.17
58.58
47.73
31.00
11.18
-9.75
-29.21
-44.99
-54.72
-57.07
-52.91
-44.36
-34.80
-26.52
-20.62
-16.31
-12.21
-7.49
-2.16
2.38
5.20
5.67
4.94
4.88
8.08
16.51
30.32
48.03
66.06
80.88
89.48
91.34
87.59
80.58
72.19
62.16
48.83
29.50
3.54
-27.05
-56.57
-78.11
-86.14
-78.40
-57.64
-29.44
-0.79
23.24
39.93
49.29
52.36
49.66
41.53
27.52
8.62
-13.02
-33.36
-48.20
-54.92
-53.27
-46.03
-36.83
-29.46
-25.62
-25.31
-26.66
-27.07
-24.45
-17.41
-6.43
7.29
21.01
32.27
38.44
38.38
34.00
29.26
28.79
33.99
44.20
55.05
61.89
60.58
48.68
26.53
-4.64
-39.98
-73.47
-98.65
-111.43
-110.57
-97.80
-77.23
-53.20
-30.31
-11.53
1.21
7.87
9.66
9.19
9.91
14.23
23.30
34.34
42.64
44.13
39.01
31.09
24.79
22.89
24.15
25.37
22.84
15.48
4.69
-5.84
-12.37
-13.49
-9.40
-3.11
1.95
2.88
-0.39
-5.41
-8.89
-8.51
-5.04
-1.09
-0.35
-4.42
-12.59
-21.67
-28.18
-30.26
-28.77
-27.69
-29.88
-35.18
-39.10
-36.84
-26.77
-11.80
1.58
7.91
5.05
-4.00
-14.22
-19.80
-17.31
-6.91
8.86
25.81
40.51
50.43
54.97
53.48
46.66
35.85
22.05
6.84
-8.19
-20.70
-28.39
-30.15
-27.62
-24.78
-25.35
-31.30
-41.03
-50.31
-53.96
-48.57
-33.43
-10.32
17.49
46.41
71.76
88.28
92.07
83.74
68.15
52.31
42.85
43.02
52.82
68.21
83.93
94.22
94.86
83.42
59.38
25.42
-13.67
-50.65
-80.10
-97.22
-100.07
-90.30
-72.52
-53.38
-38.04
-29.31
-25.91
-24.58
-21.40
-14.69
-6.06
0.81
1.53
-5.46
-19.33
-35.67
-49.39
-56.56
-56.02
-49.79
-40.30
-29.84
-18.58
-6.41
6.83
19.72
29.76
34.88
33.91
28.28
20.14
12.41
6.83
4.45
5.37
8.84
14.02
19.07
22.67
23.44
21.95
20.07
20.56
25.21
32.47
38.19
36.21
22.63
-2.53
-33.54
-61.51
-78.30
-79.55
-67.12
-46.58
-25.14
-7.36
5.21
14.08
21.33
27.23
30.77
29.42
22.37
10.54
-2.32
-11.98
-15.38
-12.07
-4.84
2.85
7.43
7.83
4.68
0.49
-1.96
-0.99
3.99
11.36
18.90
23.44
23.05
17.02
6.73
-4.68
-13.91
-17.80
-15.48
-7.43
4.00
16.46
27.47
34.69
36.45
30.93
18.08
-0.88
-21.99
-40.27
-50.51
-49.59
-38.35
-20.58
-2.63
10.35
15.38
13.34
7.18
0.25
-5.12
-9.02
-12.10
-15.64
-19.38
-22.63
-24.08
-23.16
-20.49
-16.87
-13.75
-11.45
-10.28
-9.74
-9.61
-9.62
-9.24
-8.17
-5.52
-1.47
3.63
8.05
10.62
11.19
11.15
13.26
19.33
29.91
42.37
52.96
57.56
54.50
45.55
34.57
26.14
22.29
22.78
24.57
24.81
21.66
15.24
7.73
1.25
-2.56
-3.87
-2.93
-0.27
4.45
11.47
19.61
26.97
30.10
26.28
14.14
-4.28
-24.93
-42.47
-51.37
-51.90
-47.15
-40.13
-32.65
-25.75
-19.13
-12.88
-8.09
-6.08
-8.52
-14.49
-21.85
-27.57
-29.98
-28.73
-24.78
-19.53
-12.95
-4.74
6.41
20.53
36.38
51.28
62.31
67.42
64.98
54.80
36.96
13.59
-11.62
-32.54
-42.35
-35.84
-11.53
26.11
68.59
105.01
127.30
132.07
121.72
102.22
79.10
55.53
30.71
2.88
-29.16
-63.04
-93.85
-116.01
-125.27
-120.91
-104.64
-80.25
-51.16
-20.45
9.96
38.17
61.56
77.19
81.43
72.42
50.20
18.77
-15.34
-44.28
-61.93
-66.52
-60.14
-48.42
-36.56
-27.98
-22.57
-18.30
-13.09
-6.16
0.58
4.79
4.02
-1.81
-11.36
-21.86
-30.57
-35.71
-35.85
-30.95
-20.84
-6.68
10.34
27.87
43.47
54.96
60.18
58.50
49.70
35.49
18.24
1.89
-9.94
-15.17
-14.05
-9.97
-6.84
-8.27
-14.61
-24.04
-32.87
-37.80
-37.62
-32.82
-25.99
-19.18
-14.21
-10.96
-8.78
-6.67
-3.96
-1.16
1.46
3.10
4.21
5.23
7.57
12.05
18.45
25.56
30.69
31.94
27.98
19.94
9.84
0.64
-5.46
-7.76
-6.40
-2.82
2.22
7.77
13.75
19.64
24.69
27.98
28.48
26.41
22.59
19.28
18.41
21.79
29.61
40.20
50.30
55.11
50.89
35.38
9.95
-21.44
-52.89
-78.95
-96.97
-107.30
-113.73
-120.19
-129.52
-140.49
-148.99
-149.34
-137.01
-111.54
-76.21
-37.90
-3.58
20.76
32.52
31.97
22.33
8.88
-2.64
-6.62
-0.20
16.68
40.21
65.23
86.89
102.13
110.49
111.88
106.30
92.70
71.19
43.75
15.25
-8.20
-22.54
-26.95
-25.20
-22.14
-21.71
-24.07
-26.53
-25.67
-19.87
-11.55
-4.94
-4.88
-12.87
-27.33
-43.47
-56.09
-61.84
-59.83
-52.44
-42.62
-33.85
-27.99
-26.07
-27.66
-31.07
-34.08
-33.47
-27.37
-14.86
2.21
21.11
38.52
51.79
59.58
60.75
55.24
42.86
25.13
4.53
-14.75
-28.47
-34.08
-31.34
-23.37
-14.17
-8.06
-7.15
-11.76
-20.35
-30.30
-39.15
-44.26
-44.57
-39.83
-32.02
-23.54
-16.69
-12.00
-7.32
0.50
14.90
36.19
61.76
85.74
102.44
108.92
106.10
98.31
89.78
83.49
79.16
75.51
71.03
65.88
61.87
60.45
61.19
60.39
53.88
38.96
17.53
-4.86
-21.59
-27.51
-22.37
-10.86
-1.37
-1.15
-13.85
-37.69
-67.20
-96.15
-117.78
-126.83
-119.90
-96.83
-59.04
-9.56
47.48
105.69
150.34
165.70
144.46
94.07
31.50
-23.54
-57.66
-68.69
-61.03
-44.58
-27.98
-16.14
-9.22
-5.42
-3.06
-1.98
-4.83
-16.25
-41.51
-79.98
-123.99
-160.83
-178.98
-172.10
-141.50
-95.04
-38.75
15.84
58.88
86.24
100.91
107.30
108.16
103.77
93.13
76.84
55.47
32.30
11.35
-3.22
-10.57
-12.29
-11.60
-12.71
-18.60
-30.87
-46.79
-61.03
-67.54
-63.02
-47.61
-24.25
2.64
28.05
46.97
57.38
59.60
56.14
50.05
43.49
38.08
33.55
29.54
25.23
21.54
19.98
21.70
26.46
31.58
33.97
30.61
21.14
7.53
-5.79
-14.50
-16.48
-12.39
-5.94
-0.84
-0.07
-3.58
-9.57
-14.94
-17.29
-16.42
-13.40
-10.87
-10.36
-12.68
-16.43
-19.66
-20.64
-18.66
-14.93
-10.65
-7.31
-4.65
-1.93
2.40
9.11
17.49
25.75
30.79
30.52
23.61
11.18
-4.55
-20.03
-31.74
-37.41
-35.77
-28.04
-16.28
-3.94
6.29
12.30
13.58
11.26
7.05
3.62
2.48
4.83
10.13
17.70
26.36
34.74
41.71
45.30
44.35
37.68
26.00
10.85
-4.80
-17.77
-25.92
-28.01
-25.09
-18.71
-11.56
-5.41
-1.83
-1.34
-3.51
-7.67
-12.05
-15.47
-16.41
-14.66
-10.10
-3.50
3.89
10.65
14.63
14.73
10.09
1.95
-7.75
-15.90
-19.90
-18.87
-13.51
-6.85
-1.70
-0.50
-3.17
-8.32
-13.69
-17.26
-18.55
-17.37
-14.50
-9.88
-3.75
4.27
13.70
23.24
31.05
34.56
32.70
25.27
14.42
2.93
-5.66
-8.98
-6.88
-0.98
5.04
8.30
6.87
1.80
-4.60
-9.51
-11.18
-10.20
-7.80
-6.01
-5.13
-4.66
-2.56
2.51
10.42
19.23
25.16
25.44
18.53
6.30
-7.72
-18.65
-23.07
-20.51
-13.24
-6.09
-3.05
-6.66
-15.83
-27.69
-38.48
-45.38
-47.57
-45.16
-39.56
-31.50
-22.19
-12.25
-2.94
4.35
8.70
9.65
8.62
7.19
7.66
10.92
17.29
25.71
34.28
41.23
44.32
42.69
35.77
24.76
11.03
-3.25
-15.81
-24.90
-28.59
-26.33
-18.04
-5.56
8.89
22.16
31.69
36.20
35.36
30.72
23.84
17.05
11.70
9.25
10.20
13.98
19.13
22.66
22.27
16.24
5.52
-7.54
-19.33
-26.87
-29.27
-27.29
-23.83
-21.29
-21.60
-24.33
-28.18
-31.54
-33.39
-34.23
-34.51
-35.07
-35.36
-34.89
-32.71
-28.78
-23.88
-18.72
-14.25
-10.04
-5.89
-1.17
3.45
7.22
9.45
9.98
10.09
10.69
12.76
15.52
17.85
18.01
15.19
10.14
4.42
0.83
1.03
6.10
15.05
26.36
37.90
47.69
54.35
56.20
52.63
43.07
28.75
11.53
-5.44
-18.99
-27.14
-29.07
-26.35
-20.99
-15.92
-12.86
-12.91
-15.77
-19.85
-23.35
-23.83
-20.43
-12.97
-3.30
6.66
15.02
20.61
23.56
23.74
21.73
17.23
10.62
2.07
-7.19
-15.36
-20.66
-21.28
-17.15
-8.85
1.27
11.09
18.34
22.09
22.76
21.15
18.94
16.70
15.06
13.75
13.19
13.92
16.21
19.84
22.72
22.72
17.47
6.82
-7.93
-23.48
-36.20
-43.38
-43.60
-37.86
-27.92
-16.83
-6.89
-0.19
2.60
2.15
-0.24
-2.24
-2.59
-0.32
3.83
9.16
14.61
19.34
22.94
24.39
23.42
19.50
13.49
6.56
0.75
-2.37
-2.41
0.05
2.83
4.23
2.62
-1.80
-8.43
-15.75
-22.12
-26.55
-27.82
-25.82
-20.32
-12.21
-2.14
8.81
19.28
28.03
33.05
33.16
27.23
16.00
1.04
-14.31
-26.29
-31.63
-28.16
-16.56
0.92
19.80
35.94
45.65
47.59
42.88
33.90
24.10
15.46
9.09
4.27
0.60
-2.15
-3.93
-4.74
-6.04
-9.38
-16.49
-26.84
-38.09
-46.22
-47.86
-42.49
-32.59
-23.61
-20.35
-25.90
-39.32
-57.19
-74.06
-84.39
-84.25
-71.20
-46.18
-12.38
24.17
57.33
82.07
96.07
99.90
95.39
85.45
71.95
57.13
43.14
32.87
28.83
31.35
38.01
43.54
43.23
34.72
20.15
4.83
-5.77
-8.92
-6.32
-2.88
-3.73
-10.51
-21.35
-32.12
-40.00
-46.45
-56.39
-72.43
-94.11
-116.61
-132.30
-135.78
-126.07
-106.81
-84.73
-65.73
-53.21
-48.14
-50.29
-57.99
-68.69
-79.83
-85.60
-80.79
-61.96
-29.53
10.56
49.07
77.30
90.36
89.04
79.11
67.95
58.81
55.68
58.36
63.26
66.74
67.44
66.43
65.59
65.41
64.70
61.70
54.93
44.81
34.11
26.46
24.33
27.96
34.67
40.61
42.70
39.71
32.89
25.55
21.27
21.84
26.84
33.98
40.92
46.19
49.08
48.65
43.41
31.64
13.20
-9.19
-30.13
-44.00
-47.61
-41.95
-31.27
-19.73
-8.65
4.12
21.80
44.74
68.12
83.14
81.23
58.94
21.04
-22.58
-60.68
-85.18
-94.42
-92.23
-84.81
-76.69
-70.67
-66.37
-61.73
-55.05
-45.61
-33.81
-20.54
-7.06
5.01
13.62
17.39
15.85
10.07
2.32
-4.99
-10.24
-13.01
-13.79
-13.39
-12.39
-10.92
-9.17
-7.51
-6.35
-5.80
-5.54
-5.23
-4.50
-3.22
-1.68
-0.27
0.56
0.23
-1.84
-5.54
-9.17
-9.33
-2.28
13.73
36.45
59.57
75.32
78.11
67.41
48.04
27.54
12.33
5.00
4.16
6.37
8.95
11.05
13.25
16.06
18.85
20.07
18.43
14.06
8.10
2.54
-1.26
-3.52
-5.83
-10.20
-17.88
-28.49
-39.53
-48.74
-53.98
-54.83
-52.66
-50.00
-49.28
-51.99
-58.59
-67.63
-76.67
-82.05
-79.67
-66.16
-40.29
-4.59
34.13
66.44
84.07
83.67
68.86
48.28
31.03
21.99
20.15
20.30
17.18
9.35
-0.09
-5.86
-4.43
3.71
13.61
19.40
17.68
9.70
-0.60
-9.13
-14.12
-16.60
-19.44
-25.59
-36.86
-52.76
-71.99
-91.51
-106.80
-112.78
-105.40
-83.63
-50.60
-12.95
21.42
46.24
59.33
62.63
60.61
57.64
56.11
56.26
57.77
61.13
67.65
78.03
90.69
101.20
103.86
94.61
73.48
45.44
18.30
-0.46
-7.59
-4.70
3.19
10.69
14.42
13.67
9.88
4.61
-1.25
-7.69
-14.68
-21.61
-27.27
-30.31
-29.63
-25.06
-17.41
-8.16
0.86
8.32
13.55
16.53
17.67
17.44
16.20
13.96
10.64
5.87
-0.14
-6.83
-13.31
-18.49
-21.41
-21.41
-18.39
-12.75
-5.83
1.15
7.11
11.27
13.48
14.11
13.95
13.70
13.64
12.89
10.38
4.96
-4.25
-17.23
-33.01
-49.91
-66.38
-78.66
-87.37
-93.90
-99.65
-105.80
-113.18
-122.41
-133.56
-145.47
-155.15
-158.42
-150.60
-129.13
-95.70
-56.14
-18.56
9.99
26.25
31.39
29.35
24.67
20.26
16.67
13.25
9.53
6.08
4.13
4.63
7.17
10.41
12.65
12.37
9.17
3.73
-2.56
-8.31
-12.58
-15.38
-17.40
-19.44
-22.11
-25.35
-28.59
-31.03
-32.05
-31.20
-28.70
-25.21
-21.29
-17.36
-13.65
-10.28
-7.47
-5.58
-4.58
-4.56
-5.56
-6.85
-7.59
-7.22
-5.82
-4.30
-3.88
-5.05
-7.83
-11.61
-14.04
-12.50
-5.22
8.20
26.88
45.05
59.44
68.45
72.26
74.15
77.86
85.74
97.64
110.94
122.35
130.16
134.53
137.62
145.12
162.88
194.94
242.35
303.14
373.00
446.18
514.85
555.26
548.02
485.19
376.10
243.56
112.82
1.60
-83.18
-143.80
-186.68
-215.48
-231.13
-233.54
-224.30
-207.94
-190.99
-179.09
-175.11
-178.35
-183.78
-185.45
-179.54
-165.98
-148.03
-130.79
-118.60
-113.82
-116.71
-124.74
-134.02
-140.18
-139.37
-128.39
-106.39
-75.25
-39.62
-6.02
19.93
35.18
39.97
35.56
26.47
15.96
5.45
-4.97
-15.40
-24.90
-31.59
-33.70
-30.76
-23.26
-13.55
-4.00
3.96
9.86
14.20
17.84
21.41
24.75
27.31
27.78
24.09
16.46
5.87
-6.26
-18.42
-29.29
-38.29
-45.16
-50.45
-54.67
-58.02
-60.62
-62.24
-62.69
-61.32
-58.22
-53.49
-47.73
-41.55
-35.47
-30.14
-25.99
-23.37
-22.04
-21.85
-22.45
-23.66
-25.43
-27.76
-30.93
-35.06
-40.25
-45.69
