1513813257.00
64.000000
-0.00
-0.00
-0.00
-0.00
-0.00
-0.00
-0.00
-0.00
-0.00
-0.00
0.00
0.01
0.01
-0.00
-0.03
-0.05
-0.05
0.00
0.13
0.36
0.66
1.01
1.37
1.72
2.06
2.40
2.79
3.24
3.80
4.42
5.06
5.66
6.20
6.68
7.15
7.68
8.31
9.14
10.09
11.04
11.88
12.56
13.14
13.76
14.65
15.96
17.91
20.32
22.90
25.38
27.58
29.57
31.68
34.32
37.81
42.54
48.15
54.10
59.83
64.97
69.58
74.14
79.34
85.71
93.76
103.00
112.62
121.73
129.77
136.75
143.30
150.75
157.77
166.64
177.95
191.79
206.97
220.57
228.25
225.36
208.53
176.87
132.76
80.05
23.07
-34.94
-92.44
-149.16
-205.23
-260.37
-313.74
-363.87
-409.83
-450.91
-486.50
-515.74
-537.23
-549.22
-549.96
-538.37
-514.21
-478.67
-433.88
-382.45
-327.02
-269.84
-212.63
-156.66
-102.95
-52.37
-5.90
35.58
71.43
101.35
125.50
144.38
158.69
169.15
176.37
180.75
182.57
182.07
179.51
175.23
169.65
163.18
156.15
148.81
141.30
133.69
126.02
118.33
110.69
103.16
95.80
88.68
81.83
75.25
68.95
62.95
57.25
51.86
46.78
42.03
37.59
33.45
29.61
26.07
22.81
19.83
17.11
14.67
12.48
10.54
8.83
7.35
6.07
4.97
4.05
3.27
2.62
2.09
1.65
1.30
1.01
0.79
0.61
0.48
0.37
0.29
0.22
0.18
0.14
0.11
0.09
0.08
0.07
0.06
0.06
0.06
0.07
0.09
0.10
0.12
0.15
0.18
0.22
0.25
0.30
0.34
0.38
0.43
0.48
0.53
0.58
0.64
0.69
0.76
0.82
0.89
0.97
1.06
1.16
1.26
1.38
1.51
1.65
1.82
2.00
2.19
2.42
2.66
2.93
3.22
3.55
3.91
4.30
4.73
5.20
5.71
6.26
6.85
7.48
8.16
8.89
9.65
10.47
11.32
12.23
13.17
14.16
15.22
16.34
17.52
18.74
19.99
21.23
22.40
23.41
24.17
24.54
24.43
23.72
22.34
20.26
17.49
14.09
10.14
5.83
1.32
-3.17
-7.45
-11.35
-14.71
-17.43
-19.48
-20.85
-21.61
-21.86
-21.68
-21.20
-20.49
-19.62
-18.65
-17.58
-16.41
-15.08
-13.60
-11.90
-9.92
-7.61
-4.94
-1.92
1.36
4.82
8.38
11.83
15.04
17.96
20.58
22.89
24.86
26.41
27.52
28.26
28.42
28.10
27.54
27.05
26.96
27.45
28.53
30.12
32.13
34.07
35.85
37.60
39.56
41.89
44.49
46.97
48.84
49.79
49.17
46.96
43.61
39.58
34.93
29.17
20.72
7.20
-9.42
-28.96
-51.21
-75.71
-101.69
-127.93
-152.84
-174.70
-191.74
-202.29
-205.24
-198.83
-180.58
-147.93
-98.93
-33.53
45.18
130.52
212.91
281.43
327.27
346.04
338.70
311.17
271.89
228.93
187.42
148.58
110.11
68.88
22.82
-27.85
-79.78
-126.79
-161.28
-176.00
-165.82
-129.90
-72.72
-4.12
62.27
114.65
147.33
162.00
165.09
163.43
160.44
154.99
143.05
118.85
81.25
35.15
-11.19
-51.35
-83.61
-110.66
-136.93
-166.07
-203.41
-250.92
-306.84
-366.54
-425.43
-478.71
-520.86
-545.54
-547.73
-530.57
-499.65
-460.07
-414.71
-366.82
-319.25
-274.10
-231.75
-161.43
-54.57
71.76
186.11
265.08
300.80
298.96
272.16
235.83
203.47
178.77
160.52
141.08
122.94
108.98
101.48
100.48
105.04
113.03
117.87
113.28
96.74
70.08
34.05
-5.97
-49.97
-100.10
-159.50
-221.13
-276.59
-316.06
-330.71
-317.27
-277.09
-218.22
-152.19
-90.89
-43.76
-15.43
-3.98
-2.27
-4.71
-4.62
0.76
12.45
30.94
56.47
87.94
123.47
162.05
196.48
222.46
237.54
242.07
238.31
229.29
216.85
201.27
183.19
162.53
140.17
116.59
92.53
68.81
46.16
28.14
11.72
-4.67
-22.26
-40.92
-60.43
-80.20
-99.53
-117.76
-134.69
-151.12
-166.50
-180.72
-193.28
-203.74
-211.61
-216.22
-216.59
-211.13
-203.85
-195.62
-187.00
-178.20
-169.40
-160.74
-152.35
-144.40
-137.05
-130.89
-125.30
-119.95
-114.55
-108.89
-102.88
-96.46
-89.68
-82.66
-75.81
-68.75
-61.39
-53.74
-45.90
-38.05
-30.36
-23.04
-16.33
-10.54
-5.53
-1.21
2.43
5.48
7.96
9.92
11.38
12.35
12.74
12.67
12.21
12.08
12.80
14.42
16.39
18.04
18.88
18.79
17.96
16.68
15.94
16.46
18.43
21.34
24.46
27.24
29.44
31.07
32.32
35.08
40.76
49.49
59.92
70.22
79.02
85.77
90.58
94.00
101.21
116.16
139.16
166.54
193.23
215.55
232.02
242.95
249.73
263.29
291.99
336.69
390.08
441.92
484.92
516.25
536.67
548.94
571.02
616.63
687.41
771.77
853.52
921.33
971.03
1004.12
1025.07
1058.06
1121.67
1219.28
1338.11
1460.25
1573.28
1671.28
1751.08
1691.09
1422.86
964.93
420.86
-92.26
-504.50
-799.08
-991.67
-1109.62
-1179.65
-1203.09
-1178.41
-1112.29
-1023.73
-935.42
-863.80
-815.96
-791.39
-785.52
-777.98
-752.74
-706.43
-649.56
-597.52
-557.38
-532.00
-519.78
-516.80
-509.51
-487.51
-448.65
-399.80
-351.09
-309.83
-279.35
-259.28
-247.36
-236.33
-220.49
-198.13
-172.21
-147.31
-126.69
-111.84
-102.44
-97.28
-93.32
-88.19
-80.95
-72.65
-64.94
-58.93
-55.12
-53.19
-52.37
-51.70
-51.79
-50.87
-47.90
-42.32
-33.92
-22.99
-10.10
3.92
18.07
31.18
42.43
51.11
57.02
60.36
61.72
61.98
62.16
63.26
66.63
72.40
80.23
89.44
99.15
108.29
115.77
120.60
122.08
119.53
112.60
101.26
85.83
66.88
45.17
21.56
-3.04
-26.01
-46.55
-64.28
-78.97
-90.55
-99.16
-105.13
-108.92
-111.05
-112.05
-112.53
-112.97
-113.57
-114.41
-115.37
-116.18
-116.43
-115.57
-114.74
-112.42
-107.46
-99.05
-86.77
-70.53
-50.73
-28.07
-3.63
22.33
47.43
69.71
87.98
101.55
110.32
114.58
115.06
112.68
108.46
103.40
98.35
93.96
90.47
88.06
86.44
85.25
84.17
82.84
81.13
79.04
76.66
74.05
71.26
68.12
64.43
60.14
55.35
50.41
45.85
42.08
39.48
38.40
38.83
40.58
43.40
47.03
51.31
56.17
61.19
66.17
70.78
74.38
76.50
77.28
77.50
78.64
82.43
89.95
101.80
117.37
133.92
148.03
156.74
158.00
150.72
137.68
120.24
99.55
75.61
45.89
8.20
-37.65
-89.12
-141.50
-189.43
-229.03
-257.68
-276.10
-290.07
-305.30
-325.10
-349.66
-377.48
-407.30
-438.55
-468.69
-493.82
-511.51
-518.15
-511.37
-492.33
-467.07
-444.45
-431.40
-428.13
-405.80
-346.91
-252.19
-142.27
-42.70
30.84
77.35
101.70
120.95
146.47
178.27
211.94
241.78
266.13
286.87
304.94
321.18
337.49
353.10
361.65
356.64
333.27
293.23
243.71
193.98
152.18
124.08
111.24
111.15
123.03
142.36
164.19
182.73
192.01
188.17
171.17
143.41
102.19
54.57
7.37
-34.51
-68.07
-91.65
-105.45
-109.83
-106.16
-97.02
-84.50
-71.01
-58.48
-47.91
-39.92
-34.58
-33.26
-38.48
-50.95
-68.43
-84.75
-96.86
-103.12
-103.05
-95.96
-81.21
-58.08
-26.33
13.79
62.62
118.70
179.17
239.60
295.20
341.91
377.10
399.43
394.54
355.63
286.39
200.48
113.28
35.24
-29.34
-80.04
-118.28
-146.12
-163.31
-170.51
-169.30
-162.70
-153.90
-145.27
-137.97
-132.33
-128.44
-124.42
-119.25
-112.95
-106.95
-102.95
-102.05
-104.35
-109.33
-116.18
-122.65
-126.96
-128.16
-126.28
-121.75
-115.35
-106.63
-95.11
-80.57
-62.17
-39.74
-13.97
13.60
40.75
65.33
85.41
99.29
105.66
104.41
95.89
80.77
60.00
34.65
6.15
-23.76
-53.19
-80.19
-102.18
-116.80
-122.17
-117.09
-101.30
-75.16
-39.60
4.22
50.92
95.57
134.02
163.53
183.03
192.68
193.62
187.46
175.95
160.84
144.29
128.09
113.44
100.80
89.92
80.24
71.09
62.01
52.96
44.66
37.92
33.19
30.33
28.58
27.00
24.76
21.56
17.75
14.39
12.56
12.82
14.91
17.78
20.43
21.89
21.82
20.56
18.98
18.20
19.37
23.40
30.65
40.27
49.36
53.42
47.76
29.53
-0.70
-38.49
-76.24
-106.85
-124.01
-124.59
-109.31
-82.12
-48.64
-14.83
13.60
31.52
34.70
21.06
-8.39
-48.80
-92.18
-129.35
-152.79
-159.82
-153.12
-139.43
-126.06
-118.57
-119.63
-129.29
-144.63
-161.14
-173.78
-177.98
-171.63
-155.30
-133.05
-110.97
-95.09
-87.58
-86.85
-89.43
-91.70
-92.51
-91.67
-90.06
-88.70
-88.19
-87.15
-83.84
-78.11
-70.85
-64.48
-59.55
-55.02
-48.55
-47.16
-52.29
-62.48
-76.33
-84.35
-87.99
-89.15
-88.50
-84.85
-75.40
-64.29
-52.23
-40.21
-29.33
-21.90
-18.24
-17.59
-18.67
-20.34
-20.87
-18.54
-13.43
-6.63
-0.66
3.42
5.60
6.62
7.44
9.45
14.07
21.25
30.12
39.06
47.72
56.89
68.15
83.15
103.09
128.31
157.35
187.84
217.10
243.81
268.13
291.39
315.36
341.89
372.76
408.91
449.93
493.02
532.82
562.04
573.56
563.20
531.72
484.82
430.76
377.18
328.63
286.19
248.97
216.14
188.07
165.86
150.00
139.34
131.16
122.33
110.62
95.38
77.09
56.73
34.77
10.93
-15.90
-46.97
-83.18
-124.16
-167.36
-207.67
-237.93
-250.77
-241.31
-209.59
-161.46
-107.33
-58.86
-25.17
-10.09
-11.72
-24.32
-41.49
-58.89
-75.41
-92.42
-111.77
-133.84
-156.76
-177.02
-191.19
-197.56
-196.81
-191.52
-184.73
-178.57
-173.44
-168.55
-162.69
-155.25
-146.55
-137.49
-128.90
-121.02
-113.62
-106.55
-100.29
-95.92
-94.46
-96.03
-99.27
-101.65
-100.36
-93.46
-80.62
-63.02
-42.80
-22.25
-3.33
12.43
23.89
30.19
30.98
26.64
18.37
8.05
-2.10
-10.00
-14.19
-14.09
-10.06
-3.05
5.91
16.14
27.43
39.72
52.58
64.97
75.44
82.90
87.18
89.22
90.33
91.22
91.30
88.92
82.24
70.34
53.78
34.35
14.29
-4.56
-21.25
-35.59
-47.77
-57.96
-66.20
-72.34
-76.16
-77.44
-76.00
-71.80
-65.24
-57.40
-50.29
-46.93
-50.65
-64.07
-87.61
-118.69
-151.87
-180.38
-198.44
-203.18
-195.31
-178.22
-156.14
-132.31
-108.27
-84.15
-59.89
-36.23
-15.14
0.25
6.13
-1.32
-24.84
-64.75
-117.66
-176.22
-230.39
-270.22
-288.96
-285.04
-262.14
-227.07
-186.80
-146.28
-107.56
-70.62
-34.71
0.20
32.99
61.57
83.48
96.57
99.59
92.63
77.36
56.90
35.02
15.48
1.24
-5.80
-4.73
4.77
22.69
48.52
80.63
115.66
148.63
173.73
186.03
182.80
164.49
134.51
98.04
60.46
26.28
-1.28
-19.90
-27.60
-23.07
-6.42
20.07
51.93
83.44
109.31
126.43
134.70
137.33
138.40
141.20
147.37
157.27
170.64
186.83
204.57
221.55
235.63
243.61
242.19
229.56
206.57
176.64
144.40
114.63
91.61
80.73
84.74
102.48
128.98
157.30
181.01
196.19
202.62
203.34
204.94
210.88
219.16
223.73
218.35
200.07
169.90
131.97
75.73
2.23
-77.37
-148.10
-200.68
-233.99
-251.03
-255.82
-251.75
-241.72
-226.01
-206.15
-185.19
-166.34
-151.13
-138.82
-128.43
-118.87
-109.63
-98.97
-86.75
-75.00
-65.68
-59.81
-56.75
-56.37
-57.91
-60.58
-62.65
-63.38
-63.42
-63.98
-65.82
-68.51
-72.79
-78.63
-85.51
-92.61
-99.62
-107.43
-117.70
-132.62
-141.30
-138.47
-122.79
-97.16
-66.78
-36.34
-9.27
12.54
28.59
39.98
46.88
50.40
52.08
52.19
51.17
48.33
42.37
31.54
14.50
-10.59
-43.18
-75.59
-99.50
-106.85
-93.40
-60.90
-17.39
26.18
59.30
77.00
80.70
75.89
69.15
65.28
66.50
72.59
81.84
91.39
97.81
97.27
86.91
66.73
39.78
13.76
-4.16
-10.63
-7.21
1.34
8.82
12.80
12.83
9.58
3.46
-6.22
-20.71
-40.52
-62.25
-83.45
-102.03
-117.09
-129.01
-138.16
-143.87
-143.55
-133.56
-111.31
-77.78
-37.61
1.93
33.81
54.00
62.37
61.80
56.56
50.47
46.02
44.89
48.61
58.84
76.50
100.41
126.33
147.64
156.19
147.89
124.51
93.03
62.97
42.32
34.33
36.80
44.17
50.80
53.31
51.76
47.59
42.05
35.20
26.10
13.78
-1.77
-18.22
-33.82
-46.64
-55.70
-61.15
-64.04
-65.73
-67.26
-68.96
-70.30
-70.68
-69.49
-66.77
-63.13
-59.56
-56.93
-55.71
-55.73
-56.19
-56.52
-56.19
-55.13
-53.65
-52.15
-50.75
-49.32
-48.37
-46.37
-42.71
-37.17
-30.03
-22.04
-13.88
-5.97
1.47
8.50
15.51
22.42
29.00
34.82
39.24
42.15
44.12
45.92
48.57
52.96
58.97
65.58
70.99
72.82
69.45
60.54
46.39
28.31
8.21
-12.51
-33.04
-51.26
-67.90
-84.19
-101.09
-119.78
-139.48
-156.77
-166.26
-162.06
-140.04
-100.34
-49.45
6.44
57.76
95.71
114.63
113.72
96.95
71.89
46.63
28.43
20.74
20.70
23.50
23.96
18.08
3.65
-20.05
-53.04
-93.71
-136.01
-173.24
-197.63
-203.42
-189.79
-161.61
-127.66
-97.04
-75.89
-62.90
-54.22
-44.82
-31.04
-11.83
11.76
37.91
65.01
89.95
111.79
129.65
142.68
150.20
151.74
147.85
139.97
130.00
119.75
110.55
102.83
96.13
89.47
81.86
72.75
62.53
51.77
42.93
35.14
28.23
21.65
14.58
6.20
-3.87
-14.82
-25.66
-35.49
-43.88
-49.51
-52.16
-52.59
-52.15
-52.12
-52.28
-52.30
-51.88
-51.00
-47.78
-41.45
-32.31
-21.32
-9.51
3.89
19.31
36.75
55.63
77.64
103.44
133.25
168.03
200.73
228.93
250.85
264.85
255.30
217.30
156.20
84.81
16.13
-41.36
-82.77
-107.92
-119.68
-122.51
-118.02
-109.08
-97.33
-83.28
-66.39
-44.30
-15.71
20.12
63.64
117.16
177.05
231.09
264.13
264.56
231.84
175.56
111.45
54.47
14.74
-6.04
-11.47
-8.13
-0.94
8.53
18.71
27.82
33.23
32.74
24.69
10.26
-9.16
-30.97
-48.41
-59.83
-66.11
-69.22
-70.41
-75.09
-80.38
-84.10
-83.82
-77.88
-68.78
-60.38
-56.76
-61.42
-77.67
-99.76
-126.63
-157.42
-179.59
-186.01
-175.65
-153.41
-126.17
-99.15
-72.96
-48.56
-25.37
-2.29
19.54
38.76
54.96
69.17
78.19
86.58
96.18
108.11
123.04
139.60
155.93
170.88
184.34
196.46
208.37
218.98
226.80
229.98
230.31
227.45
221.10
211.71
199.91
187.21
174.00
160.53
147.40
134.68
122.07
109.54
97.52
86.45
76.93
68.99
62.28
56.66
51.71
46.72
41.23
35.18
28.73
22.25
16.12
10.53
5.94
2.58
0.44
-0.55
-0.58
0.17
1.31
2.55
3.35
3.49
2.71
0.75
-2.29
-6.32
-10.94
-15.88
-20.60
-24.86
-28.30
-30.73
-32.25
-32.87
-32.93
-32.60
-32.38
-32.51
-33.38
-35.17
-37.86
-41.43
-45.47
-49.73
-53.68
-57.12
-59.75
-61.57
-62.76
-63.52
-64.30
-65.34
-67.12
-69.85
-73.90
-79.56
-86.93
-96.12
-106.77
-118.99
-132.29
-145.87
-158.53
-169.30
-177.89
-184.36
-189.10
-192.17
-193.98
-194.19
-192.06
-186.52
-176.87
-163.42
-147.08
-129.38
-111.69
-96.45
-85.14
-77.95
-74.15
-72.98
-74.47
-79.14
-87.83
-101.23
-123.48
-156.85
-199.79
-246.86
-290.73
-324.81
-344.49
-347.97
-336.33
-320.38
-309.38
-306.32
-307.75
-308.06
-303.79
-294.48
-281.77
-268.01
-266.97
-287.45
-328.34
-380.02
-431.74
-477.57
-516.42
-549.46
-578.03
-618.09
-679.57
-760.33
-848.01
-929.34
-997.72
-1053.38
-1099.93
-1045.03
-846.24
-528.36
-169.05
157.98
418.11
609.22
742.92
832.94
890.78
910.38
889.53
836.70
769.43
704.85
652.34
613.70
587.27
570.87
551.32
520.36
478.94
434.58
397.55
372.86
360.43
357.67
361.99
363.69
356.46
339.78
318.25
297.23
279.20
264.02
250.60
238.72
224.96
208.00
188.89
170.49
155.26
143.50
133.87
121.54
103.97
75.42
34.59
-15.50
-68.55
-117.78
-158.58
-189.04
-211.04
-225.69
-232.78
-230.19
-215.21
-185.32
-138.74
-75.02
3.35
88.83
170.94
238.91
285.99
311.22
318.51
313.57
301.48
285.60
267.85
249.89
232.08
213.04
189.30
157.05
115.04
66.33
18.17
-21.56
-48.07
-62.31
-69.90
-77.75
-90.20
-106.83
-123.32
-133.47
-132.43
-118.36
-93.01
-60.79
-27.41
1.29
22.56
33.73
34.52
26.29
11.01
-9.93
-35.19
-62.81
-90.19
-114.19
-132.51
-144.20
-150.31
-153.29
-155.67
-159.16
-163.39
-166.98
-168.31
-166.72
-162.53
-157.20
-152.80
-151.13
-153.21
-158.22
-164.63
-170.65
-174.92
-176.57
-174.90
-169.39
-159.14
-147.45
-135.22
-122.70
-109.95
-96.85
-83.55
-70.15
-57.10
-45.16
-35.27
-27.63
-22.30
-19.29
-18.26
-18.82
-19.77
-20.18
-19.76
-18.88
-17.72
-16.43
-15.35
-14.16
-12.61
-8.33
0.31
13.21
28.54
43.96
57.64
67.79
74.73
79.08
86.04
99.49
119.97
144.63
169.14
190.28
204.84
213.93
219.13
229.04
250.00
282.82
323.01
363.38
398.52
423.15
439.05
448.91
464.69
495.50
543.36
603.67
668.10
730.47
784.48
832.65
816.70
701.93
491.73
229.39
-30.37
-252.92
-402.95
-501.84
-568.06
-613.11
-633.32
-622.88
-591.35
-548.32
-504.82
-468.58
-446.59
-436.59
-434.99
-431.41
-418.10
-393.22
-359.73
-324.05
-291.51
-267.66
-251.32
-240.33
-228.20
-209.93
-184.16
-152.35
-118.42
-85.96
-58.89
-36.96
-19.07
-1.67
18.41
42.69
71.24
102.45
134.24
164.00
191.06
215.38
238.22
261.11
285.28
311.92
341.87
375.76
413.14
452.29
489.15
517.79
532.12
528.19
505.89
468.98
423.50
375.59
329.54
287.20
248.70
213.69
182.27
154.95
132.10
113.21
96.88
81.35
65.27
48.30
30.99
14.52
-0.11
-12.37
-22.47
-31.03
-38.73
-45.96
-52.65
-58.48
-63.07
-66.31
-68.43
-70.02
-71.71
-73.84
-76.45
-79.22
-81.78
-83.67
-84.33
-83.04
-79.02
-71.84
-61.86
-50.47
-39.67
-31.36
-26.45
-24.54
-24.24
-24.05
-23.27
-22.13
-21.62
-22.53
-24.97
-28.14
-30.94
-32.59
-33.05
-33.05
-33.57
-35.44
-38.75
-42.84
-46.71
-49.45
-50.74
-50.99
-51.13
-52.15
-54.68
-58.74
-63.81
-69.19
-74.26
-78.70
-82.40
-85.42
-87.94
-90.41
-93.58
-98.54
-106.47
-118.06
-133.21
-150.85
-169.23
-186.46
-200.96
-211.75
-218.27
-220.38
-218.19
-212.11
-202.88
-191.47
-178.80
-165.36
-151.00
-135.09
-116.94
-96.34
-74.00
-51.50
-30.97
-14.41
-3.04
3.02
4.69
3.56
1.27
-0.98
-2.61
-3.52
-3.90
-3.77
-3.01
-1.37
1.35
5.13
9.68
14.51
19.19
23.37
26.94
29.90
32.33
34.29
35.77
36.80
37.48
38.07
38.86
39.96
41.21
42.08
41.95
40.36
37.35
33.50
29.65
26.42
23.83
21.29
17.99
13.54
8.26
3.22
-0.30
-1.64
-1.11
0.04
0.32
-1.31
-4.93
-9.75
-14.69
-18.88
-22.03
-24.27
-25.84
-26.70
-26.48
-24.59
-20.60
-14.53
-7.01
0.74
7.28
11.39
12.61
11.48
9.54
8.77
10.68
15.72
22.85
30.08
35.25
36.93
34.99
30.59
25.63
22.10
21.48
24.34
29.99
36.17
39.17
34.64
19.02
-8.56
-45.29
-84.82
-119.24
-141.69
-148.59
-140.58
-121.50
-96.59
-70.56
-46.59
-26.38
-10.85
-0.62
3.79
2.24
-4.43
-14.45
-25.11
-33.57
-37.53
-35.94
-29.19
-18.96
-7.62
2.65
10.45
15.51
18.49
20.46
22.39
24.85
27.94
31.46
35.13
38.53
41.11
42.13
40.95
37.42
32.21
26.81
22.96
21.84
23.28
25.78
27.19
25.69
20.80
13.39
5.28
-1.74
-6.47
-8.57
-8.12
-5.28
-0.20
6.74
14.69
22.28
28.18
31.67
33.08
33.56
34.34
35.95
37.86
38.64
36.80
31.50
22.82
11.60
-1.24
-14.96
-29.14
-43.25
-56.40
-67.27
-74.38
-76.63
-73.48
-65.11
-52.14
-35.59
-16.80
2.52
20.28
34.52
43.81
47.83
47.44
44.21
39.81
35.27
30.83
26.06
20.37
13.36
5.08
-3.99
-13.11
-21.27
-27.43
-30.55
-29.89
-25.34
-17.77
-9.11
-1.88
1.63
0.37
-4.96
-12.13
-18.37
-21.71
-21.81
-20.11
-18.96
-20.59
-26.05
-35.08
-46.41
-58.37
-69.57
-78.94
-85.89
-90.12
-91.61
-90.57
-87.46
-82.87
-77.38
-71.47
-65.43
-59.41
-53.34
-47.12
-40.66
-34.11
-28.05
-23.46
-21.51
-22.79
-27.01
-32.79
-38.21
-41.60
-42.18
-40.18
-36.37
-31.39
-25.07
-16.71
-5.57
8.31
23.67
38.44
50.53
58.79
63.40
65.76
67.68
70.45
74.31
78.32
80.94
80.62
76.42
68.20
56.66
43.02
28.88
15.81
5.11
-2.58
-7.57
-11.00
-14.21
-17.64
-20.11
-19.02
-11.44
4.41
28.47
58.68
91.78
124.18
152.71
175.02
189.95
197.82
200.36
200.08
198.97
197.27
192.97
182.63
163.27
134.02
96.84
55.68
14.92
-21.94
-52.59
-75.74
-90.82
-98.11
-99.07
-96.08
-91.79
-87.99
-84.82
-81.09
-75.56
-68.40
-61.66
-58.60
-62.08
-73.13
-90.37
-110.43
-129.10
-142.51
-147.92
-144.05
-131.18
-110.95
-86.13
-60.07
-36.03
-16.61
-3.35
3.42
4.40
1.08
-4.61
-10.76
-16.12
-20.37
-24.33
-29.51
-37.42
-48.82
-63.28
-79.22
-94.56
-107.53
-117.36
-124.64
-130.97
-138.31
-148.03
-160.16
-173.40
-185.66
-195.11
-200.59
-202.35
-201.75
-200.10
-197.73
-193.64
-185.87
-172.82
-153.93
-129.42
-100.38
-68.35
-35.61
-5.38
18.41
32.46
35.79
31.00
24.73
24.31
33.95
52.22
72.37
85.60
85.25
70.05
44.91
21.31
10.09
16.56
39.01
71.31
107.10
142.67
177.79
214.67
260.99
320.75
390.66
460.44
518.04
554.76
566.92
555.49
524.65
488.56
459.10
441.02
431.76
427.06
426.17
432.24
449.73
481.35
537.07
620.00
722.09
826.59
916.55
981.91
1020.18
1033.49
958.10
763.62
470.29
142.69
-153.24
-383.32
-544.23
-647.98
-709.73
-742.67
-746.30
-721.35
-676.42
-626.38
-585.77
-562.68
-557.79
-566.51
-581.68
-587.33
-566.34
-514.31
-440.81
-362.79
-295.77
-248.34
-221.30
-209.84
-201.86
-186.79
-163.61
-137.01
-111.75
-89.05
-66.53
-40.80
-10.51
24.90
62.56
96.42
117.04
120.31
108.43
88.08
66.85
49.89
39.39
34.13
30.28
24.38
15.42
4.71
-4.82
-9.85
-7.94
1.42
16.59
33.77
48.81
59.32
65.00
67.27
68.00
68.21
67.67
65.45
60.78
53.77
45.40
36.79
28.73
21.92
17.13
15.10
16.14
19.31
22.55
23.47
20.28
12.70
2.13
-8.85
-17.63
-22.44
-23.15
-21.69
-21.41
-25.95
-37.84
-57.42
-82.78
-110.49
-136.53
-156.92
-168.30
-168.28
-155.67
-131.14
-97.26
-58.04
-17.71
20.84
56.39
88.10
113.93
130.21
132.40
117.18
84.47
37.80
-15.97
-68.45
-113.03
-145.63
-163.63
-165.16
-149.45
-118.28
-78.10
-37.66
-4.47
15.71
21.21
15.91
6.22
-2.94
-11.39
-24.91
-49.62
-86.95
-136.00
-193.84
-253.96
-307.82
-346.81
-365.19
-362.87
-342.02
-304.27
-254.84
-201.05
-146.54
-90.38
-29.32
51.06
148.00
229.69
281.33
300.70
286.27
242.82
180.01
108.76
36.07
-35.28
-101.34
-153.80
-186.72
-200.86
-199.92
-188.92
-158.06
-104.18
-31.87
48.50
116.76
165.28
188.33
185.41
162.41
129.35
96.18
70.70
57.74
63.41
87.80
120.83
150.17
169.13
178.63
182.15
183.21
183.48
182.02
176.74
163.59
141.42
112.74
81.95
52.05
24.85
1.01
-20.88
-43.38
-66.13
-89.18
-111.69
-132.00
-148.44
-158.59
-152.51
-124.43
-76.92
-20.85
31.14
72.96
106.02
134.14
159.64
178.46
182.50
165.60
128.31
77.25
25.08
-12.38
-23.99
-8.64
23.14
55.87
74.65
78.51
72.38
62.74
53.42
43.62
31.69
12.61
-16.95
-55.86
-97.90
-135.88
-163.91
-179.39
-183.66
-180.63
-177.94
-182.09
-196.24
-219.68
-250.48
-286.20
-323.56
-357.89
-366.35
-333.49
-259.38
-161.59
-63.74
16.50
72.42
106.58
126.24
138.95
146.43
147.56
141.20
128.73
113.68
100.16
91.27
88.29
90.56
93.65
92.95
86.05
74.09
60.71
50.08
45.66
49.42
61.56
79.68
101.15
124.31
147.02
167.00
180.14
181.47
167.57
139.15
100.89
60.63
26.35
3.04
-8.52
-11.16
-8.75
-3.95
2.47
10.47
19.51
28.26
34.78
37.73
36.75
32.82
27.54
22.33
17.64
12.71
6.63
-1.28
-10.85
-21.04
-30.17
-36.43
-38.74
-37.16
-33.20
-28.61
-25.14
-23.95
-25.51
-29.61
-35.53
-42.67
-47.96
-52.14
-55.98
-60.01
-64.30
-68.69
-72.80
-76.14
-78.53
-79.99
-81.19
-82.42
-83.87
-85.53
-87.08
-90.15
-93.08
-94.39
-92.88
-87.98
-79.15
-66.27
-49.72
-30.22
-6.77
18.23
42.52
64.63
83.56
99.07
111.28
120.48
127.13
131.69
134.49
135.85
136.08
135.18
133.32
130.16
125.08
117.53
107.03
93.20
76.25
56.84
35.93
14.70
-4.57
-21.36
-35.64
-47.76
-58.23
-67.27
-74.74
-80.18
-83.15
-83.43
-81.68
-78.94
-76.59
-75.86
-77.22
-80.21
-83.67
-86.32
-87.24
-86.52
-84.85
-83.41
-83.31
-85.42
-90.30
-98.10
-108.05
-117.86
-123.74
-121.27
-107.40
-82.33
-50.15
-17.62
8.36
23.53
27.56
23.31
14.99
5.79
-2.97
-11.53
-20.06
-28.01
-33.94
-36.23
-34.13
-27.46
-16.95
-3.77
11.03
26.75
42.92
59.02
74.27
87.69
98.37
105.67
109.38
109.82
107.53
103.09
97.02
89.71
81.77
73.77
66.41
60.35
56.17
54.36
55.39
59.65
66.65
74.72
81.00
82.31
76.76
65.05
50.06
35.46
23.69
14.61
4.90
-8.14
-25.95
-47.40
-69.04
-87.06
-98.98
-104.47
-104.91
-101.84
-96.17
-88.24
-78.13
-66.13
-52.85
-39.58
-27.47
-17.45
-9.96
-4.80
-1.39
1.07
3.37
5.96
8.80
11.74
14.25
15.74
15.90
14.87
13.51
13.30
15.92
22.63
34.25
50.35
69.52
89.97
110.10
129.15
147.53
166.51
185.63
205.94
228.99
256.15
287.47
320.71
351.14
372.73
379.87
370.36
346.80
315.06
281.39
249.68
220.28
190.71
157.69
117.99
70.71
17.27
-40.10
-99.38
-158.85
-216.46
-269.21
-313.69
-348.53
-373.55
-390.12
-401.52
-412.51
-428.71
-455.58
-497.10
-554.18
-625.34
-703.31
-775.76
-828.42
-849.39
-832.75
-779.77
-697.25
-581.01
-435.21
-269.87
-99.49
60.45
197.32
303.71
377.83
422.67
444.47
448.46
439.94
423.42
402.39
379.02
354.68
330.42
307.32
286.58
267.50
249.43
231.86
214.38
196.78
179.17
162.09
146.52
133.64
123.21
114.55
106.65
98.36
88.83
77.96
66.57
56.30
49.00
45.31
44.79
45.90
46.50
44.74
39.90
32.78
25.33
20.05
18.90
22.76
31.08
41.50
50.19
52.81
45.67
27.56
1.14
-27.24
-49.27
-57.49
-48.48
-24.23
8.02
38.22
56.75
57.67
40.53
9.79
-25.38
-56.37
-77.49
-87.23
-87.45
-81.50
-72.18
-61.02
-48.65
-35.73
-24.14
-16.17
-13.34
-15.44
-20.38
-25.05
-26.83
-24.31
-17.91
-9.57
-1.45
5.05
9.75
13.48
17.49
22.45
28.27
33.84
37.37
37.34
32.98
24.63
13.56
1.84
-9.05
-18.06
-24.83
-29.65
-33.04
-35.48
-37.28
-38.72
-39.48
-39.50
-38.88
-37.81
-36.62
-35.64
-35.07
-34.99
-35.33
-35.88
-36.47
-36.98
-37.20
-36.95
-36.45
-35.28
-33.37
-30.73
-27.37
-23.48
-19.29
-14.99
-10.79
-6.84
-3.17
0.18
3.21
6.07
8.82
11.50
14.11
16.65
18.95
20.98
22.53
23.37
23.48
22.83
21.50
19.63
17.44
15.12
13.05
11.36
10.11
9.47
9.54
10.37
12.08
14.77
18.49
23.47
29.59
36.75
44.94
54.03
63.87
74.30
85.13
96.14
107.24
117.98
127.99
137.10
145.26
152.49
158.88
164.68
170.19
175.80
181.42
186.93
192.28
197.25
201.45
204.28
204.83
201.74
196.79
190.36
182.64
173.90
164.42
154.43
144.38
134.66
125.82
118.31
112.00
106.10
100.07
93.88
87.96
83.15
80.05
79.05
80.30
83.51
87.53
91.39
94.63
97.22
99.56
101.84
104.19
106.72
109.38
110.50
108.90
104.81
99.74
95.69
93.91
94.76
97.82
101.96
101.02
89.89
67.20
35.67
-0.15
-36.53
-71.19
-102.79
-130.62
-164.08
-210.30
-269.52
-334.63
-396.32
-448.26
-488.34
-517.67
-538.01
-567.32
-618.63
-693.01
-779.47
-864.09
-938.68
-1002.11
-1057.78
-1109.12
-1179.63
-1285.80
-1429.11
-1595.82
-1766.99
-1927.48
-2065.98
-2173.17
-2122.28
-1844.63
-1359.31
-770.40
-197.00
286.77
658.49
927.39
1105.06
1224.51
1285.62
1286.13
1235.96
1159.63
1085.43
1025.63
983.63
953.66
927.83
882.60
804.72
697.74
579.16
468.67
378.09
310.66
263.36
232.69
204.64
167.36
120.34
71.35
30.40
4.24
-3.57
7.17
35.67
74.28
116.62
155.96
188.88
214.37
232.11
242.42
245.92
244.13
236.56
223.40
205.95
186.50
167.16
149.23
133.35
119.62
108.07
98.18
89.63
82.14
75.58
69.91
65.09
61.37
59.08
58.52
59.91
63.22
68.05
75.76
84.57
92.67
98.26
99.53
94.95
83.51
64.95
39.66
6.57
-30.12
-66.98
-101.30
-131.03
-154.47
-171.58
-182.26
-186.92
-186.43
-181.11
-171.99
-160.63
-148.78
-137.98
-129.33
-123.33
-120.24
-120.11
-121.06
-121.83
-122.17
-122.70
-124.12
-126.62
-129.62
-132.30
-133.98
-131.05
-121.52
-105.92
-86.82
-67.26
-49.02
-31.80
-13.31
3.70
23.07
47.62
77.29
109.37
140.70
169.68
196.55
222.55
248.74
281.01
322.15
370.23
419.50
464.27
501.79
532.77
559.96
554.80
503.49
412.69
306.85
210.46
135.52
81.26
39.31
-1.02
-47.92
-99.09
-147.49
-185.25
-207.45
-213.02
-204.24
-185.48
-162.03
-137.62
-111.51
-84.00
-58.59
-41.62
-39.16
-52.69
-77.83
-106.98
-128.00
-130.46
-112.39
-80.85
-48.48
-27.36
-22.77
-32.26
-47.87
-60.67
-63.60
-54.55
-37.14
-17.67
-3.59
-0.15
-8.85
-26.94
-48.89
-68.31
-81.00
-86.45
-84.90
-82.07
-83.35
-91.05
-103.81
-117.58
-127.27
-127.78
-115.56
-89.72
-53.64
-13.56
23.26
51.20
67.41
72.21
68.41
59.37
48.01
35.40
21.35
4.70
-15.22
-39.23
-67.17
-96.84
-123.57
-141.17
-142.15
-125.20
-92.77
-50.00
-3.14
42.50
83.30
117.05
142.65
159.06
165.30
162.05
151.22
135.04
115.41
93.61
70.11
45.10
19.24
-6.84
-31.83
-54.45
-73.76
-89.28
-101.15
-110.38
-118.66
-127.55
-137.43
-145.95
-148.61
-140.45
-118.78
-85.14
-45.56
-8.61
18.20
31.14
31.32
23.03
11.36
-0.20
-10.42
-19.36
-27.34
-33.74
-37.63
-37.51
-32.81
-23.71
-10.85
4.61
21.76
39.54
56.83
72.24
84.42
92.09
94.55
91.77
83.94
71.80
55.92
37.16
16.74
-3.57
-21.49
-34.64
-41.25
-40.51
-32.35
-17.63
2.54
26.30
50.23
69.00
77.30
71.94
53.74
28.05
2.44
-15.92
-22.80
-18.39
-5.59
11.88
31.39
51.36
71.29
88.82
100.50
102.84
93.00
70.41
37.58
0.15
-34.69
-58.93
-68.45
-64.26
-52.04
-39.77
-33.93
-36.88
-46.24
-56.67
-63.07
-63.40
-58.62
-51.67
-45.65
-42.28
-41.96
-44.29
-48.69
-54.71
-62.11
-70.26
-77.75
-82.61
-82.75
-76.21
-61.91
-39.84
-11.10
21.40
54.58
85.95
114.16
138.74
159.08
173.12
177.29
167.79
142.94
105.29
61.43
20.07
-11.39
-29.46
-35.23
-32.88
-27.25
-21.55
-16.79
-12.80
-9.33
-6.72
-5.39
-5.03
-4.28
-1.42
4.75
14.58
26.70
38.94
49.07
55.51
57.74
55.87
50.10
40.50
27.07
9.58
-11.63
-35.84
-61.79
-87.68
-111.00
-128.25
-135.38
-128.96
-108.31
-75.85
-39.23
-7.18
13.49
19.89
13.57
-0.76
-18.06
-34.65
-48.32
-57.98
-62.44
-59.66
-47.46
-25.08
5.35
38.11
64.90
77.96
73.79
55.16
30.65
11.05
4.42
13.04
32.71
55.75
74.52
84.47
84.32
75.04
58.06
34.95
8.14
-18.49
-39.02
-48.95
-46.78
-35.25
-20.14
-7.75
-2.34
-4.91
-13.92
-26.82
-41.96
-58.48
-75.80
-92.71
-107.52
-117.87
-121.97
-119.18
-110.04
-95.91
-78.04
-57.22
-33.66
-7.83
20.27
50.77
82.68
113.35
137.89
151.12
149.55
133.07
106.42
74.92
44.19
18.05
-2.11
-16.56
-25.87
-30.43
-31.23
-30.18
-30.31
-34.29
-43.10
-54.92
-65.61
-70.35
-65.84
-51.44
-29.01
-2.24
25.20
50.11
70.26
84.46
92.63
95.67
94.84
91.99
88.58
86.19
85.95
88.00
90.75
90.90
84.28
68.00
42.56
12.10
-16.17
-35.59
-42.13
-36.08
-21.50
-4.14
10.82
20.26
23.03
18.87
7.45
-11.53
-37.70
-68.06
-97.39
-119.41
-129.02
-124.73
-109.93
-91.60
-77.33
-71.65
-74.78
-82.87
-90.29
-92.30
-86.70
-73.99
-56.09
-35.09
-12.41
10.69
32.54
51.01
63.94
69.98
69.10
62.89
53.97
45.02
38.03
33.77
32.08
32.15
33.53
36.45
41.79
50.48
62.49
76.63
90.54
101.79
108.11
108.41
102.96
92.94
80.31
67.00
54.93
45.50
39.02
33.78
26.41
13.13
-8.89
-37.54
-67.35
-91.32
-104.01
-103.84
-93.79
-79.18
-64.97
-53.84
-45.49
-38.51
-31.92
-25.99
-21.76
-20.23
-21.17
-23.12
-24.45
-23.50
-19.92
-14.45
-8.31
-2.71
1.74
5.35
9.10
13.94
20.31
27.63
34.41
38.86
39.48
35.30
26.41
13.81
-0.97
-16.24
-30.57
-43.00
-52.75
-58.86
-61.34
-60.11
-55.26
-46.99
-35.80
-22.37
-7.66
7.50
22.27
35.96
48.02
57.94
65.30
69.78
71.08
69.00
63.69
55.47
44.98
33.08
20.81
9.08
-1.34
-9.94
-16.53
-21.16
-24.17
-26.00
-27.06
-27.63
-27.91
-27.87
-27.26
-25.87
-23.49
-19.96
-15.36
-9.85
-3.84
2.08
7.30
11.48
14.27
15.49
15.15
13.53
10.98
7.93
4.62
1.37
-1.32
-3.17
-3.81
-3.06
-0.60
3.80
10.19
18.15
27.18
36.68
45.62
52.87
57.31
57.84
53.72
46.58
36.27
23.34
8.93
-5.65
-19.12
-30.43
-39.00
-44.58
-47.28
-47.71
-46.45
-44.01
-40.94
-37.66
-34.42
-31.40
-28.63
-26.08
-23.82
-21.75
-19.79
-17.91
-16.12
-14.45
-12.95
-11.61
-10.37
-9.38
-8.59
-7.96
-7.43
-6.98
-6.66
-6.50
-6.48
-6.59
-6.87
-7.32
-7.87
-8.45
-9.02
-9.63
-10.31
-11.05
-11.75
-12.43
-13.16
-13.96
-14.88
-16.09
-17.94
-20.90
-25.48
-31.84
-40.05
-49.89
-60.97
-72.13
-81.25
-86.11
-84.89
-76.15
-59.19
-34.29
-2.95
32.43
68.72
102.41
130.32
149.70
158.71
156.67
144.11
122.43
93.92
61.47
27.89
-4.08
-32.71
-57.18
-77.58
-94.57
-109.26
-122.56
-135.02
-147.61
-158.08
-164.48
-164.97
-158.39
-144.32
-123.22
-96.15
-63.48
-28.01
8.72
45.36
80.70
113.32
141.92
165.28
182.65
193.56
198.11
196.06
187.11
171.59
150.70
126.76
102.31
79.13
57.30
35.39
11.91
-13.60
-39.59
-63.36
-82.32
-95.79
-105.15
-113.02
-121.76
-131.90
-142.55
-151.40
-155.98
-154.87
-147.70
-134.48
-115.06
-89.16
-56.70
-18.41
24.64
69.05
111.33
148.16
176.50
194.03
199.68
193.68
177.23
152.46
121.53
87.01
51.22
16.59
-14.80
-40.80
-59.63
-70.37
-72.79
-68.04
-57.84
-44.70
-31.02
-18.96
-9.65
-3.13
1.15
4.33
7.13
10.00
12.84
15.25
16.67
16.66
14.73
9.98
1.93
-9.47
-23.03
-36.18
-46.38
-52.04
-53.58
-52.93
-53.02
-55.41
-59.40
-64.20
-68.46
-73.00
-79.97
-91.86
-109.16
-131.05
-152.64
-168.19
-173.23
-164.57
-142.30
-107.94
-63.52
-10.69
48.41
109.69
168.96
225.31
277.37
321.75
355.45
376.49
384.10
378.56
361.05
333.24
288.18
230.72
167.07
102.99
43.00
-9.82
-53.64
-87.68
-112.18
-128.30
-136.59
-139.30
-138.76
-136.84
-134.73
-133.10
-132.01
-131.44
-131.38
-130.74
-129.81
-129.06
-129.01
-130.06
-132.47
-136.25
-141.35
-147.73
-154.39
-161.04
-167.16
-172.03
-174.76
-175.39
-172.37
-164.51
-151.28
-132.15
-107.65
-78.76
-46.83
-13.48
19.77
51.55
80.58
105.71
126.42
142.22
152.88
158.55
159.49
156.32
149.87
140.96
130.35
118.87
107.04
94.96
82.59
69.39
54.74
37.80
17.67
-6.48
-35.28
-69.01
-107.75
-150.97
-197.88
-247.10
-297.04
-345.96
-392.09
-433.35
-467.29
-491.91
-505.63
-507.78
-498.30
-477.95
-448.05
-410.25
-366.51
-318.78
-269.26
-219.86
-172.42
-128.38
-88.90
-54.80
-26.48
-4.20
12.22
22.90
28.30
29.00
25.82
19.73
11.71
2.92
-5.77
-13.35
-19.20
-22.73
-23.47
-21.09
-15.24
-5.85
7.20
23.52
42.84
64.36
87.24
110.59
133.41
154.97
174.22
190.19
201.41
206.50
203.79
191.87
170.03
138.32
98.04
51.19
0.51
-51.25
-101.34
-147.27
-186.73
-217.09
-235.75
-239.82
-227.14
-196.53
-148.61
-85.82
-12.10
67.68
148.93
227.63
301.33
368.68
429.41
483.86
532.93
577.84
619.25
656.80
688.13
709.87
718.48
712.03
691.06
658.23
617.16
570.56
519.95
465.66
408.76
351.81
298.14
250.57
209.67
173.72
139.01
102.16
61.94
20.45
-15.95
-40.43
-47.87
-37.10
-10.48
26.33
66.09
102.82
132.47
156.85
178.67
200.61
223.42
246.56
267.98
283.99
292.85
293.72
293.03
297.72
314.31
346.36
394.13
454.42
520.00
585.18
643.44
694.53
735.57
761.28
764.93
742.08
694.03
626.29
552.74
443.70
287.46
87.92
-132.99
-345.58
-526.63
-649.27
-725.77
-770.47
-795.07
-800.24
-786.18
-757.70
-720.28
-680.91
-645.82
-621.80
-609.19
-607.32
-609.94
-612.38
-612.32
-609.54
-605.54
-600.76
-596.09
-587.55
-571.14
-540.54
-491.21
-421.95
-334.93
-236.77
-136.06
-42.85
37.49
103.38
153.01
186.74
206.52
215.51
214.00
200.69
173.87
136.00
92.55
50.61
16.36
-8.11
-23.41
-33.31
-41.86
-52.95
-68.73
-90.52
-118.56
-151.02
-187.43
-223.49
-254.19
-274.30
-279.62
-268.25
-242.16
-207.18
-167.52
-132.62
-107.50
-91.71
-80.00
-66.27
-46.95
-22.83
2.09
24.12
40.89
54.57
68.17
83.67
100.42
115.59
125.83
129.03
126.96
120.93
114.16
108.78
105.17
102.25
98.29
91.79
82.16
69.71
54.70
38.86
24.59
15.06
13.01
20.40
35.77
53.87
67.84
71.71
63.65
46.12
24.12
3.19
-13.87
-26.75
-36.90
-45.50
-52.87
-58.31
-61.34
-62.87
-64.31
-68.12
-76.11
-88.66
-104.42
-120.94
-135.34
-145.32
-150.73
-151.26
-147.85
-141.63
-133.51
-123.87
-112.66
-99.74
-85.11
-69.41
-53.37
-38.28
-25.15
-14.61
-6.91
-1.59
2.21
5.59
9.12
13.26
17.59
21.32
23.58
23.16
19.54
12.97
4.34
-5.47
-15.63
-26.02
-37.03
-48.93
-61.78
-74.31
-83.71
-86.24
-78.56
-58.44
-25.62
18.18
70.69
129.69
190.49
250.01
306.04
356.46
399.00
431.83
453.46
463.23
460.01
442.15
407.50
354.19
282.49
196.09
102.60
11.54
-68.14
-131.28
-176.89
-206.58
-222.23
-223.28
-206.80
-168.91
-108.42
-28.74
61.41
150.80
229.41
291.19
335.36
363.86
378.62
378.24
358.45
314.10
243.33
150.29
45.04
-58.76
-148.67
-216.10
-258.60
-278.02
-278.57
-264.41
-238.52
-203.48
-162.16
-119.27
-80.35
-50.86
-33.54
-27.28
-27.38
-27.38
-22.36
-10.77
4.63
19.10
27.93
29.09
23.51
13.54
1.52
-12.22
-28.49
-48.90
-73.77
-102.13
-132.01
-161.23
-188.87
-214.64
-239.43
-263.26
-285.38
-303.20
-313.09
-311.42
-295.43
-264.99
-221.98
-170.88
-116.67
-64.55
-18.46
19.13
47.01
65.42
75.00
77.38
74.12
67.21
58.19
48.05
37.14
24.86
10.71
-5.87
-23.96
-41.66
-55.87
-63.30
-61.67
-49.95
-29.46
-2.53
27.14
56.07
80.88
98.84
108.25
108.04
98.84
81.95
60.35
37.17
15.67
-1.79
-14.17
-21.41
-24.69
-24.88
-23.11
-19.48
-13.92
-6.10
3.99
15.42
26.93
36.35
42.18
43.20
39.56
32.17
22.26
11.13
-0.77
-12.90
-25.10
-36.02
-43.84
-46.10
-40.78
-27.47
-7.34
16.18
39.03
56.68
66.07
65.71
56.16
39.74
19.24
-2.16
-22.51
-40.56
-56.55
-71.06
-84.76
-97.83
-109.26
-117.72
-121.08
-118.12
-108.28
-92.45
-72.30
-49.68
-26.26
-2.29
22.50
49.70
80.66
116.69
157.81
202.28
246.69
285.36
312.51
322.38
311.71
279.89
229.59
165.90
94.81
22.52
-46.19
-106.97
-156.72
-192.56
-212.38
-215.43
-202.74
-178.17
-146.94
-115.21
-87.32
-65.44
-49.10
-36.34
-25.56
-16.00
-8.68
-4.48
-4.13
-6.65
-10.29
-13.29
-14.49
-14.40
-13.81
-13.82
-14.11
-13.65
-10.67
-4.03
5.93
17.62
27.99
34.61
35.65
31.28
22.92
12.87
3.51
-3.75
-8.12
-10.31
-11.07
-11.73
-13.02
-15.31
-18.46
-21.61
-24.12
-24.99
-24.31
-22.29
-19.99
-18.49
-18.70
-21.40
-26.60
-34.28
-43.41
-53.07
-61.70
-67.78
-69.87
-67.06
-60.17
-50.81
-42.03
-36.36
-36.05
-41.91
-52.94
-66.78
-80.36
-91.82
-99.96
-105.49
-109.63
-114.25
-121.33
-131.16
-142.69
-153.69
-162.45
-167.11
-166.54
-159.93
-147.18
-129.94
-108.76
-83.11
-50.60
-8.16
47.89
119.97
207.58
306.39
400.77
471.32
501.91
487.51
434.02
353.92
260.26
163.34
70.49
-19.08
-104.24
-181.43
-245.51
-291.94
-317.79
-322.57
-308.14
-267.74
-202.15
-115.07
-14.17
88.89
179.66
244.31
273.74
266.64
230.52
177.21
121.34
74.66
42.92
25.64
18.85
18.27
20.94
25.73
30.55
33.92
34.36
31.20
25.05
17.77
11.70
8.87
10.08
13.59
17.34
19.21
18.21
14.57
9.76
5.78
4.31
6.59
12.21
20.74
31.26
43.49
57.44
73.20
90.66
108.60
126.16
140.17
148.07
147.61
137.83
119.13
92.87
61.66
28.10
-4.67
-34.72
-59.98
-79.11
-91.38
-96.60
-95.82
-90.17
-81.81
-72.28
-63.81
-57.49
-53.21
-50.38
-47.72
-44.96
-41.66
-38.32
-35.04
-32.62
-31.27
-29.61
-26.34
-20.16
-12.06
-3.91
1.23
0.75
-7.80
-25.40
-49.77
-77.68
-105.49
-131.72
-156.47
-181.42
-202.67
-218.14
-226.54
-225.63
-213.40
-187.77
-146.90
-88.97
-12.86
79.88
182.99
278.01
343.59
366.69
348.95
303.11
244.72
186.33
134.96
92.22
56.98
29.14
9.35
-2.65
-8.43
-11.75
-16.83
-27.37
-45.85
-72.79
-105.74
-140.59
-175.34
-206.30
-230.46
-245.22
-248.31
-238.22
-214.58
-177.76
-126.61
-66.72
-4.34
54.70
106.10
147.25
177.35
197.17
208.98
215.50
217.93
215.85
206.43
185.99
152.66
108.65
60.43
16.54
-15.91
-34.26
-40.04
-37.84
-32.59
-27.37
-22.70
-17.91
-12.76
-7.96
-5.16
-5.16
-7.43
-10.13
-11.02
-7.78
0.88
14.74
32.85
53.66
75.72
97.90
119.59
139.15
154.95
165.19
168.01
162.02
146.43
121.53
87.98
48.54
5.80
-37.72
-79.63
-117.94
-151.25
-178.87
-201.59
-218.65
-230.08
-235.80
-235.31
-228.09
-213.63
-192.76
-167.39
-140.33
-114.10
-91.10
-72.62
-58.53
-47.83
-38.52
-28.06
-13.11
9.99
43.89
88.05
137.80
185.05
219.17
233.40
226.02
200.76
164.80
125.70
88.82
56.86
30.43
9.59
-5.09
-13.65
-17.30
-18.32
-20.35
-26.70
-39.51
-58.98
-83.54
-110.03
-135.34
-157.90
-175.75
-187.79
-193.03
-190.24
-177.94
-154.98
-121.26
-77.95
-29.86
17.91
60.67
95.07
119.80
135.54
144.12
147.74
148.45
147.95
147.55
147.10
144.58
136.45
119.30
91.81
56.03
17.31
-17.54
-42.90
-56.74
-60.47
-57.69
-52.01
-45.49
-38.60
-30.91
-21.95
-11.86
-0.56
12.57
28.28
47.17
68.84
91.15
110.69
123.53
126.08
115.91
92.74
59.02
19.58
-17.67
-45.65
-60.48
-62.73
-57.13
-50.07
-46.36
-47.20
-50.01
-50.86
-46.91
-37.85
-25.95
-14.77
-7.34
-5.28
-8.95
-18.06
-32.82
-53.69
-80.46
-111.75
-144.50
-174.47
-196.82
-207.46
-203.68
-185.04
-153.34
-111.77
-64.03
-13.73
35.06
79.66
117.50
146.80
166.17
174.79
172.84
161.70
143.89
122.53
100.97
81.97
67.35
57.71
52.43
50.00
48.57
46.84
44.37
41.39
38.39
36.07
34.70
33.84
32.77
30.20
25.40
18.64
10.79
2.79
-4.45
-10.71
-16.70
-23.27
-31.23
-40.54
-49.92
-57.46
-61.09
-59.05
-50.65
-35.75
-15.16
8.74
31.81
48.41
52.86
42.49
19.58
-9.42
-35.18
-49.12
-47.20
-30.26
-2.44
30.94
66.07
101.98
136.74
167.87
192.04
205.52
205.69
192.43
167.70
132.95
94.36
56.09
20.76
-10.33
-36.80
-58.60
-75.35
-86.75
-92.39
-92.32
-88.40
-82.70
-77.33
-74.00
-73.76
-76.36
-80.83
-85.41
-88.06
-88.17
-86.67
-82.69
-76.28
-67.86
-57.75
-46.13
-33.50
-20.05
-6.58
6.54
19.00
30.26
40.05
48.17
54.68
58.78
59.81
56.30
47.17
31.15
7.13
-24.47
-62.10
-101.95
-139.95
-170.78
-190.37
-195.81
-186.57
-165.10
-134.50
-99.31
-63.34
-30.29
-2.14
19.51
33.21
37.49
30.28
11.10
-20.04
-58.06
-97.64
-132.60
-157.87
-171.19
-172.88
-165.89
-152.15
-133.63
-111.64
-87.28
-60.72
-31.39
1.00
37.10
76.33
118.91
162.70
200.84
223.04
221.49
196.91
156.60
114.04
71.15
26.86
-20.20
-69.90
-117.06
-154.08
-173.77
-172.70
-151.15
-113.80
-67.04
-18.99
21.85
51.80
73.20
93.71
122.10
164.51
220.73
285.34
349.43
394.20
405.79
381.64
332.38
273.36
215.76
162.45
111.72
61.60
11.72
-34.65
-73.40
-102.45
-124.13
-143.46
-165.89
-194.38
-228.36
-266.58
-303.34
-331.71
-346.51
-346.01
-331.28
-304.88
-269.12
-225.52
-172.70
-113.19
-50.54
11.12
67.20
113.52
147.26
167.62
176.21
175.75
169.81
162.06
154.97
149.17
143.99
138.27
131.03
122.69
113.97
106.01
100.14
96.80
95.32
94.23
92.23
88.51
83.31
77.40
71.63
67.00
64.20
63.80
65.81
69.11
70.79
66.62
52.46
26.53
-8.72
-47.13
-80.88
-103.79
-113.62
-112.56
-105.28
-96.41
-88.79
-82.61
-76.99
-71.16
-65.18
-59.59
-54.66
-49.62
-42.85
-32.89
-18.38
0.80
23.72
48.65
73.56
95.93
113.53
124.40
127.02
120.67
105.37
82.31
53.12
20.97
-11.44
-41.79
-68.44
-90.44
-107.38
-119.93
-129.66
-137.54
-143.89
-147.50
-145.73
-136.02
-117.84
-94.06
-70.97
-55.75
-53.07
-63.37
-82.65
-104.07
-120.83
-128.26
-124.65
-110.39
-86.78
-55.34
-18.06
22.27
61.85
96.39
122.11
136.34
138.63
130.51
115.03
95.57
75.48
57.36
42.64
31.75
24.19
19.34
16.46
15.13
15.06
16.45
19.62
24.52
30.48
35.97
39.76
40.39
37.31
30.98
23.02
15.37
9.21
4.82
1.64
-0.09
-0.23
1.17
3.24
4.02
0.88
-8.39
-23.50
-41.05
-54.83
-59.69
-54.22
-40.86
-23.81
-6.49
10.23
28.08
45.13
60.73
70.79
68.49
48.37
10.59
-38.54
-89.37
-132.02
-163.49
-183.61
-194.54
-198.30
-194.89
-182.32
-159.05
-126.04
-87.52
-49.75
-18.62
2.22
13.17
15.36
14.19
15.95
26.04
47.07
78.22
115.79
153.43
183.73
200.46
201.49
188.37
166.10
140.87
117.49
97.74
79.69
59.43
33.41
1.59
-32.55
-62.70
-82.22
-86.49
-74.27
-48.05
-12.86
25.27
61.65
93.45
119.62
139.59
151.71
152.72
138.73
107.20
58.80
-1.59
-65.95
-125.47
-173.36
-206.94
-228.05
-241.19
-250.65
-258.35
-262.59
-259.06
-243.06
-212.21
-168.11
-116.28
-63.86
-16.81
22.20
53.98
81.49
107.87
134.63
160.43
181.54
193.59
193.54
180.76
157.15
126.61
94.24
65.56
43.91
29.59
21.20
17.78
20.13
30.70
51.63
82.98
122.67
164.38
199.69
222.20
231.20
231.50
230.44
233.63
242.84
258.33
277.08
293.84
302.71
299.03
279.16
239.96
179.58
86.00
-34.10
-156.50
-252.79
-307.46
-322.12
-308.49
-280.18
-247.77
-217.18
-188.74
-162.93
-142.68
-131.92
-131.96
-140.80
-153.92
-166.37
-173.93
-172.49
-161.07
-142.54
-121.10
-99.36
-77.81
-55.00
-29.04
1.14
35.77
73.70
110.36
140.39
159.93
167.42
163.42
149.78
128.67
100.36
68.28
33.92
-1.71
-36.92
-69.23
-95.95
-115.22
-126.55
-130.58
-129.08
-124.93
-120.70
-118.16
-118.34
-121.35
-125.93
-129.11
-126.23
-112.78
-87.17
-51.69
-12.43
22.85
47.86
60.19
61.75
57.21
51.42
47.04
44.32
42.17
39.47
36.05
32.71
30.47
29.99
31.27
33.69
36.20
37.84
37.95
36.28
33.32
30.10
27.99
28.25
31.48
37.20
43.83
49.19
51.38
49.62
44.84
39.30
35.60
35.49
39.41
46.33
54.47
61.72
65.61
63.47
52.32
30.31
-1.48
-38.01
-71.22
-92.70
-98.04
-88.78
-71.64
-55.84
-48.51
-51.65
-61.23
-70.78
-75.04
-72.64
-68.08
-66.05
-69.50
-77.03
-82.77
-79.61
-63.80
-37.28
-8.42
12.17
17.20
6.27
-14.07
-33.01
-40.90
-33.66
-12.80
15.65
45.72
73.82
98.95
121.65
141.06
153.95
156.04
144.11
117.42
78.74
33.89
-9.82
-45.85
-70.24
-82.40
-84.55
-80.07
-72.99
-66.07
-60.79
-57.52
-55.60
-54.22
-52.39
-48.94
-41.77
-30.49
-14.75
4.33
25.19
45.28
60.88
68.66
66.43
53.57
31.31
2.79
-27.63
-55.23
-75.77
-85.32
-82.56
-68.07
-43.82
-12.82
21.72
56.88
90.12
120.10
145.88
166.97
183.24
194.27
199.67
199.17
192.92
180.61
162.64
139.14
110.40
78.63
45.30
11.89
-20.62
-51.13
-79.37
-104.39
-125.21
-142.69
-154.49
-159.36
-156.08
-144.38
-124.79
-99.86
-72.09
-44.56
-20.84
-3.98
2.49
-3.64
-23.34
-55.75
-99.46
-150.22
-202.54
-250.83
-289.45
-314.45
-323.25
-315.25
-284.31
-235.57
-175.89
-111.97
-49.70
6.97
55.16
93.72
122.66
142.59
154.02
159.13
160.45
160.24
161.04
164.49
171.58
182.55
195.98
209.29
220.48
228.66
231.45
227.67
216.99
199.92
177.84
151.85
122.96
92.85
62.98
35.07
10.93
-8.18
-21.83
-30.72
-36.89
-43.13
-50.11
-60.23
-74.36
-91.52
-109.70
-126.66
-140.50
-150.75
-157.80
-162.34
-165.98
-169.62
-174.09
-180.27
-187.88
-194.65
-197.08
-191.56
-176.32
-154.22
-130.98
-113.89
-108.45
-116.72
-134.05
-153.20
-166.78
-169.70
-160.21
-138.74
-106.97
-66.79
-19.48
31.12
80.66
124.77
159.78
183.28
195.16
197.26
192.42
183.95
174.44
165.24
156.52
147.75
138.23
127.81
116.93
106.15
96.34
87.97
81.04
75.11
69.53
63.77
57.61
51.17
44.78
38.94
33.91
29.65
25.93
22.52
19.20
16.01
13.51
11.83
11.54
13.21
17.31
24.03
33.40
44.99
58.38
71.87
83.69
92.14
95.47
92.28
81.75
63.96
39.68
10.42
-21.89
-55.03
-86.51
-114.22
-136.53
-152.37
-161.07
-162.49
-156.76
-144.25
-125.59
-101.42
-72.72
-40.85
-7.53
25.12
54.78
79.02
95.91
103.98
102.57
92.01
73.35
48.41
19.53
-10.58
-39.32
-64.32
-83.87
-97.20
-104.35
-106.19
-104.09
-99.64
-94.25
-88.91
-84.22
-80.06
-76.39
-73.04
-70.22
-68.30
-67.80
-68.95
-71.58
-75.38
-79.51
-83.53
-86.73
-89.41
-92.29
-95.73
-98.93
-99.54
-98.28
-93.89
-85.46
-71.70
-53.40
-32.80
-11.69
9.96
34.12
63.82
102.44
151.68
212.64
282.19
353.87
420.57
477.01
520.36
549.39
564.56
567.03
560.44
546.02
521.95
484.59
430.21
355.96
261.02
148.24
10.99
-135.53
-263.73
-350.91
-391.93
-396.66
-379.79
-353.05
-322.67
-290.11
-253.64
-214.00
-174.97
-140.10
-110.17
-83.05
-55.51
-25.20
10.26
50.27
90.35
123.40
143.12
146.39
133.83
108.59
71.47
29.84
-9.54
-43.28
-71.12
-94.23
-113.54
-129.15
-140.45
-146.68
-146.92
-141.47
-131.93
-120.97
-111.35
-105.00
-102.58
-103.23
-105.18
-105.98
-104.41
-100.30
-94.66
-89.04
-84.74
-82.51
-82.55
-84.89
-88.87
-93.46
-96.08
-92.84
-79.81
-55.19
-20.84
17.74
53.20
79.56
94.02
97.74
94.46
88.23
81.67
75.65
70.20
65.48
62.27
61.39
62.71
65.15
67.00
66.90
64.46
60.89
57.93
57.10
58.85
61.98
64.65
64.60
60.12
50.45
36.00
17.71
-2.98
-24.40
-45.34
-65.43
-85.53
-107.66
-133.74
-163.56
-193.62
-217.30
-225.98
-215.51
-186.32
-143.76
-96.00
-50.78
-12.82
16.47
38.42
54.46
64.91
69.88
69.77
65.86
60.26
55.22
52.33
52.07
53.72
55.42
55.87
54.59
52.41
50.95
52.31
58.02
68.89
84.54
103.52
124.06
144.09
162.09
176.24
184.94
186.60
179.94
163.74
137.18
100.36
54.00
0.98
-55.31
-111.61
-164.46
-210.02
-244.96
-266.59
-273.15
-263.72
-238.65
-199.28
-146.86
-86.63
-23.85
35.72
88.07
129.33
156.96
169.85
168.60
154.85
131.36
101.56
68.70
35.87
5.66
-19.47
-37.34
-46.38
-46.42
-38.51
-24.77
-8.72
5.95
15.86
18.99
14.96
5.53
-8.03
-23.94
-40.59
-57.25
-73.38
-88.79
-103.34
-117.19
-130.25
-141.83
-149.49
-149.54
-138.57
-115.37
-82.83
-47.83
-18.97
-3.36
-3.97
-18.53
-41.45
-66.31
-88.52
-104.55
-112.13
-109.36
-94.51
-66.53
-25.91
24.13
78.07
129.43
172.03
201.29
214.71
211.99
192.79
160.06
117.02
66.76
12.62
-41.75
-92.51
-136.25
-169.68
-190.35
-197.12
-190.64
-172.95
-146.87
-115.49
-81.70
-47.74
-15.33
14.20
39.77
60.65
76.53
87.11
92.44
92.98
89.28
82.05
71.82
58.91
44.07
27.87
10.14
-9.52
-31.63
-56.93
-86.07
-119.48
-156.95
-196.45
-234.75
-268.72
-295.08
-310.72
-313.14
-300.79
-273.39
-232.74
-181.73
-121.24
-53.19
19.92
95.49
171.08
245.24
318.14
382.31
434.93
476.22
506.97
528.07
539.82
541.44
531.19
507.13
467.83
414.83
352.39
285.30
218.36
155.76
100.58
55.08
21.32
1.27
-8.64
-9.60
-3.21
8.22
22.23
36.46
48.99
57.73
59.46
50.21
26.95
-11.56
-62.63
-118.89
-170.66
-209.88
-233.57
-244.45
-247.70
-245.91
-237.38
-217.02
-180.10
-126.61
-62.92
-0.38
49.27
77.63
82.23
65.64
33.82
-6.05
-46.93
-82.46
-107.46
-118.61
-115.34
-100.17
-78.44
-56.62
-40.15
-32.04
-32.06
-37.50
-44.68
-50.42
-52.97
-52.15
-48.66
-43.28
-36.56
-29.18
-22.18
-16.84
-13.98
-13.43
-14.01
-14.08
-11.93
-6.52
2.29
13.84
27.10
41.18
55.59
70.08
84.49
98.38
110.70
119.94
124.47
122.98
114.75
100.00
79.90
56.12
31.27
7.42
-13.89
-31.75
-45.65
-55.83
-62.79
-67.00
-69.22
-69.76
-68.97
-67.39
-65.44
-63.33
-61.58
-60.75
-61.30
-63.78
-68.72
-76.38
-86.98
-100.30
-115.58
-132.18
-148.45
-162.34
-172.03
-175.67
-171.85
-159.91
-140.21
-114.02
-82.59
-49.89
-18.98
7.98
30.07
47.81
62.79
76.84
91.66
107.75
124.57
140.83
154.87
164.95
169.90
169.29
162.96
150.90
132.75
108.49
78.67
45.05
9.43
-26.47
-60.82
-91.16
-114.23
-126.29
-124.67
-108.39
-80.59
-47.80
-17.81
3.28
13.16
13.38
7.64
-0.70
-9.79
-20.16
-33.06
-49.19
-67.90
-87.38
-105.72
-121.74
-134.73
-143.87
-148.52
-147.44
-139.25
-122.87
-98.26
-66.84
-31.20
4.62
37.19
63.86
83.38
95.91
102.61
105.08
104.59
102.58
99.22
94.93
89.82
84.13
78.34
72.79
67.90
63.57
59.79
56.30
53.40
51.28
50.44
51.73
55.69
62.77
72.94
86.12
100.79
115.52
128.18
136.49
138.45
132.40
117.24
92.72
59.66
18.81
-25.80
-70.01
-110.87
-144.96
-169.38
-182.20
-182.87
-171.88
-150.99
-122.55
-89.70
-55.37
-21.94
8.72
35.17
56.39
71.99
81.40
84.23
79.85
67.92
48.71
23.03
-7.78
-41.64
-74.96
-104.51
-126.84
-139.02
-138.92
-125.49
-99.20
-62.14
-17.84
30.45
78.27
121.60
157.46
184.13
201.02
208.33
206.67
191.31
165.76
132.75
94.55
53.35
11.42
-28.88
-65.24
-95.46
-119.19
-134.61
-140.83
-136.30
-119.26
-88.68
-45.01
9.41
69.92
129.63
182.21
221.26
242.99
246.18
232.07
203.83
166.38
125.27
84.71
47.93
15.29
-15.27
-48.21
-87.87
-136.62
-188.46
-231.62
-254.18
-249.29
-218.89
-171.00
-116.33
-63.76
-17.57
20.21
52.82
80.31
100.41
110.22
108.36
94.01
66.36
25.08
-28.33
-91.11
-161.09
-235.47
-310.45
-367.83
-390.08
-370.27
-315.44
-239.91
-157.49
-78.40
-7.70
53.17
105.37
150.62
190.90
225.70
253.87
274.04
283.35
279.25
260.09
220.02
164.60
104.06
49.92
11.67
-6.51
-11.88
-12.16
-14.13
-21.26
-32.84
-49.93
-74.36
-106.83
-141.11
-171.96
-194.54
-204.49
-196.58
-163.44
-103.85
-20.80
80.34
189.92
291.99
366.66
396.43
373.30
304.01
199.18
73.97
-52.71
-154.82
-203.76
-187.96
-120.71
-41.01
42.14
124.82
203.54
276.85
338.63
380.54
394.53
376.85
326.45
255.15
173.78
82.62
-16.68
-120.20
-223.60
-322.93
-412.81
-485.73
-531.81
-551.58
-549.34
-528.91
-494.81
-453.50
-413.54
-382.64
-365.53
-337.13
-288.77
-226.15
-162.01
-106.63
-63.74
-32.72
-11.08
4.32
16.89
23.76
22.51
14.73
5.77
2.78
11.92
36.23
74.29
120.32
162.36
190.56
201.50
198.21
187.17
174.57
163.98
156.00
149.52
141.53
131.08
119.68
109.80
102.97
98.96
96.54
94.04
90.45
84.80
77.50
69.70
62.39
55.64
48.20
38.67
26.71
13.68
1.83
-6.97
-13.05
-18.97
-28.78
-45.65
-69.67
-96.86
-120.96
-136.06
-138.76
-128.47
-106.31
-73.83
-32.73
14.11
61.69
102.83
130.12
139.36
131.14
110.13
82.62
54.06
27.72
4.71
-15.00
-31.26
-43.89
-52.85
-58.61
-62.09
-63.22
-61.49
-55.82
-45.33
-29.84
-10.28
10.95
30.76
46.34
56.22
60.63
61.32
61.18
63.58
71.53
86.42
106.88
128.22
143.39
145.36
130.31
100.21
62.52
27.33
2.93
-7.82
-8.02
-4.37
-3.31
-8.32
-18.55
-29.98
-37.68
-37.78
-28.70
-11.34
11.32
34.66
52.64
59.82
53.13
32.96
3.05
-30.91
-63.57
-91.84
-113.10
-127.89
-137.56
-142.21
-139.28
-123.82
-90.48
-36.20
37.58
124.16
211.06
284.08
330.92
344.26
323.41
273.58
204.02
125.35
47.16
-25.59
-91.32
-150.59
-204.54
-253.64
-298.05
-338.39
-375.92
-401.86
-408.15
-389.09
-344.50
-279.55
-201.15
-115.91
-29.68
51.95
124.07
181.45
221.40
245.92
258.95
265.33
268.53
269.52
266.52
256.00
232.64
191.77
131.01
51.67
-38.50
-127.34
-201.43
-249.91
-268.15
-260.06
-236.21
-209.89
-192.38
-189.19
-199.53
-217.77
-236.00
-246.51
-243.80
-225.02
-190.06
-141.46
-83.59
-22.00
37.89
92.15
139.01
178.58
211.98
240.33
263.83
281.53
291.64
292.08
281.18
258.15
223.40
178.61
126.56
70.91
15.49
-36.55
-83.49
-125.14
-162.50
-196.73
-228.11
-255.52
-276.42
-287.59
-286.02
-269.78
-238.68
-194.76
-142.38
-87.94
-39.00
-2.76
15.49
13.83
-5.78
-37.69
-73.68
-104.82
-123.78
-127.12
-116.36
-97.27
-77.32
-62.30
-53.48
-47.06
-35.87
-13.23
23.16
69.32
115.77
150.62
163.67
150.20
112.85
61.22
9.19
-29.17
-43.67
-30.88
5.48
56.59
112.13
163.59
206.33
239.63
265.27
286.29
306.05
327.84
354.02
384.96
417.99
447.68
467.68
473.20
463.65
442.78
416.45
389.01
360.65
327.21
283.01
224.34
151.71
70.27
-12.25
-88.87
-155.96
-213.54
-264.14
-310.57
-354.69
-397.14
-436.39
-468.85
-489.73
-494.17
-478.58
-442.27
-388.22
-322.78
-254.88
-192.66
-141.01
-101.15
-70.93
-46.28
-25.75
-9.39
5.03
15.51
16.28
4.34
-18.47
-44.92
-64.33
-66.75
-46.30
-3.24
56.19
123.73
191.99
254.98
307.53
344.38
360.53
353.19
323.68
277.68
225.07
177.54
144.40
129.42
129.72
136.61
138.94
127.03
95.53
45.32
-17.41
-84.58
-149.65
-209.69
-265.58
-320.13
-375.93
-433.44
-489.82
-539.11
-573.54
-585.39
-569.17
-523.64
-452.78
-365.16
-271.43
-181.14
-100.25
-30.41
29.74
82.55
129.92
172.94
212.78
251.11
289.89
330.08
370.24
406.07
431.50
441.44
434.64
415.27
391.95
374.54
370.05
379.65
397.90
415.02
420.91
408.89
377.92
332.02
277.66
220.91
165.31
111.67
59.30
7.62
-43.12
-91.94
-137.64
-179.27
-215.94
-246.83
-271.30
-289.35
-302.02
-311.08
-317.83
-321.69
-319.70
-307.41
-281.11
-240.15
-187.75
-130.76
-77.94
-37.91
-17.37
-19.82
-45.37
-91.18
-152.60
-223.46
-297.26
-367.56
-427.79
-471.11
-490.93
-482.43
-444.70
-381.99
-301.85
-213.25
-124.02
-39.21
39.14
111.01
176.82
236.07
283.33
311.37
314.49
292.14
249.74
196.19
140.57
89.31
47.43
13.42
-14.66
-37.86
-55.99
-68.17
-73.44
-71.16
-61.56
-45.96
-26.94
-6.47
13.97
33.79
53.02
72.16
92.04
113.72
138.35
166.42
198.00
231.46
262.85
286.36
296.11
288.77
265.50
232.45
198.81
174.33
165.85
175.34
199.73
232.30
264.94
290.14
302.51
299.33
280.91
250.12
211.46
170.07
130.62
96.54
69.31
48.40
31.35
14.43
-6.35
-34.00
-69.54
-111.75
-157.71
-204.11
-248.47
-289.74
-328.49
-366.28
-405.08
-446.38
-490.26
-534.49
-574.16
-602.29
-611.54
-596.86
-557.33
-496.79
-422.40
-342.05
-261.85
-185.09
-112.62
-44.68
17.81
72.62
117.12
149.56
170.08
181.00
186.37
191.08
199.62
214.47
234.64
255.20
268.27
265.90
243.35
201.58
147.35
90.84
42.12
7.88
-9.90
-13.67
-8.58
-0.79
3.66
-0.60
-17.67
-49.53
-94.75
-147.93
-200.35
-241.65
-262.43
-256.65
-223.31
-166.75
-95.59
-20.53
48.38
103.58
141.35
161.68
167.20
161.94
150.31
136.55
124.40
116.32
112.54
110.58
105.75
92.99
69.91
38.76
6.30
-18.83
-30.12
-26.32
-11.65
6.71
22.36
32.88
40.00
47.64
58.50
71.92
83.93
89.71
86.56
75.53
60.94
47.67
38.26
31.59
23.86
11.58
-5.59
-24.03
-37.80
-41.67
-33.83
-16.38
6.51
31.23
56.70
83.99
114.58
148.25
182.21
211.67
231.62
238.94
233.31
217.23
194.73
170.16
147.17
128.27
114.48
105.09
97.81
88.98
74.60
52.03
21.61
-12.53
-43.57
-64.41
-70.58
-62.03
-43.05
-19.76
3.00
23.68
43.74
65.34
88.72
110.97
126.96
131.66
122.54
100.44
68.30
29.21
-15.09
-63.81
-115.66
-166.99
-211.83
-243.43
-257.17
-252.89
-234.99
-210.79
-187.57
-170.09
-159.75
-155.26
-154.41
-155.29
-156.36
-155.68
-150.44
-137.66
-115.68
-85.81
-52.51
-22.08
-0.22
10.14
9.71
1.86
-9.14
-19.90
-28.61
-34.73
-38.22
-38.79
-35.98
-29.64
-20.29
-9.09
2.75
14.30
25.27
35.64
45.22
53.13
57.90
58.03
52.96
44.27
35.15
29.55
30.48
38.53
51.95
67.79
83.94
100.07
117.87
138.16
158.67
173.05
172.29
148.31
97.96
25.16
-60.52
-146.77
-220.98
-272.06
-293.02
-282.92
-246.69
-192.35
-127.66
-62.48
0.49
58.34
106.59
140.24
155.42
150.68
126.16
84.69
31.03
-27.53
-83.18
-128.18
-156.58
-166.00
-157.98
-136.87
-107.37
-73.15
-35.87
2.39
37.92
64.81
76.30
67.61
38.43
-6.56
-59.81
-113.60
-163.00
-206.02
-242.17
-270.64
-289.13
-294.46
-284.04
-257.63
-217.68
-168.87
-116.56
-65.14
-17.36
25.93
65.13
101.33
135.55
167.99
197.36
220.97
235.47
238.04
227.96
207.08
179.39
149.56
121.22
96.05
73.98
54.20
36.36
21.08
9.58
2.71
0.30
1.02
3.20
5.50
7.60
10.01
13.79
20.01
29.42
42.41
58.79
77.83
97.99
117.16
133.06
143.84
148.69
147.86
142.35
133.11
120.69
105.18
86.72
66.06
44.68
24.44
6.88
-7.40
-19.02
-29.45
-40.13
-51.77
-63.79
-74.64
-82.44
-85.97
-85.07
-80.77
-74.85
-69.08
-64.86
-62.67
-62.26
-62.63
-62.53
-60.77
-56.54
-49.64
-40.41
-29.56
-17.90
-6.27
4.42
13.06
18.46
19.76
17.04
11.58
5.46
0.78
-1.30
-1.08
-0.01
0.16
-1.60
-5.15
-9.21
-12.17
-12.71
-10.29
-5.27
1.55
9.22
17.08
24.76
32.09
38.91
44.98
50.01
53.84
56.56
58.47
60.04
61.54
62.96
63.85
63.55
61.42
57.02
50.25
41.16
29.87
16.58
1.62
-14.26
-29.91
-43.83
-54.64
-61.34
-63.66
-61.97
-57.19
-50.55
-43.19
-36.03
-29.51
-23.73
-18.40
-13.16
-7.75
-2.16
3.20
7.70
10.59
11.35
9.75
6.13
1.26
-3.74
-7.53
-8.97
-7.33
-2.63
4.47
12.83
21.15
28.16
32.82
34.48
32.87
28.25
21.36
13.26
5.14
-1.96
-7.41
-11.04
-12.96
-13.49
-12.95
-11.71
-10.21
-8.99
-8.60
-9.39
-11.39
-14.12
-16.89
-18.95
-19.85
-19.69
-19.06
-18.84
-19.90
-22.84
-27.68
-34.02
-41.00
-47.55
-52.76
-56.03
-57.23
-56.82
-55.57
-54.39
-54.08
-55.04
-57.16
-59.97
-62.64
-64.20
-63.72
-60.48
-54.13
-44.89
-33.47
-21.01
-8.93
1.34
8.64
12.37
12.77
11.05
9.14
9.30
13.49
22.75
36.92
54.69
73.98
92.46
107.94
118.64
123.38
121.66
113.81
100.97
84.87
67.51
50.60
35.25
21.76
9.84
-1.16
-11.81
-22.33
-32.42
-41.23
-47.55
-50.24
-48.60
-42.67
-33.27
-21.85
-10.10
0.48
8.74
14.12
16.50
16.16
13.67
9.79
5.48
1.74
-0.50
-0.60
1.61
5.74
10.92
16.07
20.14
22.41
22.57
20.64
16.71
10.93
3.52
-5.11
-14.12
-22.47
-29.06
-33.10
-34.31
-32.95
-29.64
-25.10
-20.03
-14.92
-10.15
-5.76
-1.56
2.90
8.18
14.61
22.15
30.11
37.42
42.86
45.48
44.88
41.32
35.59
28.78
22.06
16.43
12.68
11.18
11.90
14.39
17.91
21.60
24.75
26.98
28.15
28.30
27.33
24.94
20.86
15.06
8.11
0.97
-5.30
-10.10
-13.49
-16.12
-18.85
-22.10
-25.73
-29.08
-31.33
-32.00
-31.19
-29.42
-27.37
-25.68
-24.62
-24.28
-24.55
-25.25
-26.17
-27.15
-27.96
-28.30
-27.91
-26.52
-23.99
-20.23
-15.20
-8.84
-1.11
7.91
17.87
28.02
37.34
44.70
49.13
50.12
47.59
41.99
33.98
24.45
14.40
4.98
-2.61
-7.30
-8.39
-5.84
-0.20
7.42
15.77
23.71
30.44
35.53
38.76
40.11
39.62
37.48
34.07
29.89
25.48
21.23
17.29
13.57
9.95
6.34
2.88
-0.12
-2.33
-3.52
-3.75
-3.35
-2.86
-2.80
-3.61
-5.42
-8.11
-11.34
-14.61
-17.51
-19.78
-21.46
-22.80
-24.11
-25.61
-27.22
-28.57
-29.01
-27.97
-25.14
-20.68
-15.26
-9.79
-5.20
-2.09
-0.64
-0.60
-1.56
-3.07
-4.77
-6.30
-7.27
-7.34
-6.32
-4.42
-2.28
-0.75
-0.54
-1.76
-3.91
-5.97
-7.11
-7.06
-6.38
-6.22
-7.77
-11.61
-17.38
-23.85
-29.30
-32.22
-31.62
-27.35
-19.93
-10.21
0.94
12.95
25.59
38.88
52.74
66.78
79.95
90.45
96.05
94.45
84.34
65.98
41.85
15.98
-7.24
-24.90
-37.09
-47.31
-61.60
-86.09
-123.93
-173.04
-225.85
-271.15
-297.47
-296.76
-266.70
-211.61
-141.47
-69.82
-10.86
23.75
27.85
2.78
-42.68
-94.54
-137.71
-160.46
-157.40
-130.08
-85.08
-30.88
24.88
76.68
121.46
157.80
185.36
204.51
216.14
221.56
222.26
219.28
212.71
201.72
185.02
161.80
132.91
101.16
70.89
46.70
31.70
26.33
28.37
34.01
39.66
43.60
46.49
50.71
58.68
71.15
86.39
100.73
110.12
111.70
104.85
90.74
71.25
47.90
21.51
-7.09
-36.36
-63.63
-86.17
-102.51
-113.68
-123.29
-136.28
-157.17
-188.18
-227.98
-271.35
-310.10
-334.73
-337.26
-313.78
-266.04
-201.32
-129.92
-61.79
-3.08
45.19
85.95
122.80
156.80
185.26
202.92
205.48
192.56
168.86
142.45
121.20
109.48
106.45
107.48
106.88
100.81
88.30
70.50
49.07
24.90
-1.63
-29.75
-57.02
-79.52
-92.86
-94.16
-83.39
-63.45
-39.21
-15.46
4.29
18.59
27.52
31.93
32.90
31.53
29.27
27.62
27.79
29.88
32.89
35.25
36.10
36.05
37.09
41.38
49.59
59.99
68.75
71.65
65.99
51.79
31.58
8.78
-13.86
-35.29
-55.65
-75.24
-93.44
-108.57
-118.90
-123.83
-124.78
-124.33
-124.58
-125.18
-122.91
-113.02
-92.09
-60.37
-22.44
14.45
43.52
61.17
67.87
66.91
61.90
54.87
45.77
33.77
18.86
3.13
-9.70
-15.77
-13.00
-2.20
13.14
28.26
39.15
43.79
42.55
37.38
30.46
23.36
16.81
11.16
6.88
4.94
6.28
11.16
18.64
26.49
32.15
33.73
31.00
25.38
19.41
15.53
15.06
17.74
21.92
25.59
27.20
26.44
24.11
21.70
20.67
21.88
25.50
30.99
37.48
43.81
48.74
50.91
49.01
42.06
29.71
12.59
-7.90
-29.62
-50.25
-67.55
-79.69
-85.57
-85.00
-78.96
-69.20
-57.89
-46.76
-36.62
-27.13
-17.05
-5.00
10.04
28.16
48.43
68.72
85.58
94.61
91.47
73.99
43.77
6.80
-28.48
-54.28
-66.69
-67.06
-60.38
-52.26
-45.70
-40.30
-33.50
-23.19
-9.62
4.65
16.22
23.03
25.08
24.10
21.97
19.73
17.41
14.54
11.12
7.82
5.90
6.33
9.21
13.46
17.12
18.29
15.87
10.35
3.62
-1.54
-2.87
0.52
7.66
16.12
23.34
27.65
29.18
29.48
30.65
34.08
39.75
46.39
51.97
54.78
53.88
49.49
42.57
34.47
26.20
18.13
10.02
1.10
-9.10
-20.71
-33.17
-45.73
-57.78
-69.12
-79.76
-89.46
-97.51
-102.76
-104.33
-102.00
-96.38
-88.43
-78.69
-67.06
-52.98
-36.48
-18.79
-2.37
10.02
16.66
17.62
14.69
10.14
5.67
1.54
-2.89
-8.09
-13.37
-16.58
-15.10
-7.13
6.90
24.34
41.13
53.62
59.92
60.41
57.20
52.66
48.44
44.71
40.58
34.93
27.21
17.97
8.56
0.61
-4.85
-7.53
-8.03
-7.46
-6.89
-7.15
-8.57
-11.07
-14.07
-16.72
-18.02
-17.08
-13.49
-7.46
0.22
8.44
16.08
22.44
27.20
30.42
32.52
34.30
37.00
41.81
49.13
57.68
64.61
66.40
60.58
47.12
28.57
8.92
-8.40
-21.90
-32.13
-40.54
-47.92
-53.72
-56.36
-54.63
-48.58
-39.65
-29.90
-20.84
-12.98
-5.93
0.89
7.67
13.93
18.84
21.58
21.70
19.36
15.16
10.06
5.06
1.02
-1.69
-3.26
-4.27
-5.57
-7.73
-10.95
-15.01
-19.44
-23.73
-27.52
-30.58
-32.66
-33.59
-33.26
-31.69
-29.05
-25.54
-21.30
-16.37
-10.96
-5.52
-1.03
1.34
0.58
-3.61
-10.42
-18.01
-23.98
-26.13
-23.15
-15.12
-3.55
9.00
19.53
25.54
25.75
20.60
12.10
3.23
-3.12
-4.98
-1.80
5.54
15.40
26.00
35.91
44.17
50.16
53.48
53.91
51.52
46.73
40.33
33.19
26.09
19.49
13.49
8.07
3.16
-1.12
-4.67
-7.34
-9.27
-10.82
-12.52
-14.99
-18.73
-24.04
-30.99
-39.24
-47.94
-55.88
-61.67
-64.16
-62.92
-58.25
-51.12
-42.71
-33.97
-25.48
-17.44
-9.87
-2.84
3.41
8.56
12.33
14.61
15.56
15.51
14.85
13.96
13.06
12.05
10.68
8.65
5.78
2.23
-1.63
-5.26
-8.15
-10.02
-10.84
-10.73
-10.06
-9.34
-9.01
-9.46
-10.77
-12.74
-14.98
-17.08
-18.56
-19.15
-18.71
-17.22
-14.86
-11.90
-8.71
-5.61
-2.88
-0.53
1.47
3.26
4.88
6.22
7.23
7.88
8.37
9.03
10.17
11.91
14.11
16.44
18.48
19.99
20.90
21.30
21.36
21.16
20.74
20.14
19.49
18.90
18.50
18.29
18.14
17.84
17.16
16.04
14.53
12.81
11.10
9.56
8.21
6.88
5.30
3.06
-0.15
-4.57
-10.21
-16.84
-24.01
-31.06
-37.23
-41.69
-43.87
-43.37
-40.35
-35.34
-29.21
-23.03
-17.70
-13.88
-11.78
-11.32
-12.00
-13.37
-14.95
-16.45
-17.90
-19.31
-20.72
-22.03
-22.94
-22.99
-21.81
-19.23
-15.36
-10.76
-5.96
-1.54
2.15
5.00
7.03
8.38
9.12
9.34
8.95
8.02
6.58
4.81
2.94
1.23
-0.09
-0.92
-1.20
-1.07
-0.58
0.14
0.92
1.67
2.15
2.22
1.82
1.11
0.42
0.20
0.81
2.29
4.49
6.84
8.91
10.48
11.60
12.48
13.31
14.06
14.48
14.40
13.67
12.52
11.35
10.54
10.24
10.25
10.13
9.50
8.24
6.50
4.71
3.25
2.31
1.82
1.49
1.02
0.31
-0.53
-1.27
-1.72
-1.80
-1.65
-1.46
-1.47
-1.76
-2.30
-2.97
-3.67
-4.29
-4.79
-5.10
-5.11
-4.82
-4.29
-3.66
-3.17
-3.01
-3.23
-3.75
-4.31
-4.54
-4.26
-3.43
-2.25
-1.12
-0.29
0.15
0.36
0.55
0.98
1.66
2.50
3.27
3.78
4.09
4.30
4.63
5.14
5.75
6.24
6.40
6.14
5.45
4.57
3.68
2.98
2.55
2.40
2.43
2.50
2.52
2.29
1.88
1.32
0.82
0.61
0.84
1.58
2.63
3.74
4.56
4.97
4.93
4.57
4.10
3.61
3.15
2.67
2.11
1.43
0.65
-0.27
-1.26
-2.20
-2.93
-3.17
-2.77
-1.74
-0.33
1.14
2.25
2.79
2.79
2.37
1.88
1.48
1.26
1.01
0.47
-0.61
-2.26
-4.23
-6.13
-7.45
-7.93
-7.55
-6.59
-5.48
-4.54
-3.91
-3.46
-3.04
-2.49
-1.89
-1.39
-1.18
-1.38
-1.96
-2.76
-3.49
-4.03
-4.28
-4.40
-4.57
-4.87
-5.33
-5.82
-6.25
-6.59
-6.89
-7.26
-7.72
-8.21
-8.52
-8.53
-8.17
-7.57
-6.91
-6.35
-6.01
-5.80
-5.49
-4.81
-3.63
-1.99
-0.23
1.24
2.09
2.22
1.85
1.35
1.09
1.19
1.61
2.16
2.68
3.24
3.96
5.06
6.55
8.23
9.86
11.17
11.95
12.15
11.91
11.38
10.76
10.20
9.70
9.23
8.72
8.09
7.29
6.37
5.23
3.94
2.50
1.02
-0.28
-1.14
-1.37
-0.94
0.00
1.04
1.84
2.09
1.72
0.94
0.02
-0.74
-1.30
-1.81
-2.57
-3.72
-5.24
-6.87
-8.16
-8.77
-8.57
-7.68
-6.45
-5.29
-4.45
-3.94
-3.65
-3.22
-2.52
-1.45
-0.14
1.06
1.80
1.94
1.60
1.07
0.78
0.84
1.17
1.53
1.66
1.56
1.43
1.54
2.04
2.87
3.75
4.40
4.69
4.66
4.55
4.53
4.64
4.74
4.62
4.17
3.43
2.57
1.78
1.18
0.68
0.15
-0.57
-1.51
-2.54
-3.43
-3.94
-3.98
-3.61
-3.05
-2.54
-2.22
-2.10
-2.05
-1.90
-1.57
-1.16
-0.82
-0.78
-1.11
-1.75
-2.53
-3.20
-3.57
-3.50
-3.00
-2.13
-1.06
0.10
1.24
2.30
3.34
4.34
5.30
6.15
6.76
7.07
7.12
7.06
6.94
6.82
6.55
6.04
5.40
4.71
4.28
4.23
4.47
4.77
4.85
4.58
4.09
3.70
3.66
4.06
4.68
5.14
5.10
4.41
3.04
1.12
-1.15
-3.70
-6.41
-9.21
-11.97
-14.48
-16.47
-17.75
-18.21
-17.82
-16.82
-15.42
-13.94
-12.67
-11.64
-10.91
-10.41
-10.05
-9.71
-9.27
-8.48
-7.27
-5.61
-3.60
-1.45
0.64
2.57
4.30
5.89
7.51
9.15
10.80
12.31
13.42
14.06
14.12
13.72
13.09
12.55
12.31
12.44
12.85
13.18
13.27
12.91
12.10
10.96
9.66
8.32
6.98
5.65
4.22
2.70
1.03
-0.78
-2.66
-4.55
-6.25
-7.59
-8.35
-8.49
-7.96
-6.97
-5.78
-4.60
-3.67
-2.96
-2.33
-1.63
-0.76
0.27
1.26
1.98
2.40
2.43
2.32
2.33
2.61
3.13
3.68
3.94
3.72
3.09
2.27
1.67
1.54
1.94
2.68
3.42
3.83
3.78
3.35
2.77
2.36
2.34
2.78
3.60
4.56
5.42
5.98
6.14
5.91
5.46
4.89
4.30
3.68
2.89
1.87
0.61
-0.76
-2.13
-3.35
-4.39
-5.25
-5.92
-6.48
-6.91
-7.23
-7.46
-7.68
-7.80
-7.75
-7.38
-6.50
-5.17
-3.46
-1.66
-0.17
0.76
1.02
0.79
0.48
0.52
1.14
2.34
3.74
4.86
5.44
5.45
5.23
5.27
5.83
6.82
7.85
8.36
7.94
6.61
4.68
2.62
0.86
-0.35
-1.11
-1.61
-2.10
-2.71
-3.35
-3.94
-4.34
-4.47
-4.40
-4.21
-4.02
-3.88
-3.86
-3.90
-4.03
-4.27
-4.66
-5.33
-6.32
-7.60
-8.97
-10.15
-10.86
-11.03
-10.70
-10.07
-9.33
-8.50
-7.53
-6.38
-5.08
-3.79
-2.80
-2.27
-2.21
-2.43
-2.52
-2.18
-1.28
0.01
1.38
2.46
3.08
3.31
3.34
3.48
3.88
4.54
5.26
5.83
6.12
6.15
6.13
6.23
6.62
7.25
7.95
8.53
8.76
8.58
8.07
7.46
6.95
6.70
6.60
6.50
6.25
5.76
5.21
4.79
4.68
4.82
5.00
4.89
4.30
3.29
2.04
0.87
-0.08
-0.83
-1.52
-2.30
-3.18
-3.95
-4.31
-4.12
-3.40
-2.47
-1.74
-1.46
-1.65
-2.03
-2.25
-2.00
-1.22
-0.04
1.19
2.18
2.72
2.82
2.65
2.44
2.38
2.54
2.87
3.12
3.08
2.63
1.86
1.04
0.42
0.11
0.06
0.14
0.17
0.14
0.14
0.22
0.47
0.78
1.03
1.07
0.89
0.50
-0.03
-0.61
-1.19
-1.71
-2.15
-2.47
-2.63
-2.62
-2.40
-1.98
-1.43
-0.93
-0.62
-0.67
-1.07
-1.68
-2.26
-2.56
-2.46
-1.94
-1.18
-0.38
0.25
0.55
0.50
0.09
-0.53
-1.21
-1.75
-2.05
-2.04
-1.74
-1.20
-0.45
0.42
1.36
2.22
2.87
3.17
3.11
2.76
2.35
2.06
2.00
2.26
2.79
3.60
4.62
5.81
7.06
8.21
9.11
9.63
9.79
9.45
8.50
6.64
3.64
-0.51
-5.55
-10.92
-15.98
-20.14
-23.15
-24.91
-25.58
-25.40
-24.45
-22.88
-20.73
-18.17
-15.32
-12.41
-9.52
-6.72
-3.96
-1.09
2.00
5.45
9.16
12.93
16.49
19.59
22.14
24.11
25.65
26.77
27.46
27.64
27.26
26.44
25.32
24.10
22.83
21.50
19.92
17.93
15.41
12.23
8.40
3.96
-0.94
-6.09
-11.14
-15.79
-19.65
-22.51
-24.31
-25.09
-24.99
-24.13
-22.64
-20.60
-18.14
-15.36
-12.46
-9.63
-6.98
-4.66
-2.66
-1.03
0.16
0.79
0.74
0.02
-1.24
-2.72
-4.07
-4.97
-5.26
-4.93
-4.12
-3.02
-1.76
-0.48
0.81
1.96
2.91
3.50
3.63
3.30
2.63
1.92
1.47
1.53
2.10
2.97
3.79
4.20
4.08
3.42
2.40
1.16
-0.13
-1.29
-2.09
-2.18
-1.38
0.33
2.56
4.79
6.43
7.14
6.87
5.89
4.62
3.24
1.72
-0.26
-3.01
-6.64
-10.78
-14.77
-17.81
-19.28
-19.18
-17.94
-16.32
-14.99
-14.18
-13.67
-12.94
-11.56
-9.35
-6.53
-3.50
-0.67
1.69
3.60
5.19
6.60
7.77
8.60
8.89
8.63
7.98
7.26
6.78
6.60
6.64
6.56
6.10
5.18
3.99
2.81
1.91
1.41
1.19
1.07
0.89
0.68
0.58
0.76
1.26
1.88
2.25
1.92
0.73
-1.23
-3.53
-5.67
-7.33
-8.48
-9.40
-10.40
-11.62
-12.87
-13.77
-13.97
-13.35
-12.16
-10.78
-9.57
-8.69
-8.04
-7.29
-6.17
-4.58
-2.59
-0.49
1.42
2.89
3.82
4.23
4.21
3.78
2.97
1.87
0.68
-0.26
-0.61
-0.14
1.06
2.68
4.24
5.36
5.95
6.11
6.14
6.21
6.34
6.34
5.97
5.09
3.81
2.51
1.54
1.19
1.46
2.06
2.58
2.66
2.16
1.19
0.03
-1.12
-2.11
-2.99
-3.80
-4.49
-4.96
-5.00
-4.52
-3.57
-2.42
-1.36
-0.62
-0.27
-0.10
0.14
0.69
1.62
2.83
4.06
5.06
5.70
6.01
6.15
6.28
6.47
6.67
6.76
6.71
6.58
6.55
6.80
7.41
8.27
9.11
9.58
9.43
8.63
7.37
6.02
4.91
4.30
4.15
4.25
4.29
4.00
3.33
2.38
1.38
0.49
-0.20
-0.69
-0.99
-1.16
-1.19
-1.08
-0.92
-0.80
-0.85
-1.15
-1.68
-2.40
-3.21
-4.03
-4.85
-5.70
-6.59
-7.54
-8.41
-9.01
-9.16
-8.67
-7.55
-5.94
-4.20
-2.67
-1.73
-1.44
-1.63
-2.00
-2.20
-2.10
-1.77
-1.42
-1.21
-1.16
-1.04
-0.48
0.71
2.59
4.83
6.97
8.60
9.49
9.59
9.02
7.93
6.35
4.37
2.02
-0.55
-3.06
-5.18
-6.60
-7.21
-7.04
-6.37
-5.48
-4.65
-4.02
-3.57
-3.27
-3.04
-2.89
-2.86
-3.02
-3.25
-3.52
-3.77
-3.94
-4.12
-4.33
-4.62
-4.97
-5.32
-5.45
-5.30
-4.81
-3.99
-3.02
-1.92
-0.85
0.17
1.12
2.06
3.07
4.20
5.49
6.77
8.02
8.96
9.44
9.35
8.75
7.81
6.70
5.60
4.48
3.41
2.38
1.58
1.23
1.45
2.18
3.09
3.79
3.84
3.27
2.22
1.04
0.11
-0.47
-0.62
-0.46
-0.10
0.26
0.61
0.83
0.86
0.79
0.53
0.24
0.05
0.04
0.14
0.19
-0.14
-1.04
-2.44
-4.09
-5.45
-6.15
-6.05
-5.37
-4.48
-3.79
-3.44
-3.32
-3.28
-3.12
-2.86
-2.60
-2.45
-2.37
-2.28
-2.01
-1.45
-0.68
0.27
1.32
2.44
3.64
4.89
6.04
7.00
7.68
8.03
8.21
8.35
8.57
8.88
9.12
9.10
8.72
8.04
7.16
6.33
5.67
5.16
4.76
4.31
3.75
3.02
2.16
1.15
0.06
-1.00
-1.86
-2.23
-1.95
-0.96
0.58
2.30
3.80
4.70
4.82
4.18
3.01
1.47
-0.33
-2.43
-4.90
-7.69
-10.60
-13.26
-15.27
-16.28
-16.30
-15.55
-14.44
-13.28
-12.08
-10.64
-8.55
-5.55
-1.61
2.89
7.37
11.14
13.72
15.00
15.11
14.44
13.29
11.87
10.18
8.27
6.17
4.07
2.24
0.79
-0.21
-0.93
-1.55
-2.15
-2.69
-3.01
-3.01
-2.69
-2.26
-1.93
-1.89
-2.16
-2.51
-2.69
-2.56
-2.24
-2.04
-2.38
-3.42
-5.19
-7.46
-9.90
-12.27
-14.49
-16.56
-18.50
-20.28
-21.70
-22.62
-22.94
-22.58
-21.68
-20.36
-18.81
-17.26
-15.81
-14.34
-12.49
-9.89
-6.12
-1.21
4.59
10.74
16.63
21.86
26.17
29.37
31.34
32.05
31.52
30.06
28.17
26.29
24.69
23.32
21.85
20.05
17.85
15.55
13.82
13.26
14.13
16.09
18.26
19.58
19.30
17.23
13.78
9.76
5.89
2.46
-0.64
-3.68
-6.76
-9.57
-11.60
-12.43
-11.98
-10.72
-9.37
-8.50
-8.44
-9.09
-10.03
-10.84
-11.36
-11.56
-11.76
-12.23
-13.00
-13.99
-14.90
-15.55
-15.89
-16.03
-16.01
-15.74
-14.92
-13.16
-10.39
-6.79
-2.96
0.38
2.73
3.91
4.18
3.97
3.64
3.27
2.74
1.74
0.20
-1.67
-3.45
-4.57
-4.69
-3.76
-2.15
-0.43
0.88
1.59
1.83
1.95
2.30
2.97
3.71
4.15
3.98
3.19
2.14
1.41
1.35
2.07
3.19
4.22
4.86
5.27
5.97
7.61
10.54
14.55
18.98
22.96
25.93
27.89
29.29
30.78
32.75
35.22
37.68
39.47
39.90
38.58
35.37
30.30
23.45
14.95
5.10
-5.58
-16.34
-26.44
-35.49
-43.50
-50.90
-58.05
-64.97
-71.00
-75.06
-76.10
-73.66
-68.14
-60.64
-52.59
-45.13
-38.88
-33.90
-29.87
-26.43
-23.37
-20.73
-18.73
-17.61
-17.40
-17.88
-18.53
-18.69
-17.77
-15.51
-12.05
-7.86
-3.60
0.20
3.22
5.37
6.75
7.53
7.95
8.27
8.83
9.97
12.01
15.06
18.97
23.36
27.69
31.49
34.36
36.17
36.97
37.05
36.69
36.09
35.33
34.23
32.71
30.64
28.22
25.77
23.77
22.63
22.46
23.20
24.52
26.13
27.79
29.44
31.08
32.74
34.39
35.84
36.92
37.46
37.45
36.94
35.90
34.16
31.22
26.54
19.71
10.83
0.64
-9.61
-18.53
-25.15
-29.08
-30.72
-30.80
-30.01
-28.80
-27.26
-25.39
-23.42
-21.79
-20.91
-20.97
-21.60
-22.09
-21.82
-20.57
-18.68
-16.90
-15.93
-16.10
-17.18
-18.50
-19.31
-19.17
-18.06
-16.35
-14.50
-12.83
-11.39
-10.06
-8.64
-7.05
-5.46
-4.15
-3.42
-3.39
-3.88
-4.57
-5.22
-5.64
-5.87
-6.06
-6.39
-7.00
-7.88
-8.83
-9.48
-9.56
-8.84
-7.39
-5.48
-3.39
-1.40
0.41
1.99
3.28
4.09
4.23
3.65
2.57
1.47
0.87
1.14
2.27
3.95
5.73
7.30
8.60
9.76
11.03
12.47
13.98
15.24
15.96
15.92
15.09
13.65
11.78
9.74
7.64
5.64
3.82
2.29
1.17
0.40
-0.10
-0.54
-1.00
-1.49
-1.82
-1.82
-1.46
-0.79
-0.11
0.34
0.27
-0.45
-1.94
-4.14
-6.91
-9.94
-12.71
-14.78
-15.69
-15.32
-13.77
-11.44
-8.77
-6.23
-4.14
-2.54
-1.40
-0.38
0.78
2.29
4.25
6.52
8.75
10.42
11.08
10.45
8.63
5.99
3.05
0.33
-1.94
-3.73
-5.27
-6.76
-8.34
-9.87
-11.08
-11.62
-11.21
-9.87
-7.81
-5.51
-3.55
-2.45
-2.39
-3.24
-4.61
-5.96
-7.02
-7.69
-8.01
-8.15
-8.20
-8.20
-8.27
-8.45
-8.72
-8.89
-8.53
-7.21
-4.79
-1.55
1.76
4.27
5.38
5.09
3.84
2.49
1.59
1.35
1.53
1.80
2.05
2.54
3.75
5.86
8.52
10.66
10.84
7.90
1.72
-6.43
-14.00
-18.06
-16.52
-8.98
2.79
15.57
25.78
30.73
29.71
24.17
17.26
12.76
13.73
21.33
34.13
48.30
58.56
60.34
51.47
33.45
11.28
-8.01
-17.67
-13.62
4.13
30.98
59.18
79.96
86.55
76.56
53.03
23.43
-3.05
-18.76
-20.12
-8.18
12.72
37.43
62.10
84.59
103.41
116.17
118.99
107.34
78.14
31.78
-27.12
-90.68
-150.38
-199.72
-235.80
-259.36
-273.40
-281.13
-284.74
-285.53
-284.75
-284.56
-287.49
-294.91
-305.21
-313.23
-311.71
-294.19
-258.00
-205.64
-143.87
-80.97
-23.93
23.24
59.62
86.19
104.64
116.73
124.47
130.31
137.25
148.19
165.00
187.61
213.52
238.16
256.41
264.72
262.81
253.98
243.71
237.14
236.82
241.60
247.77
251.13
249.26
242.70
234.49
228.66
228.30
234.33
245.16
257.56
267.86
273.18
272.27
265.37
253.63
238.11
219.17
196.40
169.31
137.96
103.51
67.85
32.80
-0.53
-32.29
-63.57
-95.54
-128.37
-160.68
-189.52
-211.35
-223.49
-225.14
-217.79
-204.39
-188.12
-171.11
-154.20
-137.18
-119.76
-102.23
-85.38
-69.98
-56.21
-43.60
-31.44
-19.54
-8.53
0.51
6.63
9.71
10.41
9.89
9.22
9.13
10.06
12.40
16.50
22.32
29.29
36.24
42.06
46.40
50.08
54.74
61.74
71.30
82.09
92.14
99.98
105.62
110.52
116.33
123.45
130.08
132.76
127.82
113.58
91.35
65.10
39.98
20.21
7.72
1.86
0.24
-0.12
-1.81
-6.77
-16.67
-33.11
-57.63
-90.65
-130.02
-170.22
-203.08
-220.21
-216.52
-192.83
-156.06
-116.76
-84.80
-65.58
-58.50
-58.38
-58.88
-55.83
-48.77
-40.34
-34.44
-34.24
-41.57
-56.93
-80.47
-112.13
-151.58
-197.75
-248.55
-301.37
-353.61
-403.66
-450.94
-495.15
-534.93
-566.82
-585.30
-584.40
-560.27
-513.04
-447.61
-372.30
-296.36
-227.29
-169.45
-124.07
-90.46
-67.29
-52.96
-45.50
-41.82
-37.90
-30.22
-17.50
-1.80
12.27
20.09
20.24
15.98
14.40
23.37
47.71
87.12
136.53
187.94
233.93
269.91
294.61
309.38
316.88
319.78
320.76
322.72
327.97
338.07
352.94
370.02
384.01
388.07
375.91
344.56
295.83
234.46
166.48
96.45
26.17
-44.95
-118.09
-193.49
-269.45
-335.06
-378.64
-390.71
-368.32
-316.64
-246.41
-169.00
-93.22
-24.13
36.16
85.89
123.96
149.69
163.21
166.08
161.78
154.38
147.59
144.28
144.69
147.76
151.89
155.72
158.75
162.23
167.52
175.40
186.45
198.51
208.40
212.68
208.65
194.38
170.41
138.05
98.36
54.29
8.08
-38.53
-84.19
-127.53
-169.80
-208.79
-241.93
-266.72
-281.17
-284.51
-276.64
-258.25
-226.32
-185.03
-138.48
-90.69
-44.93
-3.63
31.28
58.92
79.28
92.97
100.30
103.15
103.30
102.33
101.52
101.55
103.07
106.60
112.33
119.62
128.53
138.77
149.62
160.54
169.64
175.22
175.74
170.07
157.33
137.73
112.26
82.23
50.16
18.19
-11.68
-37.89
-59.45
-76.16
-88.12
-95.86
-99.87
-101.15
-100.83
-99.63
-98.12
-96.65
-95.46
-94.75
-94.68
-94.99
-95.87
-97.71
-100.59
-104.55
-109.57
-115.38
-121.68
-129.24
-136.53
-142.46
-146.30
-147.07
-143.84
-135.90
-122.94
-104.99
-82.60
-56.47
-26.88
3.64
33.11
60.08
83.54
102.78
117.65
128.43
135.86
140.52
143.07
143.96
143.46
141.84
138.24
131.94
122.28
109.12
92.56
73.42
52.75
31.91
11.97
-6.34
-22.59
-36.78
-48.62
-57.56
-62.68
-62.85
-56.92
-44.50
-26.13
-2.79
22.33
45.94
66.00
81.14
90.35
93.19
89.50
78.84
61.10
36.42
6.17
-26.43
-56.85
-80.45
-93.71
-95.29
-86.97
-72.71
-57.74
-46.89
-43.23
-48.18
-61.77
-82.51
-107.46
-130.77
-147.46
-154.53
-152.18
-145.59
-138.02
-131.55
-125.55
-116.71
-100.50
-74.55
-39.60
-4.00
24.25
37.84
35.04
20.90
4.87
-2.70
5.52
31.75
72.57
121.23
169.58
212.81
246.30
266.95
273.69
266.90
247.77
217.84
179.72
136.76
89.51
43.62
2.53
-33.34
-65.71
-97.09
-129.15
-160.91
-189.44
-210.97
-222.31
-223.16
-215.72
-203.43
-189.46
-175.71
-160.92
-141.87
-115.91
-81.95
-42.21
-1.24
35.86
65.24
84.95
97.08
105.35
112.90
122.07
133.74
148.22
166.01
188.62
209.68
217.21
201.71
159.46
96.98
28.29
-32.37
-77.15
-105.53
-122.47
-130.18
-125.26
-104.50
-65.89
-12.54
46.38
97.73
130.32
124.18
77.39
0.45
-89.62
-177.83
-255.85
-320.34
-376.52
-426.28
-468.06
-495.74
-504.44
-489.86
-451.47
-392.50
-317.53
-233.53
-145.48
-56.96
31.15
117.17
202.26
285.20
361.94
426.75
474.68
505.20
521.05
527.87
530.96
539.86
560.27
592.42
631.44
670.35
703.95
729.13
744.64
714.02
620.45
471.23
294.48
120.65
-31.45
-155.31
-251.79
-324.56
-377.75
-408.47
-417.46
-407.55
-384.88
-356.39
-327.34
-300.73
-277.97
-261.65
-249.76
-241.11
-236.01
-236.94
-246.16
-264.13
-289.27
-318.76
-349.17
-374.63
-391.38
-397.78
-395.30
-386.38
-373.44
-358.15
-341.70
-324.45
-304.76
-281.25
-252.85
-221.83
-190.40
-160.18
-131.81
-105.06
-78.15
-48.59
-14.70
23.76
65.07
107.00
147.22
183.97
216.30
246.14
275.81
306.68
338.32
368.17
393.15
410.45
418.48
417.32
411.84
407.60
408.60
415.73
426.43
436.75
443.13
443.36
437.22
430.42
429.13
437.57
456.65
484.46
518.48
556.55
596.22
607.07
565.80
462.27
307.43
128.74
-43.51
-187.53
-294.08
-365.07
-408.92
-431.35
-436.02
-424.76
-399.80
-365.60
-328.37
-294.37
-268.26
-251.73
-239.93
-227.01
-208.89
-185.50
-161.03
-141.77
-133.39
-139.16
-159.54
-190.52
-225.54
-258.05
-282.32
-293.71
-288.92
-267.21
-231.64
-189.17
-147.94
-115.12
-94.70
-86.51
-87.44
-93.34
-101.35
-109.77
-117.34
-121.97
-120.85
-111.30
-91.98
-63.86
-29.83
5.31
37.18
63.10
82.29
95.52
104.24
109.85
112.87
113.32
110.89
105.58
97.88
88.85
79.86
72.17
66.58
62.94
60.69
58.97
57.13
54.73
51.73
48.29
44.66
42.26
40.12
37.91
35.37
32.56
29.78
27.61
26.76
27.85
31.35
37.09
44.77
53.52
62.17
69.47
74.43
76.52
75.62
72.18
66.77
60.39
53.92
48.10
43.61
41.04
40.95
43.47
48.70
56.56
67.50
82.17
101.14
123.97
148.52
170.93
186.22
190.32
181.65
162.01
135.86
108.54
84.21
64.85
51.16
41.81
34.24
25.52
13.14
-4.46
-27.40
-53.97
-80.42
-101.67
-112.99
-111.65
-98.61
-78.87
-60.03
-49.64
-52.12
-66.94
-89.15
-112.10
-130.31
-141.80
-148.03
-151.98
-155.79
-159.28
-160.33
-156.51
-146.90
-132.57
-116.22
-101.02
-89.84
-85.21
-89.36
-103.71
-127.53
-156.61
-182.76
-195.51
-185.36
-147.60
-84.58
-5.32
77.22
150.29
204.85
237.24
248.75
243.75
227.59
204.91
179.51
154.22
131.23
112.05
97.15
85.82
76.36
66.69
55.47
42.89
30.63
20.94
15.46
14.16
15.29
16.31
15.11
11.09
5.32
-0.20
-4.01
-6.20
-8.66
-13.99
-23.83
-37.44
-51.57
-61.63
-63.71
-56.45
-41.56
-23.20
-6.03
6.34
12.36
12.36
7.80
0.36
-8.41
-17.02
-24.11
-28.31
-28.53
-24.39
-16.40
-5.87
5.23
14.82
21.37
23.95
22.57
17.75
10.13
0.36
-11.01
-23.33
-35.84
-47.72
-58.56
-68.50
-78.16
-88.37
-99.35
-110.43
-119.99
-126.14
-127.74
-125.06
-119.75
-114.05
-109.67
-106.76
-104.15
-99.97
-92.85
-82.78
-71.15
-60.01
-51.09
-45.16
-41.83
-40.14
-39.02
-37.60
-35.26
-31.41
-25.41
-16.65
-4.88
9.69
26.31
43.80
61.10
77.34
92.23
105.93
118.94
131.79
144.66
157.17
168.51
177.76
184.11
187.36
187.77
185.80
181.52
174.22
162.40
144.47
119.49
87.75
50.91
11.08
-29.78
-70.54
-110.78
-150.27
-188.52
-224.83
-258.91
-290.82
-320.57
-346.87
-366.17
-372.98
-361.82
-330.13
-280.31
-219.55
-157.28
-101.76
-57.46
-24.60
-1.04
15.40
25.24
27.49
21.10
6.63
-13.17
-34.06
-51.83
-63.77
-69.26
-69.48
-66.27
-60.85
-53.41
-43.31
-29.86
-13.17
5.40
23.58
38.75
48.88
53.24
52.34
47.72
41.40
35.12
30.08
26.66
24.50
22.99
21.66
20.45
19.83
20.39
22.27
24.87
26.87
26.83
23.87
18.22
11.17
4.81
1.24
1.81
6.80
15.34
25.81
36.26
44.94
50.47
52.13
49.91
44.32
36.19
26.37
15.50
4.13
-7.26
-18.09
-27.52
-34.99
-40.54
-45.07
-50.49
-58.84
-71.25
-87.29
-104.67
-119.77
-128.87
-129.32
-120.27
-103.05
-80.22
-54.98
-30.41
-8.76
8.88
22.95
35.53
49.93
69.13
94.04
121.97
146.79
161.31
160.48
144.29
118.24
91.21
71.40
62.97
64.62
70.99
76.12
76.19
70.80
62.16
53.23
45.94
40.69
36.99
34.38
33.55
35.98
43.28
55.94
72.57
90.30
105.67
115.72
118.55
113.59
100.85
80.30
51.25
13.14
-32.80
-82.51
-129.57
-167.00
-189.24
-193.82
-181.58
-157.27
-127.12
-96.74
-69.61
-47.13
-29.39
-15.86
-5.63
2.70
9.03
13.32
16.35
20.00
25.96
34.10
42.09
46.71
45.92
37.75
22.03
-0.00
-26.71
-57.93
-95.77
-143.21
-201.50
-252.75
-277.35
-263.15
-214.29
-146.85
-77.44
-16.46
32.56
70.75
101.38
125.05
140.78
147.45
145.66
138.11
128.28
119.24
113.28
111.65
112.44
112.73
109.97
103.55
94.83
86.03
79.23
76.09
77.72
83.10
90.45
97.95
104.57
110.17
115.04
119.02
121.75
122.67
120.57
114.10
102.20
84.65
62.06
36.47
10.05
-14.91
-36.31
-52.85
-64.24
-71.26
-75.34
-77.99
-80.50
-83.48
-86.62
-88.99
-89.75
-88.52
-85.76
-82.58
-79.94
-78.73
-79.61
-82.96
-88.62
-95.31
-100.09
-98.86
-87.73
-65.16
-33.40
1.80
33.29
55.43
66.27
67.69
63.82
58.54
53.90
49.90
45.70
40.92
36.24
32.89
31.71
32.39
33.72
34.24
32.80
29.41
24.92
20.70
17.85
16.80
17.10
17.79
17.82
16.61
14.22
11.29
8.61
6.75
5.81
5.42
5.06
4.31
3.12
1.81
0.79
0.27
0.12
-0.12
-0.98
-2.75
-5.28
-8.10
-10.64
-12.62
-14.39
-16.80
-20.73
-26.59
-33.80
-40.77
-45.43
-45.72
-40.67
-30.73
-17.65
-3.69
9.18
19.95
28.71
36.26
43.70
51.91
61.52
72.60
84.01
92.90
94.85
85.37
62.19
27.36
-12.42
-47.71
-69.91
-74.73
-63.68
-42.94
-20.14
-1.35
10.70
16.25
17.03
14.71
10.23
4.24
-2.37
-8.24
-11.92
-12.47
-10.15
-6.51
-3.79
-4.05
-8.15
-15.21
-22.92
-28.36
-29.01
-23.72
-12.97
1.33
16.53
30.04
39.85
44.85
44.82
40.36
32.55
22.77
12.45
2.86
-5.06
-10.85
-14.57
-16.62
-17.45
-17.61
-17.39
-16.73
-15.23
-12.31
-7.61
-1.14
6.67
15.07
23.10
30.00
35.35
39.18
41.96
44.40
47.23
51.05
56.17
62.29
68.74
74.68
79.46
82.82
84.94
86.29
87.40
88.48
88.78
87.00
81.70
72.28
59.28
44.22
28.97
15.21
4.11
-4.39
-10.66
-15.27
-18.48
-20.33
-21.26
-22.12
-23.85
-27.04
-32.92
-42.77
-58.48
-81.80
-113.54
-153.13
-198.49
-246.07
-284.26
-301.56
-289.88
-248.87
-185.49
-109.91
-31.23
44.32
113.06
172.87
220.46
255.88
279.10
290.85
292.68
286.38
273.17
253.53
227.33
193.50
152.31
105.05
54.24
3.24
-45.01
-88.89
-128.08
-163.45
-197.15
-231.28
-267.32
-304.61
-340.00
-368.64
-385.82
-388.99
-379.16
-360.83
-339.61
-319.59
-300.92
-279.86
-251.03
-210.69
-159.26
-101.52
-44.53
5.40
44.84
74.05
95.67
113.10
129.20
146.15
165.55
188.60
215.12
242.34
265.03
276.97
273.41
253.24
219.51
178.17
135.84
97.37
65.00
38.70
17.37
-0.09
-14.32
-25.80
-35.15
-43.25
-50.96
-58.56
-65.37
-69.80
-69.84
-64.01
-52.27
-36.40
-19.54
-4.93
5.37
11.33
14.69
18.06
23.64
32.27
43.03
53.61
61.03
62.75
57.40
45.32
28.48
9.82
-7.55
-21.06
-29.19
-31.60
-29.00
-22.77
-14.64
-6.12
2.12
10.63
21.34
37.06
60.54
93.18
133.94
178.47
219.44
248.11
256.78
241.52
203.43
148.43
85.22
22.49
-33.36
-79.22
-114.33
-138.56
-150.87
-148.88
-130.19
-94.57
-45.89
7.61
55.14
86.86
97.55
88.75
67.69
44.12
26.58
19.96
25.53
42.44
68.74
101.54
136.23
166.29
184.33
184.99
167.15
134.77
95.00
54.90
18.81
-12.45
-40.29
-66.39
-91.02
-112.84
-129.47
-138.25
-137.23
-125.71
-105.14
-79.61
-55.44
-39.82
-38.67
-54.65
-86.51
-130.07
-179.96
-231.36
-280.69
-324.86
-360.28
-382.36
-386.22
-368.29
-328.37
-270.17
-200.69
-128.56
-62.03
-7.36
31.94
55.23
64.23
62.02
52.60
40.58
30.53
26.00
28.25
35.48
43.07
44.97
35.75
12.95
-17.85
-46.66
-62.10
-57.30
-33.72
0.57
36.67
69.01
96.48
119.83
141.25
160.09
172.93
175.55
164.95
140.78
105.55
64.14
22.74
-11.59
-31.83
-33.77
-19.25
3.49
23.72
33.72
32.23
23.91
15.66
12.22
13.94
17.92
21.08
22.36
23.21
26.48
34.71
48.97
68.43
91.25
115.63
140.84
166.68
191.93
213.39
226.14
225.29
208.68
177.92
137.63
94.28
53.95
20.76
-3.65
-19.57
-28.63
-32.83
-35.34
-40.90
-54.18
-78.33
-113.57
-157.04
-203.78
-248.71
-287.37
-310.47
-310.91
-285.76
-238.37
-176.76
-109.70
-43.50
15.01
66.50
110.52
143.84
162.46
162.87
143.49
104.02
48.34
-15.97
-78.27
-128.34
-159.24
-168.62
-158.94
-135.68
-104.72
-69.99
-33.19
5.87
47.09
89.10
129.93
167.94
203.18
237.71
274.80
316.23
360.53
401.57
429.76
435.63
413.56
364.38
295.35
217.65
142.02
75.67
20.76
-24.29
-62.39
-95.60
-124.38
-148.14
-166.14
-178.43
-186.08
-190.73
-194.08
-197.48
-201.87
-208.31
-218.44
-234.53
-259.34
-294.70
-339.64
-388.79
-432.65
-460.17
-462.69
-437.37
-387.83
-322.97
-253.60
-188.89
-134.04
-89.92
-54.61
-25.47
-0.44
22.54
44.85
67.14
89.28
110.46
130.03
147.84
164.13
179.61
196.66
218.08
246.24
281.64
321.84
361.49
393.12
409.29
399.71
361.61
303.01
241.23
193.82
169.73
167.35
178.76
195.54
212.90
230.69
248.96
266.16
278.54
281.69
272.50
250.19
215.66
170.54
118.19
60.04
-3.41
-72.03
-144.67
-217.97
-286.53
-343.80
-383.64
-401.39
-398.19
-378.73
-350.00
-319.29
-292.37
-272.70
-261.27
-256.89
-256.93
-262.00
-273.20
-291.48
-316.70
-347.76
-383.46
-423.45
-468.33
-499.03
-502.26
-471.19
-407.82
-320.70
-220.91
-120.02
-29.01
43.66
94.03
120.12
124.65
113.30
92.39
67.03
40.44
14.96
-7.84
-24.24
-33.60
-36.51
-34.57
-29.44
-22.57
-14.84
-6.50
3.17
15.08
27.99
40.20
50.02
56.45
59.52
60.54
57.73
51.43
42.77
32.07
19.51
5.25
-10.24
-26.23
-41.78
-55.86
-66.99
-73.97
-76.40
-74.52
-69.08
-61.13
-51.84
-42.40
-33.82
-26.26
-19.46
-12.90
-5.96
1.97
11.23
21.66
32.63
43.30
53.30
62.73
72.21
82.71
95.20
110.28
127.77
146.84
166.28
185.13
202.95
219.91
236.83
254.92
275.57
299.80
327.58
357.21
385.12
406.37
415.91
410.38
389.50
356.39
316.67
276.60
241.21
213.11
192.49
177.90
167.26
158.69
150.79
142.51
133.01
121.62
107.91
91.89
74.11
55.68
37.96
22.29
9.47
-0.47
-8.24
-15.01
-21.83
-29.12
-36.45
-42.74
-46.76
-47.68
-45.34
-40.35
-33.76
-26.80
-20.53
-15.62
-12.39
-10.78
-10.54
-11.33
-12.90
-15.17
-18.10
-21.56
-25.26
-28.60
-30.82
-31.27
-29.64
-26.18
-21.72
-17.42
-14.48
-13.81
-15.81
-20.24
-26.40
-33.22
-39.46
-43.91
-45.56
-43.86
-38.95
-31.70
-23.55
-16.04
-10.18
-6.15
-3.27
-0.33
3.77
9.71
17.38
26.02
34.27
40.28
41.86
36.85
23.72
2.32
-25.63
-56.80
-87.15
-113.17
-132.82
-145.71
-152.48
-153.94
-150.51
-142.39
-130.10
-115.09
-99.66
-86.22
-76.39
-70.33
-66.93
-64.41
-61.31
-56.90
-51.18
-44.41
-36.82
-28.55
-19.81
-11.15
-3.35
2.91
7.38
10.30
12.32
14.03
15.83
17.91
20.41
23.47
27.19
31.40
35.60
39.15
41.67
43.22
44.25
45.20
46.25
47.12
47.47
47.26
46.92
47.31
49.31
53.50
59.92
68.32
78.38
89.84
102.60
116.44
131.06
146.05
161.13
176.16
191.22
206.33
221.37
236.04
249.96
262.83
274.32
283.82
290.14
291.54
286.10
272.42
250.28
220.91
186.75
150.68
115.22
82.05
52.03
25.47
2.44
-17.21
-34.04
-49.29
-64.80
-82.68
-104.59
-131.12
-161.54
-194.22
-227.29
-259.69
-291.27
-322.77
-354.98
-388.02
-421.18
-453.07
-482.35
-508.09
-529.53
-545.63
-554.99
-556.67
-551.23
-541.18
-529.81
-519.14
-508.04
-492.32
-466.96
-429.34
-381.49
-329.86
-282.63
-246.22
-222.92
-210.97
-206.64
-206.70
-209.63
-215.26
-223.33
-232.52
-240.20
-243.21
-238.90
-225.96
-204.96
-177.84
-147.23
-115.48
-83.96
-52.95
-21.69
10.89
45.42
81.57
117.86
152.12
181.88
205.48
222.63
234.43
243.15
251.66
262.42
276.59
293.52
311.14
326.80
338.04
343.20
341.28
331.59
314.10
290.34
264.27
241.87
228.98
227.95
235.96
246.02
250.73
246.80
236.82
227.45
224.86
230.48
239.86
245.77
243.14
231.92
216.71
203.19
193.80
186.05
174.88
156.92
134.20
114.52
107.75
120.26
150.54
189.24
223.75
244.49
249.56
244.70
238.91
238.54
243.89
249.55
248.60
237.26
217.15
193.99
173.98
160.48
152.80
147.53
140.42
128.28
109.57
83.91
51.52
13.07
-29.43
-71.46
-105.62
-124.03
-121.42
-98.24
-61.77
-24.03
2.28
8.43
-7.47
-40.98
-85.41
-135.29
-188.14
-243.78
-302.06
-361.42
-418.94
-471.30
-510.00
-526.62
-515.49
-476.95
-417.37
-345.54
-269.10
-193.46
-122.09
-57.68
-3.52
37.66
65.40
81.27
88.09
88.92
85.67
79.02
68.51
52.08
26.75
-10.47
-60.48
-118.33
-174.26
-216.91
-237.39
-232.57
-206.97
-170.78
-135.53
-109.23
-95.22
-89.74
-88.23
-87.79
-87.56
-88.02
-89.25
-90.29
-89.15
-84.04
-74.81
-63.41
-52.69
-44.81
-39.79
-35.44
-28.64
-17.14
-1.23
15.89
29.07
33.36
26.22
8.60
-15.23
-39.00
-56.72
-65.00
-64.41
-59.53
-56.78
-61.48
-75.46
-96.14
-117.75
-134.08
-140.96
-137.66
-126.49
-111.23
-95.19
-80.57
-68.77
-61.05
-58.90
-63.60
-75.45
-92.95
-112.99
-131.40
-144.30
-149.16
-145.25
-133.77
-117.20
-98.39
-79.65
-62.31
-46.48
-31.58
-16.85
-1.89
12.94
26.79
38.69
48.08
55.24
61.41
68.39
78.04
91.65
109.39
130.38
153.08
175.90
197.70
218.20
237.79
257.24
277.52
299.58
324.22
351.55
380.39
407.71
428.98
439.45
435.83
417.78
388.14
352.02
314.75
280.07
249.27
221.43
194.69
167.57
139.86
112.59
87.48
66.09
49.19
36.78
28.36
23.41
21.76
23.33
27.46
32.45
35.72
34.66
27.96
16.30
2.14
-11.47
-22.33
-29.97
-35.62
-41.15
-47.81
-55.46
-62.67
-67.44
-68.22
-64.68
-57.75
-49.22
-40.94
-34.14
-29.11
-25.35
-22.06
-18.60
-14.87
-11.30
-8.60
-7.38
-8.00
-10.32
-13.80
-17.65
-21.07
-23.53
-24.95
-25.80
-26.74
-28.30
-30.45
-32.57
-33.88
-34.01
-33.41
-33.17
-34.45
-37.64
-41.90
-45.49
-46.47
-43.76
-37.64
-29.65
-21.67
-15.07
-9.97
-5.39
0.11
7.62
17.30
28.37
39.39
48.97
56.20
61.04
64.30
67.32
71.61
78.24
87.60
99.19
111.81
123.92
134.07
141.27
145.24
146.53
146.44
146.44
147.35
148.39
146.83
138.52
119.16
86.09
39.74
-15.93
-74.04
-126.50
-166.00
-188.00
-191.83
-180.71
-160.89
-139.85
-124.38
-118.89
-124.71
-140.30
-162.19
-186.23
-208.33
-224.98
-233.51
-232.46
-221.94
-203.82
-181.31
-158.01
-136.62
-117.96
-100.86
-82.91
-61.66
-35.86
-6.06
25.84
57.34
86.34
111.82
133.82
153.26
171.29
188.69
205.16
218.88
226.51
223.91
207.55
176.14
131.65
79.15
25.56
-22.47
-60.33
-86.34
-101.43
-108.03
-108.93
-106.61
-103.25
-100.63
-100.06
-102.04
-106.02
-110.43
-113.28
-113.03
-109.17
-102.49
-94.59
-87.11
-81.21
-77.20
-74.71
-72.97
-71.06
-68.07
-63.19
-55.84
-45.96
-34.16
-21.68
-10.18
-1.24
4.17
5.93
4.72
1.65
-2.33
-6.58
-10.79
-14.82
-18.63
-22.24
-25.87
-30.04
-35.36
-42.30
-50.75
-59.69
-67.25
-71.12
-69.26
-60.63
-45.60
-25.84
-3.90
17.57
36.39
51.23
61.52
67.37
69.20
67.66
63.61
57.99
51.82
46.03
41.33
38.07
36.31
35.77
36.00
36.45
36.58
36.14
35.16
33.95
32.99
32.62
32.92
33.75
34.84
35.98
37.10
38.15
39.00
39.35
38.84
37.25
34.59
31.27
27.85
24.88
22.57
20.77
19.16
17.38
15.16
12.41
9.22
5.78
2.42
-0.48
-2.65
-4.05
-5.00
-6.06
-7.82
-10.55
-13.98
-17.33
-19.59
-20.02
-18.44
-15.33
-11.50
-7.52
-3.38
1.65
8.86
19.62
34.81
54.42
77.10
100.28
120.53
134.30
138.83
132.93
117.54
95.51
71.06
48.49
31.11
20.25
15.26
13.94
13.65
12.30
8.84
3.15
-4.50
-14.02
-25.83
-40.68
-59.03
-80.52
-103.64
-126.00
-144.90
-158.20
-164.88
-165.28
-160.77
-153.04
-143.51
-132.99
-122.12
-111.78
-103.45
-98.96
-99.52
-104.91
-112.99
-120.26
-122.80
-117.68
-103.82
-82.34
-56.08
-28.68
-3.51
17.17
32.48
42.86
49.49
53.81
56.99
59.76
62.58
65.72
69.34
73.40
77.54
81.11
83.40
83.96
82.76
80.28
77.23
74.36
72.09
70.36
68.66
66.22
62.39
56.97
50.34
43.27
36.72
31.53
28.20
26.69
26.49
26.75
26.58
25.35
22.93
19.68
16.34
13.65
12.06
11.58
11.80
12.14
12.13
11.55
10.43
8.96
7.44
6.15
5.29
4.92
4.89
4.95
4.79
4.27
3.39
2.31
1.22
0.27
-0.52
-1.14
-1.48
-1.38
-0.66
0.63
2.10
3.07
2.88
1.17
-1.95
-5.88
-9.87
-13.32
-16.06
-18.25
-20.24
-22.15
-23.86
-25.10
-25.64
-25.54
-25.12
-24.76
-24.66
-24.70
-24.52
-23.73
-22.18
-20.09
-17.82
-15.67
-13.61
-11.28
-8.20
-4.05
1.09
6.70
12.11
16.65
20.06
22.40
23.97
25.20
26.42
27.86
29.69
32.05
35.02
38.50
42.10
45.12
46.78
46.49
44.03
39.62
33.85
27.33
20.70
14.47
9.02
4.56
1.07
-1.72
-4.17
-6.51
-8.86
-11.12
-13.23
-15.28
-17.48
-20.05
-23.14
-26.80
-31.18
-36.54
-43.13
-50.91
-59.26
-67.00
-72.84
-75.82
-75.74
-73.15
-69.03
-64.22
-59.22
-54.16
-48.99
-43.73
-38.44
-33.14
-27.65
-21.58
-14.55
-6.43
2.39
11.13
18.86
24.89
28.94
31.12
31.67
30.80
28.70
25.69
22.46
19.99
19.28
20.89
24.73
30.11
35.99
41.43
45.87
49.13
51.26
52.39
52.48
51.39
48.95
45.12
40.03
33.97
27.28
20.24
13.07
5.86
-1.19
-7.88
-13.86
-18.77
-22.24
-24.06
-24.35
-23.43
-21.85
-20.19
-18.91
-18.26
-18.18
-18.54
-19.23
-20.37
-22.24
-25.02
-28.59
-32.45
-35.94
-38.51
-40.04
-40.88
-41.58
-42.65
-44.23
-46.11
-47.85
-49.03
-49.27
-48.21
-45.50
-40.94
-34.62
-27.07
-19.20
-12.00
-6.23
-2.14
0.54
2.42
4.14
6.05
8.16
10.11
11.38
11.51
10.38
8.35
6.33
5.62
7.24
11.53
17.78
24.47
29.67
31.84
30.25
25.02
17.05
7.70
-0.95
-6.07
-4.62
5.33
23.12
44.80
64.11
74.85
73.62
61.42
43.21
25.44
13.18
8.28
9.40
13.75
18.95
23.84
28.28
32.00
33.94
32.53
26.52
15.97
2.49
-11.10
-22.07
-28.71
-30.94
-29.98
-27.59
-25.22
-23.58
-22.57
-21.54
-19.75
-16.70
-12.37
-7.27
-2.30
1.51
3.33
2.96
0.91
-1.72
-3.62
-3.81
-2.02
1.23
4.90
7.73
8.84
7.98
5.51
2.13
-1.57
-5.40
-9.61
-14.64
-20.78
-27.97
-35.71
-43.27
-50.03
-55.61
-60.11
-64.23
-69.16
-76.56
-88.19
-105.16
-127.03
-151.15
-172.64
-185.44
-184.05
-165.14
-128.60
-77.58
-17.47
45.47
105.17
156.56
196.10
222.28
235.81
239.33
236.36
229.96
221.56
210.56
195.01
172.94
143.53
107.67
67.54
26.03
-13.88
-49.28
-77.31
-95.23
-100.98
-94.04
-75.93
-50.38
-22.57
2.11
19.43
27.29
25.99
17.52
4.42
-11.13
-27.90
-45.15
-61.66
-74.93
-80.93
-75.23
-54.65
-18.98
28.48
81.75
134.02
179.78
216.17
243.20
262.76
277.44
289.49
300.56
311.95
324.91
340.23
357.44
374.10
385.94
387.82
375.64
348.16
307.83
260.22
212.08
168.91
133.30
104.68
80.43
57.57
34.02
8.88
-18.19
-47.51
-79.49
-114.10
-150.28
-185.89
-218.55
-246.82
-270.96
-292.83
-314.68
-337.97
-362.89
-388.96
-415.93
-444.00
-472.76
-499.65
-519.37
-524.81
-509.87
-472.38
-415.26
-345.29
-270.16
-195.98
-126.52
-64.58
-13.68
21.54
36.89
31.27
8.30
-24.09
-56.39
-80.70
-92.83
-92.23
-80.53
-60.02
-32.95
-1.80
30.19
59.09
81.12
93.84
96.76
91.01
78.40
60.68
39.07
14.69
-10.93
-35.38
-55.69
-69.11
-74.08
-70.84
-61.34
-48.38
-34.59
-21.70
-10.17
0.40
10.73
21.29
32.09
42.85
53.34
63.60
73.91
84.53
95.32
105.55
114.20
120.38
123.63
124.02
121.86
117.43
111.05
103.21
94.78
86.73
79.52
72.57
64.25
52.58
36.24
15.23
-9.21
-35.34
-61.58
-86.80
-109.97
-129.73
-144.28
-151.92
-151.78
-144.44
-131.63
-115.51
-97.77
-79.28
-60.21
-40.62
-20.80
-1.16
17.83
35.78
52.43
67.58
80.91
92.08
100.90
107.20
110.88
111.84
109.99
105.49
98.89
90.97
82.88
76.30
73.63
78.02
92.46
118.09
152.56
189.24
218.34
229.74
216.24
176.32
114.84
41.52
-31.74
-94.15
-138.32
-161.49
-165.88
-158.17
-147.76
-143.92
-152.91
-175.77
-207.98
-241.16
-265.99
-274.95
-264.03
-233.16
-185.65
-127.55
-66.86
-12.26
28.73
51.98
58.52
54.30
48.03
47.69
57.54
77.42
104.11
133.78
163.92
193.80
223.60
253.16
281.45
307.22
329.83
349.73
367.97
384.61
397.97
404.46
399.44
379.02
341.83
290.08
229.20
166.41
107.53
56.08
12.52
-25.13
-59.45
-92.38
-124.84
-157.41
-190.73
-226.60
-265.41
-305.09
-341.25
-369.05
-386.14
-394.25
-398.21
-402.77
-410.99
-421.42
-429.96
-433.24
-431.48
-429.00
-431.93
-444.83
-457.68
-458.62
-436.21
-385.05
-308.91
-218.44
-125.84
-39.70
36.70
103.87
162.03
210.79
248.45
273.07
284.24
283.45
273.59
258.11
239.55
217.57
190.38
156.08
114.01
65.94
16.20
-28.97
-62.69
-79.73
-76.67
-54.11
-16.78
27.49
69.59
100.91
114.51
111.24
96.40
74.84
52.13
33.38
21.74
17.89
20.02
24.85
29.26
31.57
32.58
35.32
43.55
59.79
84.68
117.39
156.28
199.20
242.30
279.63
303.75
307.73
287.89
245.76
187.61
122.05
57.46
0.27
-44.89
-74.21
-84.24
-73.06
-41.81
4.43
57.85
111.01
159.54
202.97
242.57
277.92
304.36
313.65
297.56
252.45
182.16
96.81
9.10
-70.84
-138.17
-193.37
-239.50
-278.86
-311.31
-334.99
-349.00
-354.88
-356.33
-356.69
-356.26
-351.56
-337.51
-311.14
-274.72
-235.71
-203.08
-182.43
-172.47
-165.54
-151.63
-123.76
-81.02
-28.20
27.49
80.66
129.24
172.92
209.45
234.92
242.90
228.64
193.32
145.33
97.53
61.47
41.84
34.20
27.35
9.20
-26.92
-78.73
-136.00
-185.10
-214.51
-218.70
-199.04
-162.22
-117.58
-74.09
-38.10
-12.46
3.50
12.98
20.30
29.40
43.00
62.30
87.25
116.64
147.99
177.48
200.08
210.78
206.37
186.86
155.88
119.77
85.56
59.02
43.48
39.67
46.43
61.74
83.51
109.88
139.32
170.27
200.84
228.37
249.69
261.57
261.76
249.66
226.57
195.09
158.23
118.72
78.47
39.04
1.72
-32.49
-63.45
-92.02
-119.46
-146.34
-171.40
-191.93
-204.99
-209.37
-206.56
-200.00
-193.15
-187.67
-183.46
-180.01
-178.21
-180.92
-191.34
-210.45
-235.04
-258.30
-272.45
-272.36
-257.44
-231.36
-199.78
-168.01
-139.52
-115.80
-96.99
-82.31
-70.38
-59.46
-47.97
-35.29
-22.06
-9.88
-0.09
7.48
15.07
26.20
43.94
69.12
99.37
129.92
155.34
171.69
177.86
175.52
167.92
158.22
148.54
139.65
131.81
125.47
121.52
120.86
123.38
127.50
130.22
128.37
119.79
104.45
84.53
63.71
45.99
34.44
30.58
34.19
43.87
57.61
73.45
89.63
104.43
116.17
123.17
124.31
119.54
110.00
97.45
83.51
68.90
53.32
36.19
17.45
-1.60
-18.42
-30.12
-34.57
-31.13
-20.60
-4.80
14.12
33.69
51.08
62.81
65.15
55.15
31.67
-3.92
-48.01
-95.53
-141.20
-180.44
-210.21
-229.14
-237.55
-237.10
-230.19
-218.97
-204.32
-185.80
-161.97
-131.90
-96.10
-57.45
-21.03
7.18
21.94
20.50
3.23
-26.12
-61.44
-95.53
-122.02
-137.14
-140.18
-132.47
-115.17
-88.25
-51.72
-7.99
36.18
70.31
83.49
68.75
26.59
-32.09
-89.46
-126.87
-133.35
-110.68
-70.46
-25.70
15.44
50.72
81.58
109.59
134.02
152.56
163.45
167.25
167.23
167.97
172.93
183.09
197.52
211.97
221.28
221.68
212.12
194.12
170.18
142.22
110.20
74.98
37.20
-2.32
-41.55
-77.17
-105.51
-124.19
-133.15
-134.36
-131.09
-127.00
-125.76
-129.93
-140.09
-153.86
-166.07
-169.63
-157.77
-130.47
-90.45
-46.90
-11.97
5.02
2.19
-13.85
-31.12
-37.95
-28.36
-3.57
28.89
59.75
81.92
91.92
88.74
72.13
42.39
0.94
-47.36
-94.21
-129.18
-143.53
-133.94
-104.76
-66.31
-30.64
-7.01
1.50
-2.68
-13.81
-26.27
-36.56
-43.93
-48.95
-52.41
-54.78
-56.11
-56.78
-57.51
-59.63
-63.46
-68.76
-74.60
-79.53
-82.11
-81.31
-76.95
-69.72
-60.98
-51.82
-43.16
-35.47
-28.78
-22.98
-18.10
-14.50
-12.80
-13.80
-17.57
-23.83
-31.90
-40.81
-49.55
-57.36
-63.82
-68.75
-72.20
-73.72
-73.03
-70.01
-64.74
-57.53
-48.77
-38.59
-26.51
-14.31
-2.22
10.09
23.03
36.89
51.53
66.46
81.08
94.99
108.06
121.00
134.62
149.53
165.99
183.78
202.27
220.76
238.86
256.78
276.04
298.87
327.67
363.82
406.37
450.74
488.83
510.61
507.13
473.91
412.64
330.93
240.13
151.85
74.76
12.93
-34.00
-69.36
-97.74
-123.63
-150.13
-177.85
-204.03
-222.70
-226.17
-207.56
-163.91
-98.08
-18.82
61.57
130.91
180.21
205.33
206.76
188.32
155.44
114.00
69.50
26.81
-10.08
-38.58
-58.29
-71.36
-82.23
-96.22
-117.54
-147.80
-185.20
-224.34
-256.83
-274.22
-271.20
-247.84
-208.93
-160.99
-109.78
-59.25
-11.96
30.00
64.65
90.96
108.93
119.80
125.81
129.18
131.16
131.42
128.50
120.69
107.14
88.42
66.71
45.64
28.30
16.02
7.97
1.42
-7.42
-22.04
-44.23
-72.48
-101.37
-122.43
-126.50
-107.17
-64.13
-4.27
59.97
114.75
149.69
160.68
150.00
123.89
89.40
52.01
15.39
-17.61
-43.77
-59.36
-61.32
-49.05
-25.38
3.60
30.11
46.84
48.80
34.78
8.05
-24.02
-51.28
-63.18
-51.98
-15.71
40.28
104.36
162.05
200.75
213.56
200.83
168.68
125.58
79.13
34.18
-7.00
-43.33
-73.56
-96.15
-109.88
-114.95
-113.66
-109.98
-108.11
-111.04
-119.67
-132.78
-147.77
-161.85
-172.85
-179.53
-181.57
-179.07
-172.21
-161.01
-145.36
-125.37
-101.61
-75.55
-49.28
-25.43
-6.68
4.62
6.52
-2.97
-26.21
-65.80
-123.06
-196.41
-279.57
-361.99
-431.36
-477.44
-495.40
-487.16
-460.09
-423.80
-386.65
-353.30
-324.11
-296.34
-266.29
-231.24
-190.87
-147.53
-105.27
-68.34
-39.43
-18.73
-4.19
7.18
18.41
31.89
49.35
71.76
98.57
126.58
149.76
160.82
154.70
131.65
98.64
67.25
49.41
52.69
78.06
120.82
173.87
231.17
288.76
343.48
390.68
423.31
433.50
416.02
371.80
308.54
238.44
173.09
118.90
75.02
34.52
-11.08
-66.73
-130.30
-192.48
-239.92
-260.82
-250.10
-212.10
-159.85
-111.01
-82.14
-83.50
-116.43
-173.33
-240.61
-302.96
-347.42
-366.47
-358.84
-328.65
-283.09
-229.93
-175.34
-123.26
-75.90
-34.43
0.26
27.78
48.93
66.06
82.61
101.99
126.08
154.52
185.29
215.91
245.08
273.07
300.61
327.07
349.13
361.02
356.61
332.25
288.65
230.56
164.67
96.69
29.95
-33.91
-92.86
-142.75
-177.28
-190.39
-179.19
-146.03
-98.19
-45.33
4.09
45.44
78.67
106.83
133.32
159.85
185.73
208.72
226.80
239.42
247.66
253.19
257.34
260.05
260.64
258.63
254.64
250.32
247.45
246.69
246.11
242.16
230.32
207.46
172.96
128.77
78.65
26.75
-23.11
-69.08
-110.02
-145.60
-174.96
-197.34
-212.49
-221.65
-227.60
-233.33
-241.96
-248.30
-244.50
-221.55
-174.26
-104.35
-20.05
63.90
141.36
208.86
264.15
304.58
327.79
329.89
308.62
264.36
200.12
121.41
33.75
-57.57
-148.84
-237.99
-324.73
-408.89
-488.76
-559.75
-614.10
-644.23
-645.02
-616.73
-565.37
-501.16
-434.88
-374.35
-322.82
-278.96
-239.56
-201.12
-161.29
-119.03
-74.45
-28.29
18.19
63.25
105.23
142.71
175.35
204.29
232.20
262.56
298.21
339.52
382.95
421.08
444.34
444.31
417.13
365.51
298.27
227.66
165.31
118.74
89.59
74.07
65.12
55.14
38.18
10.98
-27.05
-74.82
-130.64
-193.00
-260.39
-330.25
-397.86
-456.23
-497.48
-515.28
-507.51
-477.23
-431.77
-379.97
-329.01
-282.41
-239.96
-199.64
-159.95
-121.39
-86.12
-56.47
-33.23
-14.81
2.07
20.94
44.00
71.33
101.10
130.70
157.96
182.08
203.70
224.42
245.95
269.16
293.81
318.88
343.37
367.23
391.32
416.58
442.39
465.61
480.60
481.04
462.49
424.09
368.79
301.92
229.59
157.72
92.54
41.02
10.65
7.55
33.50
83.89
148.03
212.14
263.80
295.50
305.61
296.98
274.00
240.42
198.87
151.85
103.15
57.96
21.72
-1.82
-12.30
-13.07
-9.97
-9.18
-15.47
-31.10
-55.65
-85.96
-116.73
-141.68
-155.58
-156.51
-147.36
-135.82
-131.77
-143.06
-171.46
-210.89
-249.23
-273.18
-273.16
-246.26
-195.89
-128.90
-52.40
27.68
105.87
175.80
229.05
257.54
257.04
230.10
186.21
138.86
100.51
78.34
72.98
78.06
84.94
86.13
77.50
58.42
30.47
-4.27
-44.32
-88.46
-138.54
-195.96
-260.56
-329.63
-397.95
-458.92
-506.67
-537.39
-549.01
-545.51
-532.39
-515.45
-499.76
-489.58
-488.85
-501.14
-528.44
-552.20
-555.73
-526.07
-461.26
-372.22
-277.04
-192.76
-129.54
-95.04
-80.83
-78.89
-82.30
-86.25
-87.48
-83.36
-71.73
-49.52
-16.69
26.05
73.72
121.44
165.41
203.60
235.47
260.89
279.52
290.31
293.38
287.64
273.27
252.24
228.36
206.77
192.35
187.82
191.51
197.45
194.90
173.25
126.88
58.86
-18.86
-89.42
-137.48
-155.29
-144.47
-114.82
-78.81
-46.44
-22.51
-7.01
2.29
7.39
8.82
6.65
1.55
-4.14
-6.96
-4.20
4.57
17.07
29.40
38.10
42.37
44.20
47.42
55.46
69.43
87.92
108.27
128.68
149.26
171.50
195.89
219.89
237.54
241.13
224.38
184.97
125.45
52.60
-24.30
-95.40
-151.88
-187.13
-198.29
-186.93
-159.09
-123.72
-89.91
-64.08
-48.26
-40.31
-35.74
-30.19
-20.69
-6.11
13.45
37.55
65.75
97.59
132.63
170.62
211.15
254.06
299.05
345.10
389.85
429.33
458.42
472.57
470.22
453.25
426.74
396.84
368.19
342.40
317.91
291.92
262.96
233.64
209.01
194.21
191.49
198.26
207.76
211.53
202.38
177.13
139.38
96.64
58.30
33.10
27.04
42.64
78.49
129.06
185.28
238.22
278.55
299.26
297.19
273.34
232.87
183.31
132.21
71.55
-1.59
-85.92
-174.17
-255.35
-320.06
-363.37
-385.66
-391.33
-385.81
-371.57
-350.25
-322.33
-286.95
-247.39
-208.49
-175.61
-153.84
-146.93
-155.20
-177.89
-215.14
-263.58
-318.85
-374.56
-422.36
-453.51
-461.55
-443.88
-408.15
-360.51
-307.20
-253.87
-203.48
-156.62
-113.25
-74.08
-40.37
-13.76
6.46
22.97
38.98
55.97
73.90
90.49
102.49
107.17
103.16
92.61
80.31
71.24
69.42
77.88
97.80
128.67
167.96
210.08
246.35
269.18
273.46
259.74
235.95
213.06
199.47
199.61
207.49
215.50
220.53
221.77
218.61
210.19
192.24
160.56
112.19
45.19
-37.86
-127.55
-213.60
-288.47
-347.17
-387.81
-410.69
-407.65
-373.75
-325.29
-270.33
-205.86
-132.97
-55.42
20.40
86.30
133.48
152.90
139.79
98.89
40.43
-22.61
-75.79
-107.04
-110.06
-85.96
-43.86
2.78
42.10
64.24
63.66
42.34
9.45
-21.59
-37.56
-30.13
2.70
58.30
129.14
204.68
274.12
327.48
357.06
358.70
332.72
284.80
225.37
165.71
114.69
77.14
53.83
43.09
42.52
50.11
64.44
85.04
111.23
141.89
175.34
209.21
240.57
266.09
282.64
287.73
280.25
260.66
231.01
194.31
153.82
112.33
71.65
32.45
-5.28
-41.90
-77.58
-111.98
-144.58
-175.00
-203.45
-230.91
-258.77
-288.24
-319.73
-352.53
-385.01
-415.14
-441.33
-462.86
-480.06
-494.16
-507.07
-521.14
-538.67
-561.04
-587.40
-613.82
-633.65
-639.44
-625.97
-592.66
-544.29
-489.37
-436.93
-393.53
-361.71
-340.52
-327.39
-319.76
-315.84
-314.19
-313.01
-309.75
-301.76
-287.09
-265.38
-237.90
-207.13
-175.64
-145.22
-116.52
-89.13
-62.28
-35.46
-8.96
16.04
37.89
55.07
66.73
72.98
74.68
73.07
69.26
63.82
56.88
48.27
37.95
26.40
14.72
4.43
-2.90
-6.10
-4.81
0.61
9.20
19.92
32.01
45.30
60.08
76.66
95.00
114.36
133.39
150.51
164.55
175.31
183.78
191.78
201.29
213.55
228.56
245.14
261.62
276.60
289.75
301.83
314.46
329.47
348.48
372.67
402.41
436.59
471.75
501.88
519.28
516.99
491.19
442.91
377.63
303.04
226.04
150.54
77.51
6.68
-61.05
-122.32
-171.69
-203.50
-214.23
-203.95
-176.58
-138.71
-97.84
-60.40
-30.68
-11.00
-2.17
-4.12
-15.93
-35.20
-57.65
-77.38
-88.21
-85.41
-67.39
-36.14
3.54
46.21
87.93
127.46
165.89
204.95
245.13
284.15
317.03
337.39
339.63
320.89
282.07
227.51
163.73
97.70
35.37
-19.19
-64.31
-100.28
-128.69
-151.36
-169.46
-183.18
-191.94
-195.26
-193.36
-187.28
-178.46
-168.23
-157.38
-146.21
-134.82
-123.10
-110.57
-95.91
-76.86
-50.70
-15.21
30.11
83.22
139.79
194.38
242.21
280.58
309.34
329.98
344.12
351.89
351.62
340.33
315.51
276.47
225.04
165.30
102.21
40.33
-17.23
-69.03
-115.10
-156.28
-194.00
-230.17
-266.97
-306.34
-348.66
-391.56
-429.55
-455.18
-461.61
-445.34
-407.79
-354.63
-293.74
-232.15
-174.18
-121.23
-73.01
-29.12
10.36
45.17
76.07
105.49
137.34
175.33
220.68
270.44
317.11
350.60
361.59
344.77
300.86
236.23
160.80
85.30
18.78
-32.71
-66.56
-83.64
-87.81
-85.09
-82.14
-84.28
-93.87
-109.58
-127.20
-141.21
-146.58
-139.90
-120.03
-88.31
-48.32
-5.70
32.75
60.15
71.17
63.37
38.10
0.58
-41.03
-77.21
-99.32
-101.82
-83.81
-49.19
-5.56
38.22
74.40
97.95
107.10
102.84
88.27
67.63
45.68
26.65
13.35
6.47
4.73
6.06
9.30
15.41
27.29
48.19
79.67
120.02
164.18
205.09
235.67
250.57
247.04
225.01
186.59
135.43
76.15
13.32
-49.51
-110.50
-169.44
-226.31
-279.55
-325.01
-356.64
-368.49
-357.49
-324.87
-275.59
-216.49
-154.18
-94.03
-40.65
1.26
26.99
33.17
19.74
-9.07
-45.50
-80.75
-107.89
-123.62
-128.37
-124.80
-116.14
-104.90
-92.92
-81.79
-73.02
-67.74
-66.09
-66.75
-67.39
-65.28
-58.11
-44.49
-24.08
2.39
32.94
64.17
91.32
109.72
116.65
113.31
105.00
99.10
101.31
112.43
128.11
141.43
146.94
143.49
134.18
123.78
115.52
109.25
102.22
91.69
77.10
60.62
45.90
36.08
32.66
36.24
46.93
64.81
89.51
119.15
149.96
176.84
195.07
202.33
200.31
193.34
186.44
183.22
184.55
188.57
191.98
190.92
183.07
169.80
154.18
140.11
130.84
128.07
131.94
141.34
153.87
168.10
186.16
210.80
244.90
290.18
346.19
409.92
475.57
533.61
574.84
595.26
594.33
575.42
544.20
506.45
466.77
427.96
389.67
331.93
245.10
129.80
-1.54
-129.93
-238.23
-317.51
-359.25
-374.46
-375.94
-370.39
-361.36
-350.99
-342.09
-341.16
-354.28
-380.04
-412.46
-441.93
-459.25
-461.79
-450.97
-430.92
-405.14
-376.14
-344.73
-310.59
-273.51
-236.83
-203.67
-175.48
-153.83
-138.76
-128.39
-119.99
-112.57
-107.17
-106.05
-111.03
-119.82
-129.98
-134.56
-127.85
-109.53
-86.95
-72.53
-77.97
-108.37
-159.71
-216.59
-259.40
-271.48
-246.49
-190.44
-117.07
-39.83
34.18
103.57
169.03
228.90
279.74
316.31
334.36
332.31
311.82
277.20
232.89
181.97
124.20
57.11
-22.69
-114.63
-214.09
-313.73
-404.83
-479.95
-523.34
-523.94
-478.75
-394.60
-285.04
-165.91
-50.83
51.90
138.18
207.47
261.33
303.08
334.29
355.38
365.79
363.83
348.37
317.81
266.92
195.72
109.04
16.60
-67.50
-128.60
-163.59
-174.17
-168.84
-160.70
-162.49
-181.79
-217.91
-262.83
-300.21
-318.05
-310.28
-278.91
-231.83
-179.36
-131.68
-96.46
-77.41
-73.88
-79.34
-85.46
-85.69
-79.12
-70.98
-69.63
-81.60
-107.85
-143.72
-184.84
-225.38
-260.52
-286.16
-298.17
-293.23
-270.54
-233.58
-189.88
-147.73
-114.26
-90.73
-71.21
-45.75
-6.25
48.39
110.62
167.12
204.25
213.42
193.50
149.51
89.67
22.60
-43.65
-101.73
-145.00
-167.75
-166.46
-140.89
-94.69
-34.60
30.89
93.78
148.04
190.18
219.23
235.71
240.72
235.11
219.52
194.66
161.88
123.43
82.17
41.12
2.60
-32.06
-62.55
-89.09
-111.77
-130.27
-143.65
-150.89
-151.37
-145.44
-134.25
-119.28
-101.59
-81.37
-57.83
-29.76
3.68
42.26
84.40
127.83
170.27
210.33
247.81
283.42
318.29
353.69
390.96
431.18
474.39
518.25
557.10
582.49
585.78
562.08
513.34
448.50
380.36
320.46
274.84
242.98
220.15
200.99
182.34
163.30
143.41
120.78
91.88
53.27
4.09
-52.88
-112.03
-167.39
-215.53
-256.76
-294.25
-331.62
-370.52
-409.13
-442.30
-463.36
-466.39
-448.43
-410.40
-356.76
-294.01
-228.81
-166.36
-109.79
-60.02
-16.44
22.37
58.39
93.88
131.08
171.41
214.57
257.86
296.53
325.45
341.43
344.99
340.32
333.62
330.32
332.84
340.11
348.47
353.56
351.87
341.27
320.77
290.22
250.17
202.04
148.44
92.77
38.58
-11.15
-54.70
-91.68
-122.67
-148.96
-172.13
-193.81
-215.72
-239.53
-266.49
-296.64
-328.27
-357.80
-380.81
-393.73
-395.22
-386.64
-370.87
-350.49
-326.28
-297.11
-261.24
-218.10
-169.33
-118.36
-68.70
-22.24
21.33
63.60
105.55
146.04
181.47
206.78
217.09
209.46
183.79
142.91
92.25
39.18
-7.77
-39.84
-49.56
-32.40
11.09
74.38
145.60
210.29
255.78
275.47
271.17
251.87
229.76
215.02
211.91
217.99
226.42
229.72
222.98
204.96
176.97
141.13
99.17
52.51
3.20
-45.48
-89.63
-125.79
-152.77
-172.53
-189.73
-209.94
-236.91
-269.95
-302.95
-325.68
-327.47
-301.39
-247.44
-172.91
-89.74
-10.32
56.16
105.40
137.45
154.83
160.94
158.80
150.63
137.79
120.54
97.84
67.63
28.16
-20.49
-75.46
-131.42
-182.08
-221.88
-247.38
-258.18
-256.65
-247.20
-235.27
-226.68
-227.11
-240.99
-269.97
-307.69
-343.20
-364.11
-362.50
-339.54
-304.70
-270.53
-246.57
-235.77
-237.15
-244.39
-251.94
-257.01
-259.20
-258.85
-255.79
-249.05
-237.41
-220.19
-198.73
-175.89
-154.82
-137.56
-124.33
-113.65
-103.22
-91.10
-76.62
-60.46
-44.51
-30.76
-20.45
-13.67
-9.41
-6.10
-2.40
2.38
8.42
15.51
23.64
33.28
45.17
60.05
78.02
98.33
119.49
139.95
158.66
175.50
191.33
207.35
224.45
242.58
260.61
276.93
290.44
300.94
309.39
317.55
327.00
338.86
353.66
371.52
392.07
413.73
433.08
445.33
446.19
434.07
411.67
384.84
359.49
337.98
317.14
289.55
247.22
186.16
108.54
22.17
-62.55
-136.12
-191.83
-226.06
-237.52
-226.84
-196.86
-153.19
-103.70
-57.23
-21.46
-0.39
6.56
4.25
-0.19
-0.27
7.50
22.61
41.46
59.45
73.61
83.76
92.66
104.30
121.69
145.53
174.02
203.98
232.04
255.67
273.04
282.45
282.01
269.69
244.15
205.54
155.75
98.16
36.73
-24.57
-81.44
-128.92
-161.67
-175.37
-169.16
-147.61
-120.70
-100.81
-97.88
-114.72
-144.94
-175.21
-190.76
-182.04
-149.37
-102.97
-58.78
-32.10
-31.75
-57.60
-102.05
-154.30
-205.07
-249.95
-289.73
-328.38
-369.75
-414.47
-458.66
-494.49
-512.99
-507.46
-476.41
-424.38
-360.20
-293.91
-232.79
-179.56
-132.82
-89.25
-46.09
-2.39
41.02
82.16
117.69
143.31
154.11
146.80
122.47
88.20
56.07
39.25
46.77
79.55
130.05
184.84
229.17
251.56
246.92
217.46
171.67
121.51
78.66
51.25
41.63
46.54
59.60
73.99
84.37
87.13
79.67
59.77
25.98
-21.36
-78.93
-139.96
-195.44
-236.14
-254.94
-248.61
-218.56
-170.52
-112.85
-54.26
-1.36
42.33
76.49
102.92
124.34
143.57
163.39
186.08
212.69
242.11
270.54
292.56
302.84
298.07
277.86
244.96
204.32
161.72
122.14
88.22
59.35
32.28
2.96
-30.52
-65.46
-94.16
-106.20
-93.21
-53.71
4.86
68.03
119.36
146.25
143.84
115.86
72.31
25.76
-12.62
-35.32
-39.05
-24.00
7.78
53.64
110.99
176.80
246.76
314.57
372.39
412.58
429.98
423.77
397.47
357.36
309.82
259.38
208.21
157.09
107.03
60.47
21.00
-8.09
-25.59
-33.25
-35.28
-36.71
-41.66
-52.13
-68.12
-88.32
-111.50
-137.62
-167.72
-203.30
-245.01
-291.73
-340.51
-387.11
-427.00
-456.44
-473.16
-476.55
-467.76
-449.69
-426.65
-403.23
-382.70
-365.43
-348.84
-328.82
-302.17
-268.65
-231.78
-197.37
-170.91
-155.31
-150.04
-151.90
-156.64
-160.41
-160.35
-154.54
-141.57
-120.56
-91.51
-55.78
-15.96
25.03
65.02
103.34
141.17
181.31
226.60
277.65
331.21
379.00
410.19
414.99
388.48
333.09
258.01
176.04
98.61
33.17
-18.78
-58.55
-88.09
-108.97
-122.48
-130.17
-133.07
-131.42
-123.17
-107.24
-82.99
-52.25
-19.61
9.24
30.84
46.51
60.82
79.82
104.93
135.09
167.76
200.54
232.57
265.01
300.36
331.18
362.29
385.30
392.07
378.15
344.27
296.15
236.82
174.79
119.95
81.05
63.06
62.51
74.75
96.94
125.19
155.16
181.83
198.46
198.91
177.23
131.65
65.80
-11.62
-88.89
-154.05
-198.18
-220.01
-226.00
-228.93
-240.31
-264.41
-296.71
-326.33
-341.54
-335.25
-308.79
-269.84
-228.53
-191.38
-158.17
-123.78
-82.40
-31.35
27.46
87.57
140.87
179.87
199.65
198.39
177.13
139.28
90.52
38.64
-8.20
-43.59
-64.58
-72.71
-72.82
-70.66
-70.64
-74.84
-83.40
-95.66
-111.24
-130.22
-152.15
-175.73
-198.98
-220.21
-238.96
-255.92
-271.22
-282.48
-284.46
-271.52
-241.76
-200.53
-159.90
-133.96
-131.63
-151.62
-182.64
-208.89
-217.64
-204.50
-173.62
-133.69
-92.52
-53.46
-15.85
22.42
62.15
102.28
141.15
179.06
219.09
265.62
321.56
385.17
448.71
500.16
527.67
524.52
492.08
439.37
379.11
322.97
277.68
243.44
216.53
192.33
167.61
141.01
112.29
81.48
48.95
15.74
-18.11
-52.61
-87.57
-122.29
-155.08
-183.43
-205.02
-219.01
-227.17
-236.95
-257.01
-292.73
-342.51
-397.05
-442.99
-468.68
-468.67
-445.66
-412.71
-386.47
-381.42
-404.92
-455.57
-525.46
-604.02
-681.29
-726.90
-717.17
-640.87
-505.27
-332.92
-149.25
27.35
187.17
326.01
441.63
528.76
582.51
603.76
597.19
571.48
536.14
498.16
460.36
422.11
378.51
323.73
254.42
172.45
84.92
0.85
-71.68
-126.55
-159.74
-164.26
-139.31
-92.07
-36.78
11.38
42.19
53.16
48.11
33.63
14.81
-8.78
-37.62
-69.75
-99.25
-118.00
-118.65
-97.01
-52.84
10.03
85.40
160.65
220.68
253.95
256.76
234.69
199.56
164.04
136.43
117.77
104.73
90.82
73.13
53.51
36.69
26.98
26.02
32.27
41.88
50.33
54.41
52.07
42.47
24.52
-3.26
-41.74
-89.74
-140.67
-184.42
-212.24
-221.55
-217.31
-208.96
-205.23
-210.59
-224.31
-242.22
-261.47
-279.53
-295.11
-307.17
-314.10
-313.70
-304.20
-285.20
-257.92
-224.91
-188.96
-152.77
-118.33
-86.23
-55.97
-26.81
1.66
29.16
54.66
76.87
94.85
108.81
120.27
131.47
144.33
159.69
177.20
195.79
214.84
234.92
257.71
284.38
313.54
339.88
355.09
350.32
319.47
261.60
181.20
87.13
-9.47
-97.31
-166.39
-209.08
-221.15
-203.26
-162.05
-109.56
-60.32
-26.79
-14.89
-21.97
-38.47
-52.18
-53.66
-39.85
-14.35
15.41
42.18
62.01
74.97
83.37
89.39
93.28
93.50
87.92
75.55
57.25
35.64
14.58
-1.99
-10.54
-8.28
5.93
30.67
61.31
90.29
108.96
110.21
91.13
54.79
9.76
-32.41
-60.73
-68.20
-53.55
-20.58
23.62
71.14
115.21
151.10
176.36
190.99
197.55
200.78
206.48
220.08
243.38
273.20
302.19
321.64
324.95
309.71
277.49
233.02
183.78
138.38
106.02
94.92
109.39
146.74
195.87
239.60
260.82
250.60
211.13
154.53
97.06
52.84
28.92
24.62
34.12
50.16
68.16
85.11
98.32
104.77
101.99
90.43
74.71
62.66
49.03
29.95
0.62
-43.64
-104.98
-181.91
-269.44
-360.84
-449.49
-527.53
-592.38
-641.85
-673.54
-685.95
-679.31
-655.73
-618.38
-570.17
-512.30
-444.65
-366.71
-279.20
-185.02
-89.22
1.89
82.27
147.59
196.42
230.86
256.06
278.34
302.84
331.20
360.22
382.55
389.13
373.65
336.30
284.99
232.72
193.02
175.31
182.15
209.01
246.22
281.95
305.27
308.41
288.05
245.63
186.88
120.04
53.23
-8.17
-62.75
-111.94
-157.52
-198.94
-232.34
-251.77
-252.53
-234.42
-203.19
-169.02
-142.88
-132.60
-140.48
-164.05
-198.45
-238.72
-280.19
-317.36
-342.64
-347.11
-323.42
-269.32
-189.83
-96.32
-3.08
77.33
137.33
175.44
195.01
201.73
201.68
200.26
202.08
210.68
227.77
252.19
279.21
301.36
310.59
301.57
273.90
232.52
185.28
139.82
100.93
69.66
44.50
23.35
5.22
-9.55
-19.96
-26.04
-29.43
-32.99
-40.13
-53.43
-73.55
-98.27
-122.54
-139.77
-145.23
-137.27
-117.66
-90.38
-59.64
-28.92
-1.38
19.23
28.16
18.84
-13.76
-70.39
-146.21
-232.03
-317.74
-395.82
-462.83
-509.55
-528.49
-514.77
-468.81
-397.60
-312.15
-223.43
-139.65
-65.40
-2.06
49.38
88.76
116.45
133.63
142.55
145.87
146.27
145.69
145.84
146.54
146.81
145.24
140.55
132.53
121.54
108.48
94.43
81.07
69.42
60.26
54.07
51.04
51.74
56.28
64.22
74.32
85.34
95.74
103.55
106.88
103.97
93.92
76.58
52.59
22.97
-10.08
-44.01
-76.24
-104.01
-125.19
-138.18
-142.19
-134.97
-118.42
-95.10
-67.50
-37.98
-8.34
20.08
46.45
70.21
91.40
109.99
126.05
140.01
151.10
158.21
159.88
154.78
141.77
120.95
93.28
61.25
27.97
-3.51
-30.74
-52.27
-67.66
-77.86
-83.58
-85.67
-84.31
-79.64
-72.07
-62.53
-52.40
-43.14
-36.67
-33.62
-33.62
-35.28
-37.48
-40.13
-44.43
-52.87
-62.80
-75.09
-90.89
-111.01
-135.15
-161.25
-185.05
-200.02
-199.39
-178.93
-140.21
-89.74
-37.11
8.41
41.41
61.38
71.82
77.38
81.24
83.68
83.93
81.52
77.13
72.23
68.10
64.78
61.12
55.33
45.67
31.98
15.84
-0.04
-12.73
-20.12
-21.49
-17.60
-10.34
-1.73
6.47
13.21
18.07
20.91
21.37
18.76
12.31
1.17
-14.84
-35.32
-59.12
-84.38
-108.88
-130.84
-148.23
-159.30
-162.72
-157.68
-143.92
-121.98
-92.99
-58.81
-21.77
15.02
48.83
77.62
100.06
115.70
124.83
128.32
127.25
122.92
116.56
109.16
101.49
94.01
86.92
80.25
74.04
68.07
62.26
57.09
52.26
47.71
43.44
39.45
35.68
32.12
28.70
25.43
22.34
19.40
16.67
14.19
11.97
9.97
8.19
6.51
4.96
3.54
2.20
0.90
-0.30
-1.35
-2.23
-2.84
-3.10
-2.76
-1.60
0.69
4.24
9.24
15.62
22.99
31.12
38.84
45.12
48.86
49.19
45.68
38.40
27.89
15.14
1.38
-12.08
-23.89
-32.95
-38.60
-40.59
-38.89
-33.78
-25.93
-16.27
-6.16
2.92
9.82
13.60
13.81
10.90
5.97
0.37
-4.44
-7.58
-8.73
-8.12
-6.20
-3.44
0.03
4.45
10.08
16.89
24.26
30.90
35.43
36.82
34.83
30.18
24.37
19.41
17.34
19.47
25.68
34.38
42.36
45.40
39.56
22.54
-4.80
-38.44
-72.76
-102.62
-124.36
-136.70
-140.40
-136.95
-127.33
-111.71
-90.12
-60.97
-24.99
16.72
63.63
115.84
173.28
234.97
298.43
359.87
414.99
460.04
492.37
509.42
507.81
483.82
435.62
365.67
281.45
192.59
108.93
37.80
-18.13
-61.01
-95.61
-125.77
-152.23
-173.39
-189.75
-202.15
-211.11
-216.71
-219.26
-219.68
-218.29
-214.21
-207.59
-204.35
-210.35
-228.30
-256.72
-291.92
-329.98
-366.75
-397.55
-420.86
-443.59
-472.49
-510.12
-553.66
-598.20
-639.66
-674.93
-700.84
-677.54
-586.29
-438.60
-270.82
-118.01
2.32
88.53
141.58
180.04
217.66
257.17
298.99
344.52
397.26
457.36
513.10
548.55
555.26
535.19
494.22
440.65
382.16
325.46
274.99
233.09
202.28
185.22
180.86
181.51
178.28
163.49
134.98
95.80
52.42
13.40
-14.19
-28.34
-33.30
-35.46
-39.56
-46.54
-54.98
-63.66
-68.40
-68.65
-65.91
-62.21
-58.13
-52.55
-43.71
-30.91
-15.26
1.28
16.29
27.88
34.34
33.74
24.18
5.24
-20.72
-48.14
-69.45
-78.40
-72.11
-52.07
-23.01
9.43
40.82
68.41
90.24
104.24
107.76
99.26
79.58
52.47
23.46
-2.30
-21.75
-34.35
-40.95
-42.52
-39.07
-30.08
-15.66
2.23
19.28
30.07
29.98
17.13
-6.92
-37.68
-69.37
-97.02
-117.76
-131.42
-139.34
-142.97
-142.95
-139.31
-132.20
-122.41
-111.33
-100.02
-89.27
-79.13
-69.53
-60.89
-54.19
-50.22
-48.80
-48.73
-48.80
-50.48
-56.39
-68.14
-83.68
-96.58
-97.46
-77.37
-31.94
36.02
113.70
184.38
234.23
257.16
255.22
235.61
206.82
175.65
146.75
119.44
94.55
77.51
76.40
95.17
128.27
161.07
176.06
161.17
108.97
23.34
-82.39
-191.70
-292.81
-382.26
-462.08
-534.79
-568.42
-538.70
-444.39
-311.38
-172.81
-50.80
46.38
119.56
170.68
209.91
237.56
251.14
249.70
235.55
212.05
181.30
145.18
107.54
74.13
45.02
18.78
-5.20
-25.54
-40.43
-49.39
-53.11
-52.75
-48.94
-45.16
-43.93
-45.77
-49.04
-51.90
-53.54
-54.00
-53.86
-53.78
-56.28
-63.18
-73.87
-84.60
-89.50
-82.98
-62.30
-29.25
10.05
46.63
72.96
85.87
87.21
81.75
74.21
67.12
60.55
53.43
45.09
36.28
28.79
24.17
22.59
22.56
21.80
18.13
10.77
0.78
-9.37
-16.73
-19.19
-16.15
-8.91
-0.17
7.30
11.81
13.50
14.25
16.73
23.05
33.61
46.66
58.91
67.03
69.18
65.86
59.88
55.06
54.54
59.86
70.58
84.74
99.42
110.92
114.87
106.94
84.66
49.59
8.41
-28.56
-51.22
-53.89
-37.78
-9.98
20.66
47.84
69.82
88.42
105.79
121.68
132.83
134.84
125.09
105.05
80.38
59.16
49.13
54.84
76.10
107.99
142.34
169.78
182.48
176.76
153.98
119.54
80.14
41.02
4.30
-30.82
-66.37
-103.70
-142.35
-180.50
-215.30
-243.89
-264.18
-275.46
-278.72
-276.12
-269.89
-260.90
-249.34
-233.98
-212.86
-184.11
-146.73
-100.85
-47.47
12.00
75.39
137.02
189.05
222.95
232.49
215.96
176.97
123.47
65.33
11.29
-35.84
-77.57
-117.54
-158.62
-201.57
-245.48
-288.58
-329.11
-351.43
-343.66
-301.81
-233.02
-151.00
-68.35
7.24
72.76
127.80
173.21
207.75
230.87
243.45
248.05
248.62
248.54
250.10
254.08
260.34
265.82
267.94
265.64
259.50
251.78
244.89
240.83
240.67
244.58
250.39
255.78
258.95
258.43
253.64
244.61
231.58
214.08
195.20
176.01
157.42
140.59
124.87
109.90
96.28
85.42
78.35
74.51
71.13
64.64
51.68
25.73
-17.34
-76.83
-146.90
-219.02
-285.30
-340.01
-379.61
-402.51
-415.65
-426.46
-438.45
-450.25
-458.94
-463.61
-466.56
-471.84
-483.55
-513.51
-570.54
-654.72
-756.72
-862.85
-961.05
-1043.24
-1104.76
-1085.89
-952.92
-714.65
-420.25
-127.96
124.16
323.05
471.28
577.89
650.37
693.00
705.52
690.80
657.27
615.10
571.62
529.39
487.27
443.05
391.88
331.67
266.79
205.95
156.98
123.87
106.14
101.19
105.45
112.71
116.69
115.01
109.63
103.89
101.21
102.23
106.74
109.21
109.84
108.55
106.45
105.84
107.57
113.37
121.50
129.73
135.47
137.89
136.69
132.18
125.03
113.25
97.19
72.26
39.65
-1.76
-52.23
-111.90
-179.50
-249.98
-315.57
-361.45
-378.82
-364.87
-325.89
-273.98
-222.96
-183.57
-141.90
-112.83
-83.25
-48.46
-9.31
28.01
56.43
71.02
68.40
49.48
18.87
-15.08
-50.44
-85.26
-117.57
-144.99
-165.82
-183.34
-202.02
-223.10
-244.87
-268.11
-289.34
-302.80
-303.58
-272.45
-206.16
-143.11
-102.42
-78.69
-67.52
-60.62
-48.48
-22.54
21.83
82.02
152.40
229.17
304.03
364.58
402.02
413.48
402.39
375.16
336.30
289.32
238.87
184.25
121.28
48.41
-31.75
-111.99
-183.75
-241.07
-280.79
-292.73
-275.82
-240.30
-201.32
-177.41
-167.92
-165.06
-162.73
-155.01
-138.79
-114.11
-80.77
-36.74
20.10
90.34
171.75
258.37
342.90
418.86
480.97
526.89
557.00
572.70
559.70
509.18
422.59
313.37
199.90
96.65
11.17
-54.86
-103.29
-137.25
-158.50
-169.46
-173.08
-172.58
-171.32
-171.31
-173.19
-176.40
-180.57
-182.09
-177.64
-164.77
-142.42
-110.89
-71.21
-24.82
26.28
79.28
131.91
180.04
217.41
237.09
234.56
210.59
171.21
126.74
87.45
60.27
46.43
42.52
43.51
45.39
47.04
46.57
42.49
32.84
15.77
-9.67
-42.52
-79.63
-116.81
-150.33
-178.99
-202.41
-221.20
-236.02
-246.77
-251.97
-248.85
-234.75
-203.98
-159.86
-108.41
-56.50
-10.11
26.27
49.89
60.21
60.42
54.49
46.61
42.01
44.38
53.88
66.71
74.69
71.02
52.97
22.38
-15.80
-54.91
-90.00
-118.96
-141.76
-158.83
-170.77
-175.48
-171.12
-157.50
-135.51
-106.93
-73.92
-38.11
-0.47
37.01
72.72
105.04
132.26
153.03
166.47
172.48
171.79
165.77
156.24
145.25
134.12
123.52
113.73
104.95
97.32
90.94
85.47
80.41
75.29
69.56
63.04
56.19
50.10
45.96
44.56
45.57
47.69
49.24
48.54
44.78
38.54
31.58
26.32
25.20
29.64
39.21
50.99
59.74
59.45
45.79
18.59
-17.78
-55.62
-86.97
-106.03
-110.50
-101.65
-83.65
-62.17
-42.85
-29.69
-23.10
-20.59
-17.38
-9.17
5.09
22.05
35.37
39.38
32.67
18.67
3.78
-5.67
-6.41
0.70
12.26
23.65
30.78
31.04
24.85
14.67
4.56
-1.60
-2.18
1.69
6.56
9.05
7.54
2.87
-2.93
-8.48
-14.04
-21.70
-33.46
-50.20
-70.52
-91.75
-111.12
-126.65
-137.32
-142.11
-139.51
-127.78
-106.48
-77.51
-45.32
-15.54
7.16
20.80
26.41
26.78
24.80
21.93
18.41
14.12
9.49
5.66
3.93
4.76
7.41
10.24
11.53
10.23
6.52
1.62
-2.92
-5.89
-6.90
-6.49
-5.79
-6.03
-7.91
-11.38
-15.74
-20.03
-23.49
-25.90
-27.56
-29.15
-31.47
-34.88
-39.22
-43.75
-47.37
-49.04
-48.16
-44.46
-38.40
-30.72
-22.21
-13.45
-4.69
4.09
12.97
21.82
30.35
37.85
43.68
47.79
50.57
52.99
56.22
61.10
67.77
75.57
82.87
87.78
89.35
87.27
82.09
74.82
66.35
57.40
48.91
42.01
38.07
38.21
41.46
44.50
42.62
32.03
11.14
-15.81
-42.34
-64.38
-80.19
-90.63
-97.02
-98.95
-93.87
-78.85
-53.62
-22.98
3.91
18.39
16.17
-0.60
-24.71
-47.71
-63.37
-69.96
-69.98
-67.56
-65.39
-63.94
-61.77
-56.42
-45.85
-29.53
-9.22
11.34
28.03
38.14
41.22
39.08
35.45
34.40
39.17
51.14
69.49
91.66
113.70
130.25
135.23
124.12
96.20
55.98
12.36
-24.05
-44.45
-44.57
-25.76
5.20
37.46
60.88
70.68
67.63
55.23
36.46
13.07
-12.15
-37.04
-56.70
-64.71
-56.02
-29.68
9.64
52.46
86.64
99.45
83.20
39.34
-20.85
-79.91
-121.32
-136.71
-129.25
-111.72
-100.27
-107.10
-135.61
-180.44
-231.20
-277.28
-311.25
-329.38
-330.80
-316.31
-287.80
-247.78
-199.47
-146.26
-91.07
-36.47
15.13
60.83
96.98
119.82
126.47
115.96
89.70
51.31
5.80
-41.36
-85.10
-121.27
-146.78
-159.83
-160.12
-149.00
-129.35
-104.98
-79.74
-56.52
-36.58
-19.35
-2.88
15.27
36.92
62.50
90.70
118.83
143.74
162.90
175.10
180.69
181.16
178.49
174.46
170.24
166.29
162.51
158.47
153.76
148.17
141.72
134.70
127.41
120.07
112.66
105.04
97.03
88.65
80.16
72.05
64.84
58.88
54.27
50.91
48.70
47.68
48.05
50.06
53.69
58.49
63.56
67.73
69.98
69.72
66.89
61.87
55.16
47.21
38.37
29.00
19.66
11.17
4.43
0.24
-1.01
0.50
4.04
8.53
12.77
15.67
16.55
15.12
11.53
6.27
0.04
-6.30
-11.81
-15.68
-17.37
-16.85
-14.70
-11.97
-9.84
-9.23
-10.51
-13.45
-17.43
-21.75
-25.81
-29.18
-31.51
-32.49
-31.79
-29.22
-24.71
-18.54
-11.28
-3.62
3.64
9.83
14.51
17.52
18.96
19.17
18.54
17.40
15.98
14.34
12.54
10.62
8.66
6.84
5.40
4.63
4.75
5.83
7.79
10.34
13.10
15.71
17.89
19.52
20.57
21.06
20.99
20.31
19.04
17.32
15.38
13.55
12.04
10.92
10.12
9.37
8.42
7.14
5.53
3.77
2.11
0.75
-0.12
-0.48
-0.38
0.01
0.50
0.88
1.00
0.75
0.05
-1.15
-2.90
-5.18
-7.97
-11.14
-14.50
-17.75
-20.55
-22.57
-23.56
-23.47
-22.43
-20.68
-18.51
-16.17
-13.80
-11.48
-9.24
-7.13
-5.22
-3.60
-2.32
-1.46
-1.06
-1.15
-1.66
-2.44
-3.31
-4.12
-4.84
-5.59
-6.53
-7.78
-9.24
-10.65
-11.73
-12.31
-12.40
-12.21
-12.03
-12.02
-12.23
-12.50
-12.68
-12.62
-12.31
-11.81
-11.22
-10.57
-9.85
-8.99
-7.93
-6.70
-5.39
-4.11
-2.95
-1.93
-1.06
-0.32
0.25
0.56
0.49
-0.02
-0.89
-1.92
-2.87
-3.52
-3.80
-3.79
-3.68
-3.67
-3.86
-4.22
-4.57
-4.80
-4.82
-4.69
-4.52
-4.38
-4.26
-4.12
-3.98
-3.95
-4.22
-4.95
-6.15
-7.63
-9.07
-10.16
-10.75
-10.89
-10.73
-10.46
-10.13
-9.75
-9.32
-8.88
-8.54
-8.33
-8.24
-8.17
-7.99
-7.58
-6.93
-6.09
-5.15
-4.20
-3.38
-2.78
-2.55
-2.76
-3.42
-4.41
-5.47
-6.34
-6.74
-6.53
-5.66
-4.25
-2.53
-0.75
0.87
2.25
3.38
4.37
5.33
6.32
7.29
8.10
8.58
8.62
8.23
7.56
6.83
6.27
6.01
6.02
6.15
6.20
5.99
5.42
4.50
3.33
2.02
0.75
-0.31
-1.00
-1.19
-0.88
-0.18
0.71
1.57
2.28
2.85
3.38
4.00
4.72
5.43
5.92
6.00
5.61
4.82
3.83
2.85
2.00
1.30
0.66
-0.03
-0.83
-1.72
-2.59
-3.38
-4.02
-4.55
-4.94
-5.15
-5.03
-4.39
-3.18
-1.54
0.18
1.57
2.34
2.51
2.40
2.42
2.81
3.50
4.13
4.20
3.36
1.62
-0.68
-2.97
-4.70
-5.49
-5.27
-4.26
-2.96
-1.96
-1.82
-2.87
-5.08
-8.07
-11.10
-13.42
-14.37
-13.74
-11.70
-8.78
-5.68
-3.04
-1.29
-0.61
-0.95
-2.13
-3.89
-6.00
-8.16
-10.10
-11.52
-12.21
-12.13
-11.49
-10.62
-9.91
-9.57
-9.55
-9.61
-9.38
-8.55
-7.08
-5.17
-3.17
-1.44
-0.22
0.44
0.63
0.52
0.32
0.18
0.21
0.47
0.93
1.48
1.96
2.19
2.09
1.72
1.25
0.91
0.87
1.13
1.59
2.10
2.54
2.92
3.33
3.88
4.64
5.63
6.76
7.91
8.97
9.80
10.34
10.57
10.58
10.48
10.42
10.44
10.58
10.82
11.14
11.56
12.08
12.63
13.09
13.24
12.92
