1513816018.00
64.000000
-0.00
-0.00
-0.00
-0.00
-0.00
-0.00
-0.00
-0.00
-0.00
-0.00
0.00
0.01
0.01
-0.00
-0.03
-0.05
-0.05
0.00
0.13
0.36
0.66
1.01
1.37
1.72
2.06
2.40
2.79
3.24
3.80
4.42
5.06
5.66
6.20
6.68
7.15
7.68
8.31
9.14
10.09
11.04
11.88
12.56
13.14
13.76
14.65
15.96
17.91
20.32
22.90
25.38
27.58
29.57
31.68
34.32
37.81
42.54
48.15
54.10
59.83
64.97
69.58
74.14
79.34
85.71
93.76
103.00
112.62
121.73
129.77
136.75
143.30
150.75
157.77
166.64
177.95
191.79
206.97
220.57
228.25
225.36
208.53
176.87
132.76
80.05
23.07
-34.94
-92.44
-149.16
-205.23
-260.37
-313.74
-363.87
-409.83
-450.91
-486.50
-515.74
-537.23
-549.22
-549.96
-538.37
-514.21
-478.67
-433.88
-382.45
-327.02
-269.84
-212.63
-156.66
-102.95
-52.37
-5.90
35.58
71.43
101.35
125.50
144.38
158.69
169.15
176.37
180.75
182.57
182.07
179.51
175.23
169.65
163.18
156.15
148.81
141.30
133.69
126.02
118.33
110.69
103.16
95.80
88.68
81.83
75.25
68.95
62.95
57.25
51.86
46.78
42.03
37.59
33.45
29.61
26.07
22.81
19.83
17.11
14.67
12.48
10.54
8.83
7.34
6.06
4.97
4.05
3.29
2.65
2.12
1.65
1.24
0.87
0.56
0.30
0.12
0.00
-0.07
-0.12
-0.18
-0.26
-0.37
-0.47
-0.54
-0.57
-0.54
-0.49
-0.45
-0.48
-0.59
-0.77
-0.98
-1.12
-1.16
-1.08
-0.96
-0.89
-1.00
-1.35
-1.88
-2.47
-2.92
-3.10
-3.00
-2.75
-2.59
-2.78
-3.44
-4.49
-5.64
-6.54
-6.93
-6.77
-6.28
-5.90
-6.06
-6.97
-8.50
-10.23
-11.61
-12.27
-12.11
-11.40
-10.60
-10.20
-10.59
-12.01
-14.51
-17.79
-20.95
-22.53
-20.78
-14.46
-3.59
10.34
24.71
36.87
45.08
49.08
49.88
48.95
47.40
45.53
43.11
39.77
35.54
30.79
26.18
21.90
17.94
14.05
9.94
5.48
0.81
-3.74
-7.71
-10.75
-12.69
-13.56
-13.59
-13.16
-12.60
-12.17
-11.95
-11.85
-11.74
-11.52
-11.14
-10.64
-10.14
-9.76
-9.60
-9.62
-9.67
-9.49
-8.84
-7.65
-6.07
-4.43
-3.10
-2.22
-1.71
-1.33
-0.86
-0.31
0.21
0.49
0.41
0.02
-0.56
-1.23
-1.94
-2.70
-3.46
-4.08
-4.38
-4.23
-3.65
-2.79
-1.87
-1.08
-0.51
-0.11
0.19
0.48
0.77
0.97
0.99
0.79
0.44
0.13
0.00
0.14
0.41
0.53
0.22
-0.61
-1.74
-2.79
-3.39
-3.43
-3.00
-2.39
-1.87
-1.56
-1.50
-1.61
-1.89
-2.39
-3.15
-4.12
-5.15
-5.94
-6.26
-6.00
-5.23
-4.16
-3.07
-2.18
-1.60
-1.26
-1.02
-0.70
-0.21
0.48
1.25
2.00
2.61
3.02
3.23
3.26
3.18
3.04
2.94
2.98
3.23
3.76
4.49
5.25
5.82
5.99
5.70
5.02
4.14
3.26
2.63
2.35
2.51
3.07
3.84
4.58
4.94
4.67
3.68
2.12
0.31
-1.36
-2.54
-3.00
-2.71
-1.85
-0.71
0.36
1.02
1.06
0.40
-0.90
-2.65
-4.61
-6.49
-7.96
-8.73
-8.57
-7.45
-5.57
-3.40
-1.48
-0.20
0.27
0.14
-0.20
-0.39
-0.24
0.14
0.53
0.70
0.63
0.47
0.50
0.86
1.53
2.31
2.90
3.17
3.16
3.06
3.10
3.38
3.86
4.35
4.62
4.51
3.97
3.09
2.05
1.07
0.29
-0.24
-0.56
-0.72
-0.72
-0.49
0.01
0.76
1.58
2.26
2.63
2.67
2.49
2.24
1.97
1.53
0.70
-0.67
-2.53
-4.55
-6.34
-7.54
-8.00
-7.81
-7.26
-6.68
-6.33
-6.29
-6.49
-6.75
-6.93
-6.99
-7.01
-7.11
-7.35
-7.72
-8.13
-8.50
-8.88
-9.32
-9.97
-10.94
-12.25
-13.75
-15.20
-16.41
-17.35
-18.15
-19.07
-20.42
-22.39
-24.91
-27.66
-30.17
-32.01
-33.02
-33.33
-33.22
-33.02
-33.02
-33.22
-33.21
-32.22
-29.40
-24.15
-16.39
-6.44
4.70
15.57
24.87
32.02
37.34
41.74
46.21
51.23
57.00
62.66
66.53
67.08
64.06
58.81
53.59
50.57
50.93
55.27
62.49
70.01
74.97
75.42
70.62
60.96
48.12
35.31
28.02
30.79
44.67
66.29
88.99
105.22
109.30
99.58
72.54
32.99
-7.86
-39.39
-58.31
-67.86
-72.55
-74.76
-74.54
-71.26
-64.17
-54.47
-45.03
-38.70
-36.52
-37.38
-39.11
-39.68
-38.04
-33.51
-26.80
-19.86
-14.68
-12.17
-11.84
-12.50
-12.80
-11.92
-9.18
-4.77
0.16
4.28
6.73
7.55
7.26
6.76
6.78
7.82
9.66
11.17
11.07
8.48
3.40
-3.59
-11.36
-19.51
-28.78
-40.65
-55.85
-72.75
-86.97
-91.73
-83.24
-61.53
-31.07
0.97
27.95
46.15
54.78
54.10
43.56
21.84
-10.65
-49.28
-84.97
-107.02
-108.16
-88.39
-55.24
-20.12
7.06
21.88
26.07
24.75
22.82
22.56
23.54
24.44
24.83
25.85
29.62
37.35
48.11
58.82
65.46
64.66
55.47
39.74
21.34
4.62
-7.29
-13.50
-15.23
-14.71
-13.94
-13.73
-13.61
-12.45
-9.33
-4.25
1.82
7.32
10.72
11.15
8.80
4.70
0.29
-3.15
-4.89
-4.90
-3.67
-1.95
-0.40
0.48
0.50
-0.35
-1.85
-3.74
-5.63
-7.19
-8.13
-8.32
-7.82
-6.86
-5.75
-4.68
-3.74
-2.95
-2.30
-1.85
-1.63
-1.59
-1.57
-1.36
-0.80
-0.03
0.49
0.11
-1.77
-5.33
-10.16
-15.33
-19.63
-22.03
-21.69
-18.45
-12.88
-6.03
0.90
6.88
11.27
13.79
14.54
13.83
12.06
9.77
7.53
5.81
4.84
4.52
4.48
4.24
3.46
1.98
-0.08
-2.39
-4.56
-6.24
-7.22
-7.47
-7.14
-6.49
-5.89
-5.68
-6.02
-6.84
-7.81
-8.54
-8.73
-8.28
-7.43
-6.52
-5.89
-5.70
-5.89
-6.25
-6.59
-6.83
-6.97
-7.00
-6.90
-6.60
-6.19
-5.84
-5.73
-6.03
-6.73
-7.60
-8.27
-8.38
-7.69
-6.22
-4.20
-1.92
0.37
2.62
4.87
7.21
9.63
11.95
13.87
15.12
15.61
15.52
15.26
15.20
15.46
15.84
15.85
14.97
12.89
9.61
5.44
0.93
-3.33
-6.88
-9.39
-10.76
-11.08
-10.58
-9.58
-8.39
-7.20
-6.08
-4.94
-3.74
-2.49
-1.41
-0.74
-0.66
-1.12
-1.84
-2.55
-3.10
-3.56
-4.19
-5.12
-6.28
-7.35
-7.99
-8.12
-7.97
-7.97
-8.41
-9.25
-10.15
-10.65
-10.48
-9.71
-8.64
-7.55
-6.55
-5.47
-4.03
-2.10
0.26
2.73
4.88
6.40
7.15
7.27
7.03
6.75
6.70
6.98
7.49
8.06
8.48
8.65
8.54
8.18
7.68
7.07
6.29
5.29
4.14
2.95
1.79
0.53
-1.07
-3.20
-6.01
-9.55
-13.83
-18.88
-24.77
-31.64
-39.65
-48.81
-58.57
-68.28
-77.39
-85.46
-92.15
-97.17
-100.45
-102.33
-103.57
-104.37
-105.08
-105.94
-106.53
-105.56
-101.25
-92.32
-78.78
-61.99
-42.56
-22.00
-2.20
15.45
31.02
46.07
62.74
82.65
106.76
137.67
175.61
217.92
259.91
297.01
326.72
348.69
364.02
374.55
384.62
394.94
402.05
400.33
386.07
360.23
327.39
293.35
240.26
162.25
65.95
-33.75
-123.99
-197.41
-248.54
-272.49
-269.56
-241.91
-191.83
-126.50
-55.80
11.67
66.66
104.08
121.68
118.99
98.10
66.41
32.11
1.50
-23.56
-45.65
-68.82
-95.55
-123.61
-145.03
-147.59
-122.20
-67.50
9.35
95.59
178.01
245.76
291.48
311.45
305.96
278.20
234.39
183.07
133.10
91.58
61.08
39.10
19.81
-3.12
-34.13
-74.12
-120.07
-166.01
-204.57
-229.48
-237.48
-229.27
-209.28
-184.11
-160.46
-143.30
-135.11
-135.99
-144.78
-159.86
-179.24
-200.43
-220.27
-235.38
-243.30
-243.58
-238.06
-230.00
-222.42
-216.56
-211.36
-204.18
-192.54
-175.56
-154.54
-132.15
-111.01
-92.45
-76.13
-60.89
-45.66
-30.26
-15.33
-1.74
9.92
19.43
26.66
31.27
32.51
29.73
22.75
12.34
0.20
-11.45
-20.50
-25.51
-25.95
-22.20
-15.17
-5.91
4.69
15.91
27.05
37.30
45.75
51.63
54.57
54.84
53.16
50.40
47.23
43.93
40.52
37.09
34.06
31.98
31.33
32.08
33.57
34.74
34.51
32.27
27.97
22.12
15.38
8.37
1.45
-5.15
-11.09
-15.84
-18.77
-19.41
-17.63
-13.82
-8.67
-2.93
2.83
8.30
13.36
17.95
21.88
24.97
27.01
28.02
28.19
27.87
27.36
26.79
26.06
24.91
23.03
20.29
16.78
12.85
8.98
5.72
3.39
2.16
1.91
2.31
2.90
3.21
2.81
1.39
-1.13
-4.61
-8.64
-12.63
-15.92
-17.96
-18.45
-17.42
-15.23
-12.39
-9.52
-7.14
-5.62
-5.02
-5.18
-5.77
-6.33
-6.48
-5.92
-4.52
-2.29
0.61
3.92
7.28
10.21
12.33
13.32
13.13
11.92
10.05
7.94
5.95
4.39
3.39
2.93
2.85
2.83
2.52
1.64
0.12
-1.81
-3.71
-5.07
-5.54
-5.00
-3.59
-1.61
0.59
2.67
4.34
5.34
5.49
4.73
3.23
1.32
-0.52
-1.85
-2.43
-2.35
-1.99
-1.95
-2.90
-5.26
-9.10
-14.00
-19.19
-23.77
-27.06
-28.76
-28.98
-28.09
-26.45
-24.31
-21.75
-18.85
-15.89
-13.30
-11.65
-11.38
-12.63
-15.18
-18.55
-22.12
-25.27
-27.39
-27.77
-25.67
-20.46
-12.09
-1.38
9.94
19.55
25.38
26.40
23.13
17.51
12.25
9.77
11.42
17.14
25.75
35.57
45.08
53.21
59.33
62.91
63.26
59.48
50.87
37.27
19.46
-0.96
-21.91
-41.50
-58.51
-72.82
-85.51
-98.60
-114.47
-135.28
-162.10
-194.15
-228.38
-259.66
-281.34
-286.67
-270.72
-232.46
-176.34
-112.59
-55.36
-18.80
-12.11
-35.66
-80.32
-130.54
-170.10
-187.95
-181.37
-155.30
-118.57
-79.59
-43.44
-11.70
15.87
39.33
57.96
71.04
79.26
85.44
94.31
110.50
136.31
170.43
208.19
243.41
271.01
289.00
298.88
304.49
309.64
316.16
323.03
326.96
324.13
311.99
290.44
261.68
229.39
197.19
167.57
141.41
118.16
96.46
74.82
52.27
28.46
3.50
-22.21
-47.96
-72.40
-93.55
-108.89
-116.01
-113.45
-101.20
-80.82
-54.92
-26.55
1.40
26.63
47.35
62.19
70.00
69.96
61.88
46.48
25.61
1.99
-21.42
-42.15
-58.83
-71.50
-81.22
-89.50
-97.56
-105.85
-113.97
-120.93
-125.49
-126.55
-123.34
-115.51
-103.30
-87.51
-69.41
-50.57
-32.53
-16.51
-3.18
7.40
15.57
21.94
27.08
31.40
35.05
37.91
39.68
39.98
38.56
35.38
30.79
25.37
19.86
14.94
11.05
8.39
6.87
6.24
6.21
6.49
6.86
7.18
7.43
7.61
7.81
8.09
8.50
9.05
9.67
10.28
10.75
11.01
10.99
10.75
10.39
10.03
9.75
9.50
9.16
8.56
7.58
6.14
4.28
2.08
-0.31
-2.74
-4.99
-6.85
-8.12
-8.71
-8.62
-7.94
-6.76
-5.15
-3.11
-0.66
2.08
4.97
7.74
10.09
11.82
12.96
13.79
14.59
15.55
16.59
17.62
18.53
19.27
20.00
21.06
22.90
25.83
29.91
34.88
40.55
46.47
51.96
56.17
58.27
57.57
53.53
45.78
34.29
20.59
6.60
-6.01
-16.09
-22.74
-25.04
-22.23
-13.89
-0.25
19.33
43.74
69.68
92.53
108.67
117.21
119.96
120.09
120.33
124.29
132.34
141.30
146.39
144.71
137.17
127.79
121.36
121.28
131.86
153.50
182.29
211.62
235.45
250.51
256.05
252.75
219.84
149.96
53.39
-46.89
-130.93
-190.79
-227.85
-247.40
-255.04
-255.52
-248.96
-235.94
-219.04
-202.31
-188.84
-179.00
-171.41
-164.45
-157.33
-147.64
-134.75
-120.37
-107.64
-99.07
-94.69
-93.08
-92.65
-92.42
-90.59
-86.96
-82.71
-80.48
-83.12
-91.72
-105.44
-121.17
-133.82
-136.78
-125.23
-98.80
-60.71
-20.94
11.65
32.16
40.82
41.86
41.04
42.61
48.22
57.03
68.04
81.30
96.48
111.29
121.17
120.64
106.01
77.04
38.24
-2.77
-38.05
-62.49
-75.22
-78.83
-77.47
-74.97
-74.92
-79.76
-91.04
-108.79
-131.26
-154.72
-174.27
-185.90
-183.04
-165.11
-136.28
-103.91
-75.86
-57.96
-52.41
-57.35
-67.91
-77.72
-81.44
-75.15
-57.14
-28.34
7.82
46.23
81.53
109.68
128.83
138.90
141.43
138.74
133.11
126.63
121.25
118.46
118.92
121.99
125.42
126.54
123.68
117.39
110.50
106.90
109.40
117.97
129.30
137.76
137.83
126.30
103.48
73.22
41.59
14.96
-2.00
-7.75
-4.29
3.82
11.20
13.51
8.75
-2.46
-17.68
-33.76
-48.02
-58.71
-64.99
-66.64
-64.01
-58.09
-50.49
-43.20
-38.02
-35.95
-36.84
-39.52
-42.37
-43.90
-43.30
-40.52
-36.11
-30.95
-25.88
-21.51
-17.98
-14.99
-11.93
-8.15
-3.31
2.42
8.34
13.54
17.21
18.96
18.89
17.56
15.72
14.05
12.95
12.44
12.23
11.97
11.42
10.54
9.45
8.24
6.82
5.10
3.05
0.88
-0.90
-1.71
-1.34
-0.06
1.37
2.09
1.53
-0.27
-2.84
-5.52
-7.84
-9.67
-11.12
-12.38
-13.65
-15.10
-16.94
-19.30
-22.18
-25.34
-28.26
-30.33
-31.07
-30.35
-28.41
-25.75
-22.93
-20.37
-18.31
-16.78
-15.62
-14.60
-13.42
-11.91
-10.00
-7.75
-5.32
-2.88
-0.64
1.09
1.91
1.45
-0.40
-3.31
-6.53
-9.19
-10.79
-11.50
-12.24
-14.21
-18.25
-24.41
-31.76
-38.77
-43.73
-45.39
-43.19
-37.43
-29.29
-20.45
-12.74
-7.30
-4.14
-1.85
1.83
9.03
20.79
36.54
54.51
72.56
89.10
103.34
115.05
124.09
130.08
132.66
131.82
128.16
122.66
116.06
108.41
98.95
86.73
71.33
53.31
34.14
15.65
-0.70
-14.21
-24.92
-33.32
-40.00
-45.42
-49.91
-53.74
-57.12
-60.10
-62.54
-64.11
-64.44
-63.41
-61.29
-58.59
-55.92
-53.60
-51.57
-49.59
-47.52
-45.51
-43.94
-43.06
-42.66
-42.10
-40.62
-37.78
-33.66
-28.75
-23.53
-17.98
-11.51
-3.32
6.94
18.81
30.97
41.71
49.65
54.34
56.41
57.28
58.41
60.61
63.56
66.00
66.37
63.91
59.33
55.00
53.94
58.50
69.03
83.31
96.96
104.66
101.51
84.17
51.99
8.04
-40.26
-82.23
-106.74
-106.53
-81.94
-41.77
-0.42
28.05
35.44
21.92
-5.50
-36.82
-62.67
-76.08
-72.51
-49.83
-9.02
44.54
100.93
147.87
174.77
176.64
155.56
119.30
77.77
39.51
9.58
-10.66
-22.64
-29.56
-35.42
-43.90
-56.91
-73.83
-91.64
-106.41
-115.35
-117.95
-116.25
-113.50
-112.49
-114.38
-118.63
-123.83
-128.61
-132.31
-134.85
-136.29
-136.45
-134.92
-131.36
-125.89
-119.19
-112.18
-105.60
-99.58
-93.56
-86.60
-77.83
-66.96
-54.45
-41.47
-29.41
-19.31
-11.53
-5.69
-0.92
3.72
8.84
14.62
20.87
27.22
33.37
39.15
44.60
49.84
54.96
59.93
64.49
68.22
70.67
71.60
71.03
69.34
67.11
65.02
63.65
63.36
64.20
65.82
67.45
68.00
66.31
61.49
53.22
41.76
27.96
13.09
-1.29
-13.58
-22.36
-26.88
-27.34
-24.90
-21.27
-18.07
-16.16
-15.52
-15.47
-15.29
-14.63
-13.56
-12.31
-10.88
-9.01
-6.36
-2.90
0.91
4.31
6.58
7.41
6.97
5.79
4.38
3.07
1.93
0.94
0.13
-0.41
-0.60
-0.58
-0.69
-1.45
-3.23
-6.13
-9.87
-13.95
-17.81
-21.03
-23.34
-24.61
-24.84
-24.02
-22.28
-19.74
-16.51
-12.70
-8.32
-3.53
1.30
5.49
8.24
8.91
7.50
4.87
2.52
2.10
4.51
9.36
14.89
18.53
18.04
12.52
2.99
-7.96
-17.25
-22.57
-23.24
-20.31
-15.89
-12.05
-10.01
-9.74
-10.31
-10.43
-9.36
-7.27
-5.36
-5.46
-9.35
-17.94
-30.42
-44.12
-55.10
-59.54
-55.03
-41.59
-21.74
0.38
20.08
33.48
38.68
36.66
31.22
28.70
36.10
58.54
96.60
145.26
195.23
235.87
258.69
258.82
236.26
194.93
141.26
82.73
27.01
-18.52
-47.75
-57.25
-48.79
-28.01
-2.43
20.56
35.06
37.53
27.00
4.29
-29.43
-75.52
-134.68
-204.75
-279.14
-347.97
-400.57
-428.55
-428.13
-400.74
-354.58
-298.82
-240.70
-184.84
-135.52
-97.48
-75.02
-69.88
-61.94
-36.19
11.50
71.83
131.14
179.45
213.33
234.05
245.34
250.89
249.98
240.22
221.34
195.94
167.55
139.92
115.91
96.58
81.03
64.45
41.37
6.95
-35.82
-84.71
-136.61
-187.23
-231.04
-261.98
-276.46
-273.38
-254.44
-223.61
-187.08
-150.44
-117.14
-87.82
-60.97
-35.08
-9.12
17.14
43.32
67.93
89.65
107.50
120.98
130.03
134.54
134.65
131.04
125.11
118.46
113.05
110.61
111.83
116.05
121.27
124.93
124.79
119.71
109.68
95.86
79.92
63.44
47.54
32.69
18.85
5.63
-7.46
-20.91
-34.79
-48.72
-61.84
-72.96
-80.84
-84.51
-83.47
-77.82
-68.18
-55.67
-41.74
-28.02
-16.04
-7.02
-1.64
0.13
-1.06
-4.14
-7.85
-11.15
-13.40
-14.38
-14.27
-13.43
-12.19
-10.58
-8.35
-5.02
-0.15
6.41
14.25
22.38
29.45
34.25
36.12
35.21
32.41
29.06
26.51
25.72
27.04
30.24
34.67
39.41
43.55
46.38
47.58
47.28
46.08
44.78
44.08
44.33
45.34
46.58
47.32
46.98
45.26
42.20
38.01
32.90
26.90
19.81
11.43
1.70
-9.07
-20.18
-30.85
-40.35
-48.31
-54.66
-59.48
-62.71
-64.00
-62.86
-58.83
-51.93
-42.71
-32.24
-21.78
-12.45
-4.87
0.79
4.74
7.31
8.70
8.97
8.18
6.68
5.25
5.09
7.50
13.42
22.99
35.39
48.85
61.07
69.74
73.07
70.22
61.46
48.13
32.24
16.02
1.38
-10.44
-18.83
-23.81
-25.77
-25.33
-23.33
-20.68
-18.33
-16.98
-16.91
-17.97
-19.68
-21.46
-22.92
-23.91
-24.59
-25.29
-26.22
-27.33
-28.18
-28.03
-26.12
-21.89
-15.24
-6.52
3.61
14.35
24.87
34.39
42.11
47.31
49.49
48.52
44.87
39.41
33.21
27.22
21.97
17.60
13.91
10.62
7.46
4.37
1.41
-1.33
-3.77
-5.90
-7.72
-9.17
-10.06
-10.23
-9.51
-7.95
-5.71
-3.06
-0.27
2.49
5.13
7.60
9.82
11.65
12.84
13.11
12.17
9.91
6.50
2.41
-1.67
-5.07
-7.36
-8.44
-8.60
-8.22
-7.64
-7.01
-6.31
-5.46
-4.39
-3.10
-1.58
0.17
2.11
4.17
6.18
7.95
9.28
10.04
10.25
10.02
9.62
9.37
9.56
10.35
11.63
13.04
14.11
14.46
13.97
12.85
11.51
10.34
9.50
8.88
8.17
7.09
5.52
3.61
1.71
0.20
-0.77
-1.28
-1.68
-2.41
-3.80
-5.92
-8.63
-11.58
-14.37
-16.62
-17.98
-18.22
-17.25
-15.15
-12.32
-9.27
-6.51
-4.30
-2.62
-1.24
0.02
1.19
2.16
2.83
3.26
3.64
4.17
4.88
5.61
6.10
6.23
6.16
6.19
6.64
7.55
8.65
9.55
9.90
9.68
9.11
8.50
8.06
7.76
7.41
6.80
5.83
4.51
2.95
1.18
-0.78
-3.02
-5.56
-8.30
-11.05
-13.54
-15.58
-16.99
-17.66
-17.50
-16.43
-14.53
-12.05
-9.37
-6.88
-4.77
-2.95
-1.19
0.78
3.04
5.38
7.48
9.01
9.85
10.15
10.20
10.28
10.48
10.69
10.71
10.40
9.79
9.07
8.48
8.14
8.12
8.31
8.65
9.06
9.52
9.92
10.12
9.90
9.16
7.94
6.45
4.96
3.61
2.42
1.31
0.17
-1.09
-2.58
-4.43
-6.82
-9.75
-13.03
-16.11
-18.39
-19.40
-19.00
-17.44
-15.14
-12.51
-9.78
-7.00
-4.16
-1.30
1.45
3.97
6.14
7.92
9.31
10.41
11.26
11.92
12.44
12.79
12.95
12.85
12.52
11.97
11.32
10.66
10.05
9.48
8.93
8.44
8.04
7.82
7.74
7.66
7.39
6.80
5.85
4.60
3.17
1.63
0.04
-1.58
-3.20
-4.79
-6.36
-7.95
-9.67
-11.62
-13.82
-16.19
-18.49
-20.45
-21.71
-22.03
-21.20
-19.21
-16.29
-12.87
-9.39
-6.18
-3.34
-0.72
1.80
4.25
6.47
8.23
9.37
9.98
10.26
10.43
10.59
10.62
10.42
9.95
9.30
8.70
8.25
7.95
7.64
7.19
6.54
5.82
5.22
4.88
4.81
4.81
4.59
3.90
2.66
0.93
-1.04
-3.02
-4.79
-6.24
-7.39
-8.32
-9.14
-9.96
-10.84
-11.74
-12.54
-13.05
-13.09
-12.58
-11.60
-10.30
-8.87
-7.41
-5.97
-4.57
-3.31
-2.33
-1.76
-1.56
-1.47
-1.07
0.01
1.92
4.50
7.34
9.95
11.95
13.18
13.63
13.41
12.65
11.48
10.01
8.41
6.87
5.54
4.55
3.84
3.26
2.63
1.87
1.12
0.68
0.89
1.98
3.91
6.30
8.66
10.57
11.84
12.59
13.14
13.82
14.77
15.92
16.95
17.45
17.04
15.56
13.11
9.95
6.32
2.36
-1.92
-6.50
-11.23
-15.68
-19.26
-21.44
-22.00
-21.13
-19.38
-17.37
-15.54
-14.02
-12.66
-11.25
-9.63
-7.81
-5.91
-4.07
-2.33
-0.62
1.14
3.01
4.90
6.63
8.03
8.99
9.62
10.06
10.45
10.83
11.08
11.05
10.70
10.19
9.77
9.66
9.86
10.19
10.31
10.03
9.36
8.45
7.52
6.67
5.86
4.97
3.92
2.77
1.63
0.55
-0.48
-1.48
-2.48
-3.35
-3.92
-4.09
-3.89
-3.55
-3.37
-3.55
-4.18
-5.11
-6.17
-7.22
-8.22
-9.20
-10.21
-11.20
-12.04
-12.49
-12.29
-11.22
-9.32
-6.85
-4.25
-2.04
-0.55
0.15
0.23
-0.04
-0.45
-0.96
-1.59
-2.29
-2.87
-3.05
-2.58
-1.43
0.17
1.82
3.19
4.05
4.39
4.29
3.91
3.40
2.95
2.75
2.93
3.51
4.30
5.03
5.43
5.42
5.06
4.54
3.98
3.39
2.70
1.84
0.87
-0.08
-0.91
-1.61
-2.31
-3.19
-4.27
-5.47
-6.59
-7.51
-8.22
-8.87
-9.58
-10.40
-11.25
-12.05
-12.74
-13.30
-13.67
-13.60
-12.81
-11.11
-8.62
-5.86
-3.47
-1.94
-1.35
-1.35
-1.39
-1.08
-0.31
0.74
1.83
2.83
3.73
4.56
5.29
5.75
5.74
5.20
4.32
3.46
2.99
3.14
3.83
4.74
5.52
5.87
5.73
5.19
4.42
3.60
2.80
1.99
1.15
0.26
-0.66
-1.55
-2.32
-2.90
-3.28
-3.52
-3.71
-3.94
-4.20
-4.43
-4.54
-4.56
-4.68
-5.18
-6.35
-8.20
-10.38
-12.29
-13.25
-12.85
-11.09
-8.42
-5.47
-2.83
-0.86
0.32
0.78
0.67
0.12
-0.66
-1.41
-1.83
-1.68
-0.94
0.19
1.33
2.15
2.51
2.54
2.48
2.55
2.83
3.27
3.72
4.07
4.28
4.33
4.23
3.97
3.55
2.99
2.35
1.77
1.38
1.23
1.26
1.30
1.16
0.71
0.03
-0.70
-1.24
-1.47
-1.49
-1.56
-1.94
-2.77
-3.99
-5.44
-6.98
-8.56
-10.12
-11.54
-12.55
-12.79
-12.03
-10.33
-8.05
-5.74
-3.86
-2.62
-1.97
-1.60
-1.26
-0.78
-0.15
0.54
1.15
1.58
1.74
1.59
1.19
0.67
0.26
0.19
0.62
1.50
2.55
3.47
3.97
3.96
3.55
2.95
2.39
1.98
1.74
1.60
1.52
1.43
1.28
1.01
0.56
-0.06
-0.80
-1.51
-2.10
-2.49
-2.74
-2.91
-3.16
-3.59
-4.31
-5.38
-6.80
-8.46
-10.11
-11.46
-12.20
-12.18
-11.44
-10.23
-8.95
-7.94
-7.44
-7.41
-7.59
-7.63
-7.27
-6.48
-5.53
-4.82
-4.74
-5.44
-6.80
-8.49
-10.21
-11.80
-13.38
-15.29
-17.89
-21.32
-25.40
-29.69
-33.64
-36.91
-39.61
-42.24
-45.57
-50.20
-56.24
-63.21
-70.12
-76.06
-80.52
-83.65
-86.12
-88.61
-91.42
-94.38
-97.36
-100.87
-106.28
-114.81
-126.20
-137.51
-143.59
-139.04
-120.74
-89.33
-48.61
-3.29
43.60
91.81
142.61
196.23
249.83
297.73
333.80
354.48
360.10
353.69
338.26
314.74
282.25
240.24
190.81
139.37
92.89
57.21
34.72
23.86
20.55
20.58
21.36
22.36
24.14
27.18
31.27
35.55
39.08
41.30
42.36
42.82
43.32
44.35
46.05
48.31
50.84
53.38
55.75
57.77
59.11
59.38
58.42
56.50
54.19
52.02
50.03
47.65
44.05
38.65
31.57
23.66
15.90
8.93
2.77
-3.10
-9.23
-15.85
-22.67
-28.99
-34.09
-37.63
-39.73
-41.00
-42.19
-43.89
-46.31
-49.24
-52.16
-54.49
-55.85
-56.30
-56.21
-56.07
-56.25
-56.78
-57.47
-58.08
-58.45
-58.57
-58.48
-58.18
-57.64
-56.87
-55.91
-54.85
-53.70
-52.40
-50.88
-49.19
-47.59
-46.38
-45.79
-45.82
-46.19
-46.55
-46.58
-46.24
-45.67
-45.14
-44.94
-45.16
-45.70
-46.34
-46.79
-46.90
-46.70
-46.42
-46.27
-46.36
-46.51
-46.30
-45.34
-43.42
-40.75
-37.78
-34.99
-32.63
-30.70
-28.95
-27.15
-25.14
-22.90
-20.46
-17.86
-15.13
-12.30
-9.43
-6.61
-3.92
-1.39
0.97
3.17
5.22
7.09
8.78
10.26
11.57
12.70
13.65
14.44
15.07
15.49
15.62
15.35
14.55
13.13
11.12
8.66
5.93
3.07
0.20
-2.69
-5.59
-8.46
-11.21
-13.72
-15.83
-17.32
-17.99
-17.72
-16.63
-14.98
-13.15
-11.47
-10.01
-8.65
-7.14
-5.38
-3.45
-1.68
-0.43
0.16
0.14
-0.24
-0.77
-1.27
-1.68
-1.90
-1.75
-1.09
0.09
1.50
2.62
2.95
2.22
0.68
-1.10
-2.47
-3.09
-3.10
-2.94
-3.07
-3.70
-4.72
-5.82
-6.72
-7.27
-7.54
-7.57
-7.34
-6.75
-5.79
-4.60
-3.49
-2.84
-2.85
-3.54
-4.63
-5.83
-6.91
-7.80
-8.59
-9.48
-10.67
-12.28
-14.32
-16.65
-19.04
-21.25
-23.12
-24.57
-25.60
-26.21
-26.28
-25.60
-23.92
-21.19
-17.55
-13.48
-9.52
-6.10
-3.29
-0.84
1.69
4.57
7.74
10.79
13.16
14.35
14.23
12.99
11.08
8.91
6.85
5.09
3.81
3.11
3.06
3.66
4.79
6.20
7.60
8.73
9.36
9.37
8.69
7.37
5.62
3.80
2.31
1.43
1.19
1.34
1.50
1.35
0.79
-0.02
-0.84
-1.45
-1.87
-2.27
-2.86
-3.77
-4.94
-6.24
-7.52
-8.65
-9.57
-10.14
-10.20
-9.57
-8.18
-6.17
-3.85
-1.66
0.06
1.11
1.61
1.83
2.12
2.64
3.34
3.97
4.22
3.91
3.15
2.31
1.74
1.64
1.87
2.07
1.82
0.96
-0.33
-1.64
-2.51
-2.69
-2.20
-1.30
-0.34
0.42
0.90
1.18
1.36
1.54
1.66
1.72
1.73
1.77
1.92
2.18
2.42
2.39
1.93
0.96
-0.34
-1.73
-2.97
-3.94
-4.71
-5.39
-6.09
-6.79
-7.49
-8.15
-8.78
-9.38
-9.87
-10.09
-9.82
-8.98
-7.67
-6.21
-4.90
-3.93
-3.24
-2.55
-1.58
-0.20
1.46
3.15
4.59
5.67
6.39
6.85
7.14
7.25
7.18
6.95
6.69
6.57
6.72
7.16
7.78
8.43
8.92
9.16
9.08
8.70
8.05
7.16
6.08
4.95
3.99
3.40
3.33
3.77
4.58
5.48
6.16
6.40
6.08
5.19
3.83
2.14
0.34
-1.38
-2.89
-4.18
-5.37
-6.68
-8.23
-10.00
-11.76
-13.21
-14.15
-14.58
-14.68
-14.64
-14.55
-14.27
-13.57
-12.24
-10.28
-7.88
-5.35
-2.97
-0.89
0.82
2.18
3.18
3.72
3.80
3.48
2.92
2.38
2.09
2.19
2.68
3.43
4.26
4.99
5.46
5.67
5.66
5.58
5.60
5.81
6.24
6.79
7.35
7.78
8.00
7.97
7.65
7.01
6.01
4.74
3.29
1.88
0.67
-0.20
-0.75
-1.09
-1.37
-1.77
-2.45
-3.55
-5.16
-7.27
-9.77
-12.51
-15.30
-17.92
-20.13
-21.65
-22.23
-21.67
-19.91
-17.11
-13.59
-9.82
-6.26
-3.31
-1.18
0.06
0.54
0.53
0.36
0.39
0.84
1.84
3.29
5.00
6.69
8.08
8.98
9.31
9.14
8.60
7.83
6.83
5.59
4.08
2.45
0.99
0.03
-0.19
0.35
1.36
2.31
2.57
1.52
-1.21
-5.66
-11.47
-17.76
-23.45
-27.40
-29.05
-28.63
-27.18
-26.02
-26.09
-27.47
-29.34
-30.50
-29.91
-27.13
-22.53
-16.89
-10.83
-4.36
2.95
11.23
19.87
27.52
32.82
35.07
34.66
32.93
31.59
31.52
32.16
32.06
30.25
27.49
26.35
29.36
36.72
45.50
50.87
49.04
39.83
27.14
16.51
11.57
12.07
14.78
17.13
19.48
24.66
34.97
49.28
62.22
66.49
56.54
31.64
-2.80
-38.84
-71.12
-99.86
-129.40
-164.30
-206.40
-253.84
-301.97
-343.84
-373.54
-388.71
-390.80
-382.29
-364.03
-335.21
-295.10
-243.99
-181.52
-107.71
-24.41
64.42
154.80
244.41
332.43
418.66
487.37
520.41
512.27
476.17
431.10
388.94
353.00
321.29
290.67
260.11
232.62
212.66
203.01
202.98
209.69
218.84
226.64
223.71
204.07
168.10
121.48
72.53
29.24
-2.32
-19.82
-27.76
-33.22
-40.93
-51.16
-61.61
-70.46
-78.72
-84.88
-90.90
-103.74
-129.34
-168.83
-218.66
-273.46
-328.66
-381.32
-429.91
-448.41
-424.65
-367.75
-300.57
-241.89
-198.90
-170.12
-150.14
-132.44
-111.53
-87.57
-61.12
-31.36
2.75
39.26
72.56
95.86
104.92
101.87
89.86
76.17
69.84
77.03
97.00
122.77
145.72
160.75
167.99
169.32
168.08
166.95
167.15
168.61
171.47
174.43
176.98
178.51
176.67
168.76
152.32
125.60
88.75
44.86
0.66
-34.48
-52.17
-50.84
-38.19
-29.34
-40.06
-77.77
-136.21
-196.61
-235.36
-235.37
-194.84
-128.27
-59.67
-12.08
1.61
-18.40
-61.38
-111.78
-154.53
-179.20
-181.19
-161.06
-123.54
-76.25
-29.79
3.63
13.41
-4.97
-49.48
-112.24
-181.54
-245.39
-293.02
-319.08
-324.41
-313.82
-290.42
-257.80
-221.04
-186.66
-161.89
-149.32
-148.78
-157.05
-166.68
-163.56
-137.13
-86.19
-18.63
52.67
121.00
183.36
239.55
292.08
349.45
415.37
484.98
547.92
593.78
623.06
639.93
648.50
611.05
511.58
366.94
214.43
105.12
33.62
-8.26
-24.19
-22.71
-6.29
29.34
85.14
155.06
212.43
234.32
218.37
176.94
126.06
77.98
42.89
24.29
18.74
19.43
18.86
14.45
3.51
-17.30
-48.88
-84.89
-114.39
-133.26
-140.67
-140.20
-136.38
-134.42
-137.88
-146.30
-154.16
-155.47
-148.24
-134.46
-115.74
-96.77
-83.87
-77.50
-76.54
-79.71
-87.11
-100.83
-116.51
-127.61
-127.86
-115.16
-93.49
-70.65
-53.58
-45.06
-43.42
-43.68
-41.62
-38.17
-32.98
-26.02
-17.42
-7.31
4.30
16.66
28.51
37.64
41.84
40.63
35.42
27.83
19.01
10.24
2.16
-5.31
-14.06
-27.67
-49.17
-79.09
-113.65
-145.72
-166.33
-169.52
-155.46
-130.94
-105.81
-86.95
-74.49
-58.43
-30.17
12.12
59.50
97.75
116.43
114.05
97.54
76.93
62.13
52.63
44.89
35.41
23.46
11.19
1.49
-4.03
-6.06
-8.27
-14.31
-24.99
-38.19
-49.92
-56.57
-56.84
-51.20
-40.59
-25.22
-5.14
19.78
48.48
78.95
109.26
137.86
164.97
191.47
217.00
238.82
253.43
258.83
256.26
249.82
242.49
234.92
224.08
204.30
170.09
119.39
54.86
-17.03
-88.15
-152.36
-204.38
-240.39
-258.57
-259.96
-248.09
-228.24
-206.35
-178.50
-145.84
-112.50
-83.21
-60.52
-45.23
-36.57
-32.29
-29.00
-22.73
-11.62
5.25
27.03
50.91
72.50
88.26
97.12
99.92
99.21
94.98
87.41
77.17
65.95
55.28
47.53
44.90
47.54
53.24
57.93
58.77
55.08
50.47
46.54
42.32
38.77
35.51
30.15
19.72
2.13
-24.42
-56.59
-93.34
-132.96
-172.22
-206.86
-233.15
-247.14
-245.83
-229.06
-200.59
-168.00
-138.23
-114.82
-97.48
-84.92
-74.33
-63.38
-51.66
-40.99
-34.40
-32.23
-31.87
-19.54
9.95
50.40
89.15
117.95
136.39
148.81
160.61
173.50
184.29
184.24
168.58
137.36
97.28
58.30
29.26
15.25
15.30
29.91
49.96
66.94
77.36
82.84
86.48
88.81
90.58
90.65
88.46
82.98
75.28
67.38
60.64
54.39
45.54
33.88
17.43
-4.79
-33.93
-69.69
-110.87
-155.23
-199.49
-239.14
-268.87
-285.00
-286.13
-274.64
-254.92
-231.95
-209.74
-190.25
-173.45
-157.87
-142.26
-125.53
-107.22
-87.00
-64.70
-40.45
-14.96
10.08
32.06
47.22
51.83
43.32
21.56
-10.52
-47.49
-82.78
-110.38
-126.23
-129.07
-120.33
-103.70
-84.22
-67.06
-55.90
-51.61
-51.75
-51.32
-44.74
-27.94
-0.00
36.55
76.64
114.49
145.23
166.23
177.34
180.49
178.80
175.48
172.82
171.53
170.73
168.49
162.77
152.25
136.80
117.67
97.30
79.24
67.54
65.62
74.71
92.56
113.53
130.06
135.32
125.74
102.34
70.14
35.98
5.88
-16.89
-32.32
-42.70
-50.84
-58.80
-67.07
-74.75
-80.14
-81.50
-77.70
-68.80
-55.99
-41.00
-25.26
-9.26
7.54
26.25
47.81
72.25
98.42
123.99
146.09
162.26
171.65
176.05
180.21
191.04
215.38
257.13
314.94
381.84
447.24
500.68
535.44
550.42
549.34
538.05
521.53
502.23
480.28
455.01
426.30
395.10
362.64
329.45
294.65
256.49
213.47
165.48
114.12
62.12
12.32
-33.57
-75.47
-114.58
-152.63
-190.82
-229.36
-267.49
-304.04
-338.23
-370.04
-400.20
-429.72
-459.44
-489.59
-519.82
-549.28
-576.68
-600.50
-619.58
-633.97
-645.28
-656.06
-667.84
-679.05
-684.10
-674.73
-643.43
-587.16
-509.44
-419.15
-326.97
-241.21
-165.24
-97.77
-35.10
26.30
88.63
152.85
219.26
287.32
354.59
416.09
464.83
493.95
499.23
480.95
443.60
393.71
337.45
279.17
221.61
167.10
118.43
78.75
50.35
33.23
24.41
18.49
9.15
-8.81
-37.89
-76.94
-121.45
-164.55
-199.00
-219.34
-223.47
-212.55
-190.08
-160.05
-125.68
-89.18
-51.92
-15.24
18.96
47.86
68.29
77.61
74.82
61.09
39.38
14.25
-9.70
-29.56
-45.65
-61.45
-82.15
-112.23
-153.02
-202.70
-254.32
-297.23
-320.42
-316.32
-283.01
-224.75
-151.00
-74.35
-10.55
29.39
42.57
33.63
10.77
-18.13
-47.77
-75.89
-102.42
-132.62
-168.75
-208.52
-247.01
-280.44
-307.06
-325.93
-335.37
-332.78
-321.39
-302.25
-273.98
-235.09
-188.13
-140.31
-100.88
-77.30
-33.64
44.66
147.53
250.31
335.64
398.07
438.24
459.33
466.23
464.35
451.49
427.39
393.87
355.53
316.69
280.07
247.07
217.95
191.10
157.72
115.25
62.39
0.49
-68.40
-141.45
-213.67
-277.61
-324.98
-352.36
-358.99
-347.72
-323.55
-292.74
-260.62
-229.67
-199.54
-168.77
-137.93
-108.07
-80.32
-54.25
-28.12
0.46
33.76
73.01
117.98
166.48
215.62
261.92
302.07
332.99
352.29
359.09
354.26
340.23
320.10
296.94
273.19
251.13
233.31
222.56
221.38
230.71
248.91
271.53
292.32
304.79
304.07
288.07
257.87
217.31
172.35
130.02
97.17
78.96
77.25
89.67
109.78
128.86
138.50
133.24
112.14
78.59
38.39
-2.46
-39.81
-72.20
-100.39
-126.60
-153.76
-185.09
-223.44
-270.18
-323.78
-378.90
-427.05
-459.14
-468.61
-454.08
-419.74
-373.38
-323.03
-274.10
-228.09
-183.49
-137.74
-89.49
-39.61
8.90
52.06
86.10
108.37
117.73
114.23
98.77
72.26
35.28
-12.13
-69.95
-137.06
-209.89
-281.95
-344.55
-389.01
-409.57
-405.43
-380.99
-343.88
-301.70
-259.09
-216.74
-172.57
-124.30
-71.47
-16.06
38.86
90.78
139.30
186.08
233.72
284.47
339.58
399.35
463.54
531.23
599.85
664.43
717.69
751.74
760.82
743.75
704.56
651.01
591.56
532.57
477.05
425.29
376.55
330.52
287.54
247.97
211.30
175.92
139.81
101.51
60.77
18.30
-24.84
-68.14
-111.70
-155.50
-198.23
-236.67
-266.13
-282.18
-282.91
-270.44
-250.79
-232.11
-221.77
-224.13
-239.62
-265.55
-297.73
-331.79
-363.57
-389.18
-405.16
-409.55
-403.30
-391.11
-380.35
-378.26
-388.44
-408.81
-432.19
-449.42
-453.40
-441.77
-417.21
-385.36
-351.87
-320.29
-291.53
-264.71
-238.36
-211.23
-182.45
-151.33
-117.31
-80.21
-40.52
0.41
40.81
79.20
115.05
149.30
184.13
222.25
265.56
313.91
364.31
411.23
448.04
469.11
472.07
459.13
436.84
414.11
399.10
396.33
405.06
420.06
434.00
440.66
437.14
424.28
405.19
383.12
359.76
335.00
307.92
278.30
247.25
216.76
188.30
161.54
134.18
102.87
64.91
19.77
-30.41
-81.71
-129.95
-172.36
-208.48
-239.97
-269.74
-301.19
-337.42
-380.69
-431.57
-487.93
-544.55
-593.81
-627.99
-642.10
-635.89
-613.82
-582.91
-549.48
-516.83
-484.83
-451.56
-415.54
-377.19
-338.41
-301.06
-265.35
-229.40
-190.20
-145.50
-95.18
-41.64
11.09
59.15
100.52
135.86
168.12
201.42
239.79
286.11
341.48
404.66
471.60
535.60
588.36
622.17
632.45
619.43
587.87
544.99
497.50
449.44
401.86
354.14
305.86
257.83
211.73
168.79
128.57
88.83
46.39
-1.83
-57.87
-122.20
-192.99
-265.90
-334.11
-389.49
-424.80
-436.23
-425.03
-397.20
-361.15
-324.47
-291.45
-262.36
-234.80
-205.77
-173.26
-136.47
-95.02
-48.62
2.52
56.21
107.47
148.95
173.26
175.86
157.43
124.01
84.94
49.57
24.46
12.00
11.04
18.39
30.44
43.98
56.35
65.32
69.19
67.19
59.81
48.65
36.13
24.73
16.37
12.08
11.92
15.18
20.55
26.37
30.91
32.64
30.65
24.70
15.35
3.67
-8.96
-21.04
-31.15
-38.06
-41.08
-40.25
-36.46
-31.29
-26.48
-23.44
-22.84
-24.50
-27.53
-30.68
-32.68
-32.70
-30.45
-26.32
-21.20
-16.09
-11.82
-8.80
-6.93
-5.79
-4.83
-3.59
-1.76
0.75
3.84
7.24
10.51
13.19
14.95
15.71
15.68
15.21
14.63
14.17
13.91
13.88
14.05
14.38
14.79
15.19
15.50
15.63
15.60
15.40
14.95
14.15
12.90
11.14
8.91
6.28
3.23
-0.33
-4.54
-9.35
-14.37
-18.87
-22.01
-23.12
-22.04
-19.22
-15.45
-11.61
-8.23
-5.50
-3.33
-1.56
-0.15
0.84
1.35
1.52
1.72
2.41
3.91
6.17
8.77
11.08
12.62
13.22
13.11
12.73
12.52
12.69
13.17
13.66
13.83
13.41
12.27
10.53
8.45
6.47
4.99
4.30
4.27
4.33
3.70
1.76
-1.47
-5.26
-8.33
-9.40
-7.72
-3.30
3.10
10.36
17.40
23.42
27.93
30.67
31.53
30.57
28.07
24.54
20.61
16.87
13.69
11.11
8.94
6.81
4.36
1.34
-2.30
-6.42
-10.71
-14.82
-18.47
-21.52
-24.02
-26.12
-28.11
-30.24
-32.72
-35.68
-39.09
-42.83
-46.62
-50.18
-53.36
-56.31
-59.51
-63.64
-69.21
-76.35
-84.50
-92.35
-98.11
-99.85
-96.10
-86.25
-70.90
-51.75
-31.18
-11.58
5.29
18.79
29.43
38.54
47.69
58.03
69.78
82.19
93.84
103.35
110.11
114.77
119.21
125.79
136.35
151.34
169.52
188.18
203.92
213.28
213.43
202.46
179.90
147.08
107.14
64.68
24.61
-9.22
-35.08
-53.63
-67.14
-78.24
-88.71
-98.96
-108.28
-115.58
-120.01
-121.21
-119.29
-114.53
-107.32
-98.19
-88.01
-77.98
-69.39
-63.23
-59.78
-58.52
-58.20
-57.34
-54.76
-49.92
-43.08
-35.11
-27.09
-19.87
-13.70
-8.18
-2.42
4.41
12.60
21.62
30.13
36.51
39.55
39.00
35.82
31.98
29.83
31.42
37.86
48.89
62.78
76.58
86.79
90.26
85.07
71.16
50.31
25.61
0.54
-21.89
-39.79
-52.36
-59.69
-62.32
-61.05
-56.82
-50.75
-44.05
-37.86
-32.99
-29.70
-27.63
-26.07
-24.20
-21.48
-17.80
-13.50
-9.11
-5.01
-1.22
2.68
7.31
13.28
20.84
29.72
39.24
48.38
56.02
61.13
62.93
61.14
56.05
48.50
39.67
30.73
22.39
14.70
7.01
-1.62
-12.00
-24.31
-37.86
-51.29
-63.04
-71.94
-77.60
-80.55
-81.90
-82.90
-84.40
-86.59
-88.95
-90.37
-89.37
-84.32
-73.91
-57.60
-36.04
-11.26
13.75
35.94
53.18
64.94
72.27
77.02
80.93
84.90
88.88
92.31
94.65
95.78
95.84
94.97
92.93
89.17
83.08
74.36
63.31
50.85
38.27
26.80
17.25
9.86
4.29
-0.11
-4.01
-7.84
-11.71
-15.48
-19.05
-22.42
-25.88
-29.82
-34.59
-40.22
-46.37
-52.48
-57.88
-61.98
-64.27
-64.34
-61.82
-56.43
-48.12
-37.22
-24.54
-11.30
1.06
11.13
17.90
20.93
20.50
17.44
12.94
8.16
4.04
1.00
-0.97
-2.25
-3.33
-4.63
-6.43
-8.79
-11.55
-14.36
-16.76
-18.26
-18.41
-16.93
-13.80
-9.23
-3.68
2.29
8.18
13.66
18.69
23.45
28.18
33.07
38.11
43.07
47.62
51.39
53.96
54.99
54.19
51.44
46.87
40.91
34.27
27.76
22.03
17.46
14.13
11.90
10.51
9.75
9.51
9.71
10.40
11.50
12.67
13.31
12.52
9.50
3.93
-3.70
-12.16
-19.89
-25.61
-28.80
-29.81
-29.58
-29.01
-28.62
-28.39
-27.99
-27.16
-25.97
-24.80
-24.28
-24.91
-26.90
-30.02
-33.66
-36.91
-38.88
-38.86
-36.53
-31.95
-25.46
-17.56
-8.87
-0.07
8.11
15.11
20.67
24.94
28.38
31.36
33.78
34.94
33.79
29.65
22.69
14.18
6.01
-0.05
-3.16
-3.68
-2.87
-2.13
-2.44
-3.93
-6.06
-7.98
-9.08
-9.18
-8.56
-7.77
-7.33
-7.57
-8.42
-9.54
-10.37
-10.43
-9.52
-7.88
-6.09
-4.90
-4.89
-6.28
-8.79
-11.80
-14.58
-16.51
-17.33
-17.19
-16.52
-15.84
-15.47
-15.53
-15.79
-15.83
-15.14
-13.36
-10.44
-6.72
-2.93
-0.02
1.13
0.06
-3.12
-7.63
-12.19
-15.37
-15.99
-13.54
-8.32
-1.43
5.59
11.18
14.22
14.43
12.33
9.09
5.97
3.95
3.46
4.39
6.26
8.42
10.30
11.47
11.68
10.85
9.12
6.74
4.11
1.67
-0.21
-1.31
-1.67
-1.47
-0.98
-0.27
0.71
2.22
4.45
7.42
10.88
14.37
17.39
19.52
20.54
20.45
19.42
17.74
15.83
14.06
12.71
11.84
11.24
10.61
9.66
8.27
6.53
4.67
2.86
1.26
-0.10
-1.15
-1.76
-1.77
-1.10
0.16
1.75
3.33
4.60
5.51
6.25
7.09
8.20
9.55
10.84
11.68
11.78
11.06
9.59
7.45
4.57
0.80
-3.95
-9.45
-15.11
-20.06
-23.51
-25.09
-24.90
-23.45
-21.37
-19.14
-17.01
-14.91
-12.68
-10.11
-7.10
-3.71
-0.18
3.19
6.15
8.54
10.40
11.84
13.09
14.27
15.54
16.96
18.51
20.09
21.45
22.33
22.57
22.25
21.73
21.43
21.56
21.94
21.99
20.99
18.45
14.22
8.70
2.58
-3.31
-8.19
-11.55
-13.15
-13.17
-12.17
-11.07
-10.72
-11.69
-13.96
-16.93
-19.80
-21.83
-22.71
-22.51
-21.56
-20.20
-18.63
-16.98
-15.30
-13.69
-12.20
-10.84
-9.41
-7.62
-5.22
-2.17
1.25
4.52
6.96
7.99
7.25
4.81
1.18
-2.84
-6.34
-8.52
-8.85
-7.23
-3.91
0.59
5.64
10.71
15.40
19.50
22.83
25.15
26.09
25.30
22.54
17.90
11.90
5.35
-0.83
-5.94
-9.67
-12.10
-13.64
-14.66
-15.38
-15.66
-15.06
-13.12
-9.53
-4.45
1.51
7.40
12.23
15.15
15.78
14.22
11.07
7.18
3.41
0.36
-1.97
-4.14
-7.04
-11.41
-17.45
-24.42
-30.91
-35.27
-36.29
-33.66
-28.07
-20.85
-13.51
-7.21
-2.60
0.16
1.24
1.01
0.08
-0.84
-0.99
0.02
2.17
4.98
7.88
10.55
13.13
16.14
19.96
24.52
29.06
32.55
34.08
33.42
30.96
27.46
23.53
19.39
14.96
10.15
5.22
0.76
-2.52
-4.31
-4.96
-5.53
-7.35
-11.46
-18.09
-26.52
-35.39
-43.13
-48.59
-51.28
-51.42
-49.72
-47.15
-44.67
-43.03
-42.65
-43.51
-45.09
-46.50
-46.83
-45.53
-42.80
-39.54
-37.09
-36.60
-38.49
-42.32
-46.82
-50.26
-50.74
-46.47
-36.16
-19.39
2.94
28.58
54.25
76.48
92.62
101.55
103.71
100.66
94.44
86.98
79.83
73.92
69.53
66.25
63.29
59.88
55.76
51.34
47.41
44.72
43.70
44.45
46.83
50.58
55.21
59.90
63.61
65.49
65.38
64.02
62.62
62.05
62.27
62.21
60.51
56.57
51.12
45.98
42.87
42.15
42.31
40.60
34.36
22.45
5.60
-14.21
-35.05
-55.80
-76.17
-95.84
-113.79
-128.30
-137.87
-142.27
-142.90
-141.98
-141.12
-140.19
-137.40
-130.65
-118.91
-103.01
-85.25
-68.10
-53.03
-40.10
-28.53
-17.71
-8.04
-0.88
2.18
0.50
-4.70
-10.23
-11.73
-5.16
11.62
37.96
70.31
103.29
131.10
149.11
154.95
149.02
134.41
116.45
101.56
95.79
102.86
122.74
151.15
180.50
202.15
208.98
197.30
167.48
123.22
70.33
15.27
-35.71
-77.33
-105.82
-119.54
-119.36
-108.51
-91.69
-73.81
-58.82
-48.98
-44.98
-46.33
-52.07
-61.12
-72.51
-85.56
-99.88
-115.34
-132.01
-149.90
-168.52
-186.59
-201.95
-212.13
-215.49
-212.41
-205.83
-200.35
-200.22
-207.01
-218.36
-228.61
-231.10
-221.16
-197.89
-164.02
-124.01
-81.65
-38.82
4.10
46.63
86.88
121.52
147.32
162.92
169.94
172.29
174.29
178.78
186.26
195.56
205.30
215.14
225.80
238.02
251.16
262.53
267.98
263.52
247.12
219.75
185.50
150.33
120.44
100.58
92.93
96.69
108.32
122.55
133.63
136.71
128.72
108.73
77.58
37.22
-9.87
-60.79
-112.06
-159.51
-198.62
-225.43
-237.67
-235.72
-222.67
-203.52
-183.52
-166.73
-155.00
-148.12
-144.51
-142.37
-140.40
-138.18
-135.96
-134.54
-135.06
-138.99
-147.86
-162.80
-183.61
-208.15
-232.26
-250.72
-258.92
-254.45
-237.86
-212.30
-182.10
-151.10
-121.55
-93.83
-66.80
-38.46
-6.81
29.24
69.10
110.03
147.75
177.58
196.21
203.04
200.52
192.98
184.90
179.28
176.96
177.18
178.73
180.91
183.91
188.27
194.12
200.68
206.22
208.53
205.53
195.79
178.79
154.95
125.71
93.65
62.56
37.41
23.69
26.19
47.21
85.06
133.38
182.32
221.11
241.23
238.86
215.50
176.40
127.92
75.14
21.21
-31.71
-80.94
-122.56
-152.43
-168.30
-171.59
-167.55
-163.04
-163.50
-170.52
-181.53
-191.53
-195.92
-192.69
-182.90
-169.69
-156.66
-146.75
-141.87
-143.11
-151.06
-165.80
-186.58
-211.47
-237.33
-260.08
-275.55
-280.36
-272.66
-252.39
-221.22
-181.97
-137.63
-90.72
-43.04
3.72
47.42
85.34
114.81
134.60
145.91
152.29
158.20
166.97
179.22
192.55
202.90
206.81
203.38
195.06
186.65
183.20
187.71
199.61
214.84
227.48
232.20
226.51
211.77
192.34
173.34
158.21
147.48
139.13
130.43
119.85
107.91
96.43
86.84
78.58
68.83
53.89
31.42
2.27
-29.57
-58.64
-80.56
-94.07
-101.20
-105.88
-111.63
-119.89
-129.79
-139.27
-146.69
-152.00
-156.70
-162.74
-171.22
-181.42
-190.99
-196.81
-196.25
-188.40
-174.71
-159.03
-146.76
-143.05
-150.78
-168.98
-192.50
-213.40
-223.49
-217.06
-192.38
-151.82
-100.82
-46.40
4.26
45.01
71.83
83.87
83.91
77.81
72.69
74.48
85.95
106.06
130.95
155.86
176.88
191.75
199.94
202.17
200.00
195.68
191.78
190.63
193.41
199.61
206.82
211.45
209.88
199.77
180.89
155.44
127.44
101.54
81.64
69.67
65.02
64.80
64.72
60.36
48.45
27.72
-0.86
-34.35
-68.73
-99.88
-124.72
-141.89
-151.94
-156.90
-159.47
-161.99
-165.72
-170.59
-175.61
-179.53
-181.58
-181.63
-180.14
-177.72
-174.67
-170.84
-165.84
-159.34
-151.44
-142.57
-133.23
-123.59
-113.24
-101.37
-87.14
-70.06
-50.15
-27.78
-3.58
21.74
47.33
72.03
94.38
112.70
125.48
131.67
131.01
124.03
111.99
96.77
80.53
65.50
53.63
46.30
44.23
47.35
54.73
64.65
74.77
82.43
85.30
82.10
73.02
59.93
45.84
34.03
27.10
26.19
30.68
38.43
46.40
51.44
51.21
44.78
32.78
16.87
-0.94
-19.22
-37.57
-56.48
-76.72
-98.63
-121.64
-144.16
-163.63
-176.73
-179.66
-168.90
-142.58
-101.93
-51.99
-0.72
43.62
75.38
93.49
101.29
104.21
106.84
110.90
115.19
117.21
115.28
110.00
103.99
100.72
102.88
111.36
125.00
141.26
157.10
169.94
178.33
181.87
180.91
175.71
165.96
150.62
128.09
96.59
54.78
2.38
-58.69
-123.58
-184.59
-232.56
-259.14
-259.12
-232.11
-182.96
-120.78
-57.11
-3.44
31.16
42.09
30.19
1.31
-35.75
-72.11
-101.29
-120.21
-128.40
-126.29
-114.09
-92.08
-62.06
-28.42
2.29
23.38
30.80
24.83
9.78
-7.97
-22.85
-32.15
-36.33
-37.95
-40.01
-44.54
-51.89
-60.92
-69.66
-76.37
-80.33
-82.19
-83.54
-85.89
-89.47
-92.52
-91.55
-82.57
-62.85
-32.26
6.35
47.89
86.57
117.48
137.63
146.15
143.79
132.20
113.19
88.39
59.33
27.81
-3.91
-33.16
-57.38
-74.68
-84.21
-86.14
-81.37
-71.22
-57.30
-41.44
-25.50
-10.91
1.70
12.57
22.35
31.41
39.31
44.85
46.80
44.73
39.55
33.20
27.77
24.63
24.06
25.58
28.63
32.97
38.63
45.37
52.20
57.37
58.89
55.52
47.41
36.19
24.42
14.56
8.15
5.54
6.17
9.06
13.17
17.51
21.00
22.54
21.20
16.66
9.48
0.91
-7.58
-14.87
-20.55
-24.79
-28.03
-30.64
-32.83
-34.67
-36.24
-37.54
-38.35
-38.12
-36.11
-31.76
-25.11
-16.96
-8.63
-1.53
3.33
5.66
5.84
4.70
3.16
1.95
1.39
1.53
2.24
3.36
4.75
6.36
8.19
10.22
12.48
14.91
17.38
19.68
21.50
22.51
22.42
21.07
18.44
14.68
10.07
4.97
-0.20
-5.04
-9.25
-12.65
-15.26
-17.20
-18.68
-19.82
-20.78
-21.67
-22.53
-23.26
-23.59
-23.17
-21.62
-18.89
-15.27
-11.41
-8.06
-5.75
-4.61
-4.36
-4.47
-4.41
-3.81
-2.59
-0.83
1.30
3.60
5.90
8.06
9.92
11.30
12.08
12.19
11.73
10.94
10.12
9.50
9.18
9.12
9.12
8.91
8.29
7.16
5.53
3.55
1.33
-1.06
-3.62
-6.37
-9.30
-12.22
-14.85
-16.88
-18.15
-18.65
-18.61
-18.23
-17.53
-16.33
-14.27
-11.09
-6.78
-1.66
3.77
8.94
13.46
17.14
20.02
22.20
23.84
25.04
25.92
26.50
26.78
26.70
26.19
25.13
23.47
21.16
18.21
14.74
11.00
7.34
4.23
1.98
0.80
0.60
1.08
1.80
2.30
2.25
1.50
0.16
-1.53
-3.25
-4.73
-5.81
-6.55
-7.09
-7.67
-8.40
-9.26
-10.12
-10.80
-11.16
-11.22
-11.07
-10.90
-10.83
-10.95
-11.16
-11.31
-11.21
-10.77
-10.02
-9.10
-8.23
-7.57
-7.20
-7.10
-7.18
-7.38
-7.63
-7.98
-8.44
-9.10
-10.04
-11.36
-13.17
-15.54
-18.48
-21.93
-25.63
-29.24
-32.29
-34.26
-34.71
-33.43
-30.59
-26.87
-23.37
-21.39
-22.02
-25.74
-32.27
-40.46
-48.45
-53.98
-54.86
-49.44
-37.18
-18.97
2.98
25.77
46.72
64.27
78.39
90.30
101.62
113.53
126.14
138.51
149.00
155.73
157.10
152.14
140.79
124.14
104.41
84.61
67.87
56.56
51.63
52.20
55.87
59.44
59.78
54.72
43.53
26.94
6.68
-15.10
-36.45
-55.94
-72.72
-86.38
-96.76
-103.93
-108.26
-110.30
-110.60
-109.50
-106.94
-102.64
-96.42
-88.48
-79.55
-70.62
-62.53
-55.68
-49.94
-44.80
-39.62
-33.99
-27.75
-21.05
-14.29
-7.99
-2.71
1.10
3.32
4.20
4.35
4.48
5.07
6.21
7.56
8.55
8.71
7.85
6.16
4.03
1.91
0.07
-1.32
-2.26
-2.73
-2.76
-2.44
-2.00
-1.73
-1.91
-2.64
-3.70
-4.67
-4.96
-4.22
-2.42
0.05
2.46
4.03
4.24
2.95
0.51
-2.49
-5.41
-7.80
-9.57
-10.90
-12.15
-13.59
-15.39
-17.50
-19.76
-21.98
-24.02
-25.82
-27.45
-29.03
-30.67
-32.56
-34.86
-37.64
-40.74
-43.68
-45.70
-46.05
-44.22
-40.26
-34.77
-28.54
-22.16
-15.70
-8.75
-0.81
8.33
18.25
28.05
36.67
43.18
47.06
48.16
46.65
43.01
38.10
33.09
29.33
28.09
30.07
35.27
42.90
51.72
60.38
67.86
73.59
77.53
80.06
81.75
83.21
84.96
87.30
90.19
93.21
95.44
95.70
92.74
85.68
74.29
59.15
41.53
23.05
5.26
-10.69
-24.21
-35.17
-43.69
-50.03
-54.43
-57.16
-58.54
-58.96
-58.87
-58.72
-58.87
-59.54
-60.76
-62.37
-64.10
-65.51
-66.11
-65.43
-63.18
-59.32
-54.10
-47.94
-41.25
-34.32
-27.26
-20.09
-12.90
-5.93
0.48
5.98
10.39
13.79
16.43
18.60
20.48
22.04
23.17
23.72
23.67
23.04
22.00
20.59
18.80
16.59
13.91
10.83
7.54
4.22
0.99
-2.16
-5.32
-8.53
-11.72
-14.72
-17.30
-19.39
-21.00
-22.22
-23.12
-23.61
-23.54
-22.73
-21.15
-19.02
-16.77
-15.04
-14.41
-15.23
-17.43
-20.47
-23.46
-25.41
-25.53
-23.41
-19.20
-13.45
-6.96
-0.49
5.38
10.39
14.60
18.15
21.25
23.96
26.20
27.78
28.55
28.50
27.73
26.40
24.64
22.57
20.24
17.79
15.39
13.24
11.44
9.92
8.52
6.98
5.15
3.06
0.85
-1.24
-3.08
-4.70
-6.32
-8.19
-10.53
-13.32
-16.42
-19.54
-22.40
-24.74
-26.43
-27.33
-27.34
-26.43
-24.67
-22.25
-19.47
-16.55
-13.56
-10.42
-6.98
-3.22
0.68
4.36
7.47
9.80
11.42
12.57
13.51
14.44
15.35
16.13
16.56
16.50
15.85
14.63
13.00
11.19
9.49
8.08
7.03
6.28
5.65
4.97
4.15
3.14
1.98
0.72
-0.55
-1.72
-2.64
-3.13
-3.11
-2.56
-1.60
-0.45
0.64
1.49
1.99
2.13
1.98
1.62
1.08
0.37
-0.58
-1.78
-3.18
-4.64
-5.93
-6.81
-7.10
-6.74
-5.81
-4.55
-3.20
-2.01
-1.08
-0.35
0.30
1.01
1.83
2.66
3.30
3.52
3.24
2.51
1.56
0.69
0.18
0.18
0.69
1.60
2.67
3.61
4.25
4.49
4.36
4.03
3.66
3.38
3.20
3.05
2.88
2.64
2.36
2.05
1.73
1.38
0.96
0.51
0.08
-0.27
-0.57
-0.93
-1.52
-2.48
-3.75
-5.13
-6.26
-6.84
-6.68
-5.83
-4.50
-2.91
-1.31
0.12
1.24
1.93
2.12
1.85
1.28
0.65
0.23
0.19
0.57
1.30
2.27
3.36
4.49
5.59
6.57
7.33
7.78
7.88
7.61
7.07
6.35
5.53
4.69
3.80
2.90
2.02
1.24
0.65
0.28
0.09
-0.07
-0.35
-0.86
-1.60
-2.52
-3.59
-4.85
-6.46
-8.54
-11.14
-14.10
-17.13
-19.88
-22.01
-23.34
-23.79
-23.38
-22.22
-20.48
-18.38
-16.19
-14.09
-12.14
-10.22
-8.05
-5.32
-1.79
2.49
7.20
11.80
15.76
18.77
20.82
22.19
23.21
24.13
24.98
25.65
25.95
25.86
25.48
25.10
24.98
25.26
25.83
26.39
26.57
26.13
25.01
23.32
21.22
18.75
15.82
12.33
8.28
3.87
-0.51
-4.53
-8.03
-11.13
-14.08
-17.04
-19.90
-22.31
-23.81
-24.14
-23.35
-21.84
-20.08
-18.41
-16.88
-15.34
-13.56
-11.47
-9.17
-6.87
-4.78
-2.99
-1.50
-0.24
0.84
1.79
2.63
3.39
4.09
4.68
5.09
5.20
4.97
4.47
3.88
3.39
3.09
2.98
2.99
2.99
2.91
2.69
2.28
1.68
0.89
-0.01
-0.90
-1.64
-2.09
-2.22
-2.04
-1.67
-1.27
-1.04
-1.15
-1.73
-2.82
-4.30
-5.93
-7.41
-8.46
-8.90
-8.72
-8.03
-7.02
-5.86
-4.65
-3.44
-2.31
-1.30
-0.43
0.36
1.15
2.01
2.96
3.91
4.74
5.40
5.94
6.45
7.03
7.68
8.36
8.97
9.44
9.76
9.96
10.05
9.99
9.69
9.06
8.09
6.85
5.53
4.34
3.47
3.01
2.90
2.97
2.98
2.71
2.10
1.23
0.28
-0.58
-1.25
-1.75
-2.20
-2.76
-3.53
-4.53
-5.74
-7.04
-8.32
-9.40
-10.16
-10.44
-10.16
-9.30
-7.89
-6.05
-3.93
-1.72
0.44
2.38
3.99
5.15
5.81
6.01
5.84
5.45
4.99
4.60
4.37
4.36
4.56
4.92
5.32
5.60
5.70
5.63
5.55
5.62
5.93
6.40
6.85
7.09
7.08
6.95
6.90
7.08
7.41
7.60
7.28
6.23
4.51
2.45
0.48
-1.08
-2.15
-2.91
-3.70
-4.78
-6.25
-7.98
-9.63
-10.89
-11.49
-11.34
-10.46
-9.00
-7.13
-5.01
-2.82
-0.74
1.01
2.25
2.92
3.13
3.14
3.25
3.64
4.27
4.96
5.49
5.79
5.93
6.14
6.54
7.13
7.75
8.17
8.33
8.32
8.32
8.43
8.62
8.72
8.50
7.86
6.83
5.59
4.39
3.42
2.79
2.48
2.37
2.25
1.89
1.14
0.03
-1.28
-2.56
-3.65
-4.51
-5.30
-6.19
-7.30
-8.54
-9.75
-10.68
-11.21
-11.36
-11.28
-11.05
-10.68
-10.01
-8.86
-7.15
-4.98
-2.65
-0.49
1.32
2.83
4.22
5.71
7.36
9.02
10.42
11.28
11.51
11.23
10.68
10.11
9.64
9.23
8.76
8.12
7.26
6.30
5.38
4.64
4.14
3.82
3.54
3.15
2.59
1.89
1.16
0.53
0.08
-0.22
-0.44
-0.65
-0.90
-1.18
-1.52
-1.95
-2.59
-3.56
-4.91
-6.55
-8.28
-9.86
-11.09
-11.89
-12.30
-12.45
-12.39
-12.06
-11.35
-10.16
-8.49
-6.54
-4.58
-2.84
-1.42
-0.26
0.82
1.95
3.17
4.33
5.24
5.76
5.93
5.89
5.86
5.95
6.15
6.34
6.45
6.47
6.55
6.79
7.27
7.90
8.45
8.72
8.55
7.95
7.03
5.97
4.96
4.15
3.57
3.12
2.64
1.90
0.78
-0.65
-2.17
-3.46
-4.26
-4.49
-4.25
-3.83
-3.52
-3.55
-4.02
-4.87
-5.94
-7.04
-8.03
-8.80
-9.29
-9.50
-9.40
-8.98
-8.28
-7.36
-6.27
-5.08
-3.84
-2.63
-1.56
-0.75
-0.28
-0.10
-0.06
0.03
0.31
0.80
1.42
2.02
2.51
2.82
2.92
2.81
2.48
2.02
1.60
1.44
1.66
2.25
3.00
3.62
3.96
4.02
3.94
3.84
3.71
3.39
2.70
1.61
0.41
-0.49
-0.68
-0.09
1.03
2.16
2.77
2.58
1.58
-0.00
-1.91
-3.90
-5.79
-7.42
-8.61
-9.16
-8.96
-8.09
-6.76
-5.34
-4.10
-3.15
-2.36
-1.49
-0.39
0.87
2.06
2.89
3.21
3.15
3.00
3.07
3.43
3.93
4.34
4.50
4.45
4.35
4.33
4.34
4.26
3.99
3.57
3.20
3.08
3.28
3.69
4.08
4.27
4.19
3.91
3.57
3.23
2.88
2.42
1.76
0.89
-0.10
-1.12
-2.09
-3.01
-3.92
-4.89
-5.89
-6.83
-7.52
-7.78
-7.62
-7.14
-6.60
-6.20
-6.03
-5.96
-5.75
-5.17
-4.14
-2.75
-1.28
-0.00
0.89
1.35
1.54
1.67
1.95
2.47
3.17
3.94
4.64
5.16
5.36
5.17
4.58
3.75
2.89
2.22
1.88
1.78
1.77
1.70
1.57
1.48
1.54
1.75
2.02
2.15
2.06
1.77
1.40
1.04
0.72
0.36
-0.07
-0.56
-1.02
-1.41
-1.74
-2.08
-2.56
-3.23
-4.08
-5.06
-6.08
-7.04
-7.85
-8.35
-8.38
-7.87
-6.91
-5.72
-4.60
-3.80
-3.37
-3.21
-3.10
-2.81
-2.26
-1.50
-0.69
0.05
0.62
1.04
1.38
1.73
2.13
2.57
2.99
3.37
3.73
4.15
4.70
5.38
6.09
6.62
6.80
6.57
5.99
5.21
4.44
3.84
3.45
3.30
3.32
3.41
3.45
3.33
2.96
2.33
1.53
0.68
-0.07
-0.61
-0.91
-1.02
-1.07
-1.23
-1.64
-2.39
-3.45
-4.72
-6.09
-7.40
-8.51
-9.27
-9.53
-9.21
-8.35
-7.12
-5.74
-4.36
-3.05
-1.80
-0.59
0.55
1.58
2.47
3.26
4.01
4.78
5.57
6.34
6.99
7.42
7.53
7.27
6.68
5.86
5.03
4.42
4.16
4.23
4.43
4.53
4.38
4.02
3.58
3.19
2.86
2.50
2.00
1.28
0.36
-0.63
-1.54
-2.25
-2.71
-2.95
-3.04
-3.10
-3.18
-3.30
-3.41
-3.48
-3.53
-3.73
-4.27
-5.24
-6.51
-7.75
-8.50
-8.44
-7.54
-6.09
-4.50
-3.13
-2.10
-1.35
-0.73
-0.13
0.41
0.79
0.99
1.12
1.39
1.98
2.92
3.99
4.88
5.31
5.23
4.81
4.37
4.19
4.39
4.88
5.45
5.83
5.81
5.36
4.54
3.47
2.29
1.09
-0.01
-0.89
-1.40
-1.43
-1.01
-0.37
0.13
0.19
-0.32
-1.20
-2.09
-2.63
-2.68
-2.39
-2.12
-2.20
-2.75
-3.63
-4.59
-5.36
-5.80
-5.86
-5.56
-4.96
-4.12
-3.20
-2.37
-1.81
-1.55
-1.47
-1.37
-1.08
-0.56
0.05
0.58
0.93
1.17
1.49
2.02
2.72
3.38
3.69
3.48
2.81
1.93
1.12
0.59
0.36
0.27
0.18
-0.01
-0.26
-0.44
-0.48
-0.37
-0.19
-0.06
-0.04
-0.09
-0.10
0.04
0.35
0.69
0.84
0.59
-0.19
-1.43
-2.95
-4.48
-5.76
-6.59
-6.89
-6.62
-5.89
-4.87
-3.82
-3.02
-2.63
-2.64
-2.87
-3.00
-2.78
-2.11
-1.05
0.23
1.51
2.61
3.41
3.90
4.20
4.42
4.71
5.14
5.64
6.02
6.06
5.61
4.71
3.55
2.49
1.81
1.62
1.78
2.00
1.93
1.39
0.40
-0.83
-1.99
-2.82
-3.19
-3.14
-2.86
-2.57
-2.44
-2.49
-2.60
-2.57
-2.18
-1.38
-0.25
0.99
1.99
2.41
1.97
0.48
-2.11
-5.70
-10.02
-14.54
-18.60
-21.47
-22.62
-21.92
-19.73
-16.81
-14.00
-11.86
-10.43
-9.24
-7.79
-5.84
-3.66
-1.63
0.24
2.73
7.22
14.87
25.74
38.34
50.06
58.26
61.37
59.43
53.78
46.09
37.52
28.35
18.40
7.62
-3.38
-13.50
-21.71
-27.64
-31.83
-35.45
-39.53
-44.40
-49.37
-53.09
-54.22
-52.07
-46.95
-39.96
-32.46
-25.48
-19.43
-14.15
-9.35
-5.04
-1.81
-0.71
-2.95
-9.24
-19.52
-32.84
-47.76
-63.02
-77.95
-92.74
-108.24
-125.44
-145.06
-167.06
-190.60
-213.94
-234.57
-249.51
-255.93
-251.81
-236.54
-211.14
-177.84
-139.23
-97.28
-53.00
-6.75
40.79
87.84
131.34
167.72
194.20
209.93
216.27
216.17
212.99
209.20
205.88
202.87
199.43
195.04
189.78
184.33
179.60
176.25
174.40
173.60
172.92
171.30
167.85
162.01
153.70
143.09
130.59
116.72
102.05
87.23
72.88
59.61
47.84
37.81
29.56
22.90
17.47
12.73
7.98
2.46
-4.49
-13.22
-23.45
-34.25
-44.14
-51.57
-55.35
-55.09
-51.26
-45.05
-38.03
-31.80
-27.73
-26.84
-29.72
-36.37
-46.08
-57.41
-68.24
-76.36
-80.02
-78.52
-72.47
-63.54
-53.82
-45.19
-38.72
-34.54
-32.11
-30.66
-29.65
-28.97
-28.90
-29.80
-31.93
-35.15
-38.86
-42.22
-44.28
-44.38
-42.42
-38.90
-34.74
-30.84
-27.67
-25.15
-22.77
-20.06
-16.94
-13.83
-11.42
-10.26
-10.48
-11.88
-14.17
-17.29
-21.34
-26.34
-31.82
-36.69
-39.55
-39.19
-35.13
-27.61
-17.36
-5.05
8.85
23.92
39.44
54.25
66.93
76.42
82.49
85.78
87.41
88.25
88.44
87.37
84.22
78.58
70.83
62.07
53.54
46.15
40.19
35.45
31.61
28.50
26.19
24.90
24.70
25.42
26.73
28.37
30.41
33.27
37.49
43.43
50.86
59.01
66.76
73.04
77.16
78.87
78.20
75.38
70.69
64.55
57.53
50.26
43.36
37.19
31.77
26.81
21.83
16.41
10.30
3.47
-3.98
-11.95
-20.38
-29.32
-38.88
-49.07
-59.66
-70.16
-79.84
-88.06
-94.50
-99.31
-103.05
-106.34
-109.56
-112.60
-115.09
-116.53
-116.68
-115.60
-113.56
-110.79
-107.33
-102.97
-97.50
-90.89
-83.40
-75.61
-68.11
-61.38
-55.66
-50.85
-46.74
-43.01
-39.42
-35.74
-31.80
-27.52
-22.94
-18.18
-13.48
-9.06
-5.10
-1.66
1.17
3.35
4.79
5.53
5.76
5.86
6.36
7.66
9.90
12.79
15.70
17.93
18.96
18.70
17.56
16.24
15.45
15.61
16.72
18.30
19.67
20.11
19.08
16.24
11.58
5.32
-1.97
-9.51
-16.38
-21.87
-25.80
-28.57
-31.05
-34.12
-38.31
-43.58
-49.36
-54.87
-59.35
-62.30
-63.38
-62.43
-59.37
-54.26
-47.31
-38.95
-29.71
-20.16
-10.74
-1.71
6.88
15.12
23.11
31.00
38.80
46.45
53.82
60.62
66.58
71.39
74.79
76.65
76.92
75.71
73.19
69.68
65.50
61.04
56.55
52.17
47.86
43.44
38.75
33.78
28.71
23.88
19.69
16.39
14.06
12.53
11.54
10.74
9.83
8.60
6.97
5.00
2.82
0.57
-1.68
-3.83
-5.71
-7.10
-7.74
-7.46
-6.38
-4.79
-3.11
-1.68
-0.65
-0.00
0.33
0.35
-0.07
-1.12
-2.83
-5.12
-7.68
-10.11
-12.05
-13.34
-14.11
-14.94
-16.83
-20.89
-27.86
-37.63
-48.93
-59.61
-67.36
-70.60
-68.98
-63.44
-55.65
-47.32
-39.69
-33.46
-28.99
-26.59
-26.44
-28.39
-31.63
-34.78
-36.24
-34.83
-30.32
-23.37
-15.14
-6.66
1.66
10.05
19.02
28.78
38.97
48.59
56.43
61.49
63.29
61.97
58.12
52.65
46.60
41.09
37.19
35.75
37.17
41.25
47.08
53.31
58.35
60.79
59.65
54.60
45.96
34.74
22.45
10.90
1.75
-3.89
-5.75
-4.36
-0.79
3.87
8.84
13.84
18.89
23.93
28.63
32.29
34.08
33.31
29.62
23.13
14.39
4.37
-5.63
-14.16
-19.86
-21.74
-19.45
-13.39
-4.65
5.31
14.88
22.74
28.04
30.52
30.41
28.22
24.54
19.90
14.76
9.58
4.89
1.18
-1.35
-2.96
-4.38
-6.55
-10.18
-15.42
-21.77
-28.31
-34.04
-38.23
-40.44
-40.43
-38.02
-32.92
-25.03
-14.52
-2.13
10.97
23.36
33.74
41.22
45.51
46.81
45.69
42.84
38.85
34.24
29.38
24.59
20.17
16.29
13.07
10.35
7.77
4.76
0.77
-4.51
-11.15
-18.88
-27.23
-35.62
-43.38
-49.87
-54.49
-56.91
-57.25
-56.09
-54.25
-52.50
-51.19
-50.13
-48.83
-46.82
-43.94
-40.49
-37.00
-33.88
-31.30
-29.05
-26.76
-24.08
-20.80
-16.98
-12.83
-8.56
-4.32
-0.23
3.58
6.92
9.57
11.37
12.44
13.09
13.76
14.87
16.67
19.22
22.46
26.23
30.22
33.87
36.38
36.90
34.86
30.37
24.32
18.07
12.94
9.78
8.71
9.28
10.84
12.87
15.10
17.48
19.90
22.00
23.13
22.52
19.56
14.06
6.36
-2.79
-12.43
-21.67
-29.82
-36.36
-40.86
-42.96
-42.49
-39.60
-34.86
-29.21
-23.65
-18.86
-15.15
-12.45
-10.63
-9.64
-9.52
-10.21
-11.32
-12.20
-12.19
-10.97
-8.74
-6.14
-3.88
-2.36
-1.54
-1.04
-0.44
0.44
1.42
2.16
2.32
1.70
0.30
-1.84
-4.65
-8.04
-11.93
-16.18
-20.55
-24.71
-28.32
-31.03
-32.64
-33.12
-32.67
-31.53
-29.92
-27.85
-25.18
-21.75
-17.56
-12.89
-8.07
-3.34
1.34
6.25
11.70
17.72
23.95
29.78
34.63
38.09
40.05
40.44
39.13
35.91
30.60
23.39
14.82
5.67
-3.39
-11.99
-19.98
-27.23
-33.35
-37.75
-39.92
-39.86
-38.25
-36.08
-34.05
-31.99
-28.85
-23.29
-14.47
-2.68
10.66
23.60
34.50
42.59
48.03
51.49
53.51
54.16
52.90
49.00
42.00
31.97
19.65
6.28
-6.77
-18.30
-27.64
-34.77
-40.17
-44.60
-48.78
-52.92
-56.48
-58.11
-55.96
-48.23
-33.96
-13.58
11.00
36.78
60.41
79.04
90.86
95.34
93.15
85.85
75.60
64.70
55.22
48.56
45.11
44.10
43.87
42.44
38.06
29.81
17.80
3.04
-12.82
-27.89
-40.33
-48.59
-51.77
-49.81
-43.69
-35.39
-27.41
-22.12
-20.92
-23.77
-29.19
-34.85
-38.51
-38.88
-36.20
-32.19
-29.40
-30.34
-36.64
-48.44
-64.26
-81.22
-95.55
-103.37
-101.33
-87.35
-61.06
-24.07
20.08
66.46
109.53
144.20
166.85
176.05
172.75
159.83
141.29
121.15
102.57
87.30
75.69
66.79
58.93
50.10
38.50
23.11
4.06
-17.14
-37.80
-54.64
-64.78
-66.77
-61.34
-51.37
-41.20
-35.13
-36.00
-44.15
-57.48
-72.49
-85.81
-95.40
-100.94
-103.24
-103.27
-101.34
-96.96
-89.40
-78.41
-64.70
-49.76
-35.35
-22.69
-12.13
-3.19
4.93
12.79
20.31
26.72
30.91
31.90
29.35
23.72
16.14
8.02
0.75
-4.59
-7.29
-6.89
-3.26
3.49
12.93
24.26
36.41
48.00
57.56
63.70
65.39
62.24
54.52
43.20
29.70
15.62
2.60
-7.91
-14.74
-17.20
-15.29
-9.78
-2.07
6.06
12.89
17.10
18.03
15.59
10.25
2.94
-5.12
-12.57
-18.20
-21.16
-21.19
-18.59
-14.03
-8.35
-2.26
3.68
9.11
13.80
17.60
20.44
22.35
23.43
23.80
23.53
22.56
20.69
17.56
12.81
6.24
-2.16
-12.03
-22.71
-33.12
-41.84
-47.20
-47.58
-41.84
-29.86
-12.84
6.72
25.66
41.10
51.35
56.41
57.68
57.13
56.24
55.37
53.83
50.49
44.60
36.37
26.84
17.39
9.14
2.52
-2.76
-7.33
-11.81
-16.52
-21.40
-26.13
-30.24
-33.28
-34.89
-34.91
-33.35
-30.51
-26.81
-22.86
-19.27
-16.75
-15.97
-17.40
-21.21
-26.95
-33.67
-40.07
-44.88
-47.23
-46.77
-43.67
-38.38
-31.49
-23.66
-15.73
-8.71
-3.54
-0.76
-0.17
-0.77
-1.16
0.02
3.43
8.85
15.28
21.36
25.97
28.61
29.55
29.60
29.66
30.32
31.63
33.10
33.88
33.01
29.69
23.49
14.64
4.27
-5.59
-12.34
-13.51
-7.72
4.70
21.61
39.60
55.00
64.75
67.04
61.44
48.83
31.08
10.72
-9.33
-26.30
-38.04
-43.43
-42.64
-37.02
-28.74
-20.12
-13.14
-8.92
-7.73
-9.08
-12.04
-15.58
-18.76
-20.88
-21.49
-20.42
-17.68
-13.48
-8.17
-2.19
3.88
9.41
13.72
16.18
16.43
14.46
10.64
5.60
0.14
-4.99
-9.00
-11.20
-11.06
-8.35
-3.29
3.56
11.52
20.10
29.09
38.44
47.93
56.81
63.77
67.27
66.11
60.02
49.91
37.50
24.82
13.42
3.96
-3.78
-10.54
-17.14
-24.10
-31.65
-39.73
-48.01
-55.91
-62.53
-66.82
-67.92
-65.59
-60.42
-53.61
-46.53
-40.09
-34.47
-29.24
-23.85
-18.06
-12.33
-7.68
-5.33
-6.07
-9.81
-15.35
-20.69
-23.58
-22.44
-16.91
-8.09
1.92
10.84
17.17
20.77
22.83
25.31
29.95
37.44
46.88
56.04
62.05
62.54
56.50
44.79
29.85
14.88
2.78
-4.78
-7.78
-7.56
-6.12
-5.29
-6.07
-8.49
-11.81
-15.11
-17.55
-18.49
-17.27
-13.09
-5.23
6.51
21.19
36.61
49.68
57.39
57.93
51.32
39.44
25.33
12.12
2.09
-3.85
-6.00
-5.45
-3.54
-1.35
0.37
1.26
1.16
0.07
-1.91
-4.58
-7.61
-10.63
-13.38
-15.79
-18.00
-20.31
-22.97
-26.08
-29.46
-32.62
-34.88
-35.62
-34.49
-31.62
-27.58
-23.14
-18.91
-15.13
-11.59
-7.86
-3.61
1.21
6.31
11.25
15.59
19.01
21.31
22.43
22.43
21.55
20.21
18.92
17.97
17.27
16.22
13.96
9.74
3.27
-5.04
-14.25
-23.11
-30.43
-35.23
-36.93
-35.34
-30.82
-24.19
-16.72
-9.75
-4.47
-1.48
-0.77
-1.85
-4.08
-6.94
-10.24
-13.93
-17.94
-22.05
-25.79
-28.62
-30.17
-30.40
-29.67
-28.70
-28.30
-29.16
-31.43
-34.55
-37.34
-38.56
-37.72
-35.74
-34.97
-38.34
-47.91
-63.51
-82.19
-99.02
-108.88
-108.47
-97.53
-78.88
-57.07
-36.77
-21.32
-12.03
-8.11
-7.10
-5.57
0.04
12.43
32.73
60.01
91.36
122.64
149.82
170.27
183.53
191.09
195.38
198.56
201.48
203.42
202.60
197.28
186.91
172.61
156.70
141.51
128.13
115.97
103.12
87.51
67.94
44.71
19.27
-6.54
-31.24
-54.12
-74.96
-93.49
-108.95
-120.21
-126.30
-127.10
-123.68
-117.97
-112.02
-106.92
-102.50
-97.64
-91.27
-83.18
-73.97
-64.31
-53.92
-41.26
-24.18
-1.18
27.41
59.18
90.42
117.47
137.92
150.89
156.85
157.00
152.80
145.63
136.64
126.50
115.31
102.68
88.18
71.90
54.81
38.66
25.46
16.80
13.24
14.04
17.36
20.74
21.92
19.63
13.95
6.18
-1.79
-8.34
-12.57
-14.21
-13.33
-10.03
-4.45
3.14
12.18
21.98
31.97
41.90
51.61
60.34
66.23
66.58
58.96
42.75
20.17
-4.03
-24.36
-36.73
-40.20
-36.92
-30.82
-25.73
-24.02
-26.36
-32.27
-40.92
-51.32
-62.06
-70.56
-73.09
-66.07
-47.99
-21.11
8.70
33.80
47.99
48.87
38.63
22.42
5.24
-10.91
-28.12
-50.91
-83.07
-124.64
-171.23
-214.73
-246.52
-261.62
-261.64
-254.68
-251.68
-261.18
-285.08
-319.06
-353.80
-378.98
-387.43
-377.73
-353.57
-320.69
-283.37
-243.05
-201.08
-158.21
-114.68
-70.43
-26.12
16.60
55.74
89.92
118.69
139.27
148.56
144.71
127.85
99.25
60.96
16.27
-30.00
-55.46
-44.13
3.67
70.96
137.43
190.81
228.14
251.92
266.59
276.28
281.11
279.34
270.56
256.84
240.62
224.59
210.30
198.44
189.12
179.97
167.76
151.33
132.09
112.63
95.12
80.35
67.51
53.96
40.40
24.63
5.52
-16.21
-38.62
-59.77
-78.37
-93.99
-107.02
-119.20
-133.59
-152.72
-178.48
-211.86
-252.19
-296.06
-337.17
-367.80
-381.77
-377.30
-356.55
-324.61
-287.25
-248.74
-210.52
-171.67
-130.51
-86.17
-39.65
7.59
53.26
94.07
125.48
143.08
144.46
130.76
106.90
79.92
57.67
45.71
46.05
56.72
74.00
94.36
115.41
135.64
148.69
148.48
133.51
108.59
79.98
52.16
27.40
6.69
-9.77
-22.41
-30.07
-33.89
-34.91
-34.87
-35.06
-35.67
-35.67
-33.32
-26.59
-12.66
7.40
32.89
61.91
91.58
118.65
139.46
150.65
150.22
139.34
122.39
106.55
98.54
102.24
117.39
139.91
164.18
185.49
201.82
213.23
220.78
224.35
222.64
214.37
199.46
179.72
157.97
136.85
117.58
100.14
83.74
68.03
53.79
42.91
37.63
39.63
49.17
64.69
83.10
100.27
111.96
114.99
107.87
90.97
65.96
35.19
1.14
-33.72
-66.92
-96.19
-119.71
-136.64
-147.35
-153.45
-157.15
-160.45
-164.47
-169.33
-174.38
-178.74
-181.71
-183.03
-182.78
-181.16
-178.25
-173.89
-167.69
-159.42
-149.17
-137.52
-125.36
-113.56
-102.67
-92.77
-83.70
-75.27
-67.49
-60.52
-54.51
-49.34
-44.66
-40.12
-35.59
-31.33
-27.70
-25.00
-23.21
-22.05
-21.20
-20.38
-19.48
-18.44
-17.26
-15.92
-14.37
-12.55
-10.38
-7.85
-5.09
-2.42
-0.29
0.93
1.19
0.80
0.25
-0.02
0.07
0.38
0.63
0.79
1.11
1.98
3.65
6.09
9.01
11.98
14.61
16.54
17.51
17.31
15.95
13.78
11.47
9.79
9.20
9.59
10.29
10.42
9.36
7.10
4.21
1.47
-0.51
-1.57
-1.97
-2.01
-1.88
-1.51
-0.74
0.44
1.77
2.84
3.27
2.94
2.06
1.01
0.19
-0.30
-0.57
-0.92
-1.54
-2.46
-3.55
-4.58
-5.41
-6.06
-6.60
-7.06
-7.34
-7.19
-6.32
-4.60
-2.07
1.03
4.32
7.42
10.02
11.91
13.08
13.67
13.91
14.05
14.20
14.34
14.35
14.10
13.60
12.96
12.36
11.99
11.91
12.12
12.54
13.07
13.61
14.00
14.15
14.03
13.75
13.52
13.55
13.94
14.62
15.44
16.26
17.10
18.18
19.82
22.27
25.52
29.20
32.59
34.83
35.14
33.17
29.14
23.79
18.25
13.74
11.19
11.06
13.21
16.88
20.91
24.02
25.20
23.93
20.35
15.14
9.24
3.43
-2.00
-7.38
-13.42
-20.80
-29.67
-39.41
-48.72
-56.12
-60.57
-61.83
-60.45
-57.39
-53.53
-49.30
-44.83
-40.20
-35.70
-31.81
-28.92
-27.00
-25.58
-23.99
-21.78
-18.99
-16.14
-13.88
-12.52
-11.91
-11.49
-10.75
-9.57
-8.37
-7.91
-8.87
-11.55
-15.77
-20.97
-26.56
-32.11
-37.40
-42.35
-46.93
-51.03
-54.66
-57.78
-60.37
-62.14
-62.55
-60.92
-56.94
-51.05
-44.58
-39.42
-37.37
-39.47
-45.70
-55.15
-66.50
-78.36
-89.38
-98.12
-102.89
-101.89
-93.72
-77.89
-55.29
-27.89
1.72
31.27
59.28
85.38
109.95
133.79
157.82
183.17
211.45
244.85
285.46
333.89
387.96
442.05
488.10
518.02
526.41
512.41
479.67
434.57
383.75
332.29
283.12
237.61
196.50
160.23
128.73
101.03
75.36
50.27
25.95
4.91
-8.76
-11.34
-1.95
16.22
36.40
50.73
53.26
42.14
19.88
-8.37
-37.28
-63.53
-86.50
-107.56
-128.82
-152.25
-179.60
-212.61
-252.58
-299.15
-348.89
-394.98
-428.78
-442.98
-434.59
-406.43
-365.76
-321.16
-279.17
-242.50
-210.54
-181.27
-153.21
-126.27
-101.23
-78.74
-58.74
-40.64
-24.04
-9.26
2.81
11.09
15.10
15.38
13.42
11.23
10.62
12.58
16.87
22.24
27.00
29.78
30.13
28.62
26.42
24.55
23.30
22.17
20.24
16.77
11.70
5.65
-0.58
-6.54
-12.40
-18.88
-26.72
-36.18
-46.76
-57.42
-66.93
-74.29
-78.98
-80.84
-79.95
-76.25
-69.57
-59.75
-46.93
-31.81
-15.68
-0.30
12.45
20.99
24.44
22.98
17.92
11.28
5.00
0.16
-3.44
-6.79
-10.95
-16.27
-22.37
-28.75
-35.30
-42.19
-48.97
-53.81
-53.76
-46.44
-32.00
-13.96
2.12
11.56
13.38
11.04
10.60
17.46
33.83
58.45
88.31
120.77
154.45
188.44
220.86
248.32
266.83
273.49
268.01
252.84
231.98
209.58
188.66
170.79
156.28
144.66
134.92
125.80
116.19
105.60
94.50
84.17
76.12
71.11
68.80
67.90
66.88
64.78
61.55
57.55
52.64
45.69
35.04
19.91
1.67
-16.00
-28.45
-32.63
-28.98
-21.67
-16.53
-18.04
-27.01
-40.41
-53.55
-62.89
-67.80
-70.19
-72.52
-75.69
-78.54
-79.09
-76.50
-72.16
-68.99
-69.60
-74.34
-80.94
-85.80
-86.26
-82.14
-75.67
-70.07
-67.72
-69.22
-73.83
-80.81
-90.22
-102.88
-119.27
-138.44
-157.97
-174.90
-187.34
-195.28
-200.41
-205.00
-210.63
-217.66
-225.38
-232.61
-238.12
-240.69
-238.92
-231.34
-216.89
-195.52
-168.43
-137.70
-105.27
-71.99
-37.16
0.86
43.28
89.47
136.12
177.97
209.43
226.85
229.97
221.97
207.95
192.66
178.71
166.19
153.75
140.18
125.70
111.82
100.32
91.97
86.04
80.68
74.14
65.76
56.30
47.49
40.95
37.23
35.60
34.47
32.32
28.47
23.28
17.80
13.15
10.00
8.46
8.34
9.35
11.17
13.32
15.10
15.74
14.73
12.14
8.71
5.45
3.14
2.02
1.74
1.64
1.15
-0.02
-1.84
-4.14
-6.74
-9.52
-12.31
-14.80
-16.57
-17.27
-16.82
-15.46
-13.71
-12.15
-11.20
-10.97
-11.27
-11.72
-11.87
-11.34
-9.89
-7.52
-4.54
-1.54
0.82
2.05
2.11
1.44
0.73
0.60
1.33
2.81
4.71
6.75
8.78
10.73
12.51
14.03
15.12
15.72
15.87
15.73
15.51
15.24
14.68
13.52
11.57
8.92
5.93
3.12
0.86
-0.57
-1.25
-1.50
-1.57
-1.49
-0.93
0.54
3.22
7.09
12.11
17.70
22.94
27.06
29.95
32.12
34.33
37.03
40.08
43.65
47.20
49.93
51.36
51.88
52.61
54.51
57.87
62.34
68.52
76.17
83.91
89.60
91.61
89.62
84.93
80.27
79.14
85.96
101.77
123.02
142.96
155.04
155.71
145.29
126.87
94.40
49.69
1.31
-40.72
-71.37
-90.50
-99.49
-99.58
-92.60
-81.12
-66.90
-52.69
-41.54
-35.99
-35.55
-36.91
-36.16
-32.34
-26.21
-19.12
-13.65
-12.30
-17.41
-27.77
-38.86
-45.74
-46.91
-43.93
-39.91
-38.84
-44.22
-60.46
-88.81
-127.18
-165.71
-197.61
-217.96
-223.86
-216.35
-201.44
-192.17
-199.81
-227.96
-271.04
-317.91
-355.26
-372.45
-365.86
-320.02
-240.65
-150.96
-74.92
-21.87
11.93
34.24
50.41
61.62
66.98
63.24
51.26
37.06
27.20
24.83
29.14
37.19
45.45
51.47
52.34
48.55
44.21
44.66
53.82
69.89
91.02
115.63
142.97
171.39
199.73
226.78
250.04
265.35
268.53
258.10
235.90
206.49
174.64
144.52
118.93
98.80
83.61
72.06
63.19
56.17
50.16
44.16
37.57
30.53
23.66
17.60
12.62
8.77
5.63
2.68
-0.59
-4.47
-9.04
-14.15
-19.45
-24.47
-28.64
-31.73
-33.97
-36.05
-38.79
-42.72
-47.74
-53.06
-57.51
-60.12
-60.54
-59.22
-57.09
-55.05
-53.56
-52.44
-51.09
-48.94
-45.76
-41.79
-37.57
-33.57
-29.91
-26.32
-22.38
-17.81
-12.76
-7.74
-3.35
0.01
2.33
3.88
4.91
5.52
5.65
5.20
4.25
3.14
2.28
2.08
2.75
4.23
6.22
8.25
9.74
10.14
9.07
6.53
2.89
-1.14
-4.82
-7.69
-9.66
-11.00
-12.02
-12.86
-13.45
-13.54
-12.93
-11.63
-9.86
-7.93
-6.11
-4.49
-2.97
-1.45
0.07
1.40
2.29
2.56
2.29
1.76
1.44
1.68
2.60
4.05
5.62
6.83
7.34
7.03
5.96
4.30
2.30
0.21
-1.68
-3.07
-3.76
-3.75
-3.30
-2.86
-2.89
-3.69
-5.17
-6.89
-8.33
-9.10
-9.17
-8.78
-8.38
-8.23
-8.40
-8.65
-8.61
-8.01
-6.81
-5.37
-4.25
-4.07
-5.13
-7.31
-10.03
-12.47
-13.95
-14.15
-13.24
-11.69
-10.04
-8.64
-7.56
-6.75
-6.10
-5.59
-5.20
-4.90
-4.57
-4.09
-3.26
-2.14
-1.02
-0.31
-0.29
-0.96
-2.07
-3.31
-4.46
-5.37
-5.99
-6.42
-6.75
-7.18
-8.05
-9.79
-12.80
-17.12
-22.06
-26.57
-29.74
-31.26
-31.64
-32.00
-33.62
-37.40
-43.37
-50.05
-55.81
-59.72
-61.99
-63.65
-66.00
-70.07
-76.37
-84.79
-93.35
-100.44
-105.37
-108.09
-108.11
-103.95
-93.79
-76.42
-51.82
-18.97
21.75
68.68
119.74
173.58
229.37
285.11
336.88
379.18
409.74
427.36
432.04
424.92
408.50
386.04
359.87
331.46
282.97
208.54
117.07
27.77
-43.59
-92.45
-123.01
-142.66
-156.85
-167.84
-172.68
-168.85
-157.12
-141.78
-128.09
-120.11
-120.49
-129.96
-147.09
-166.70
-183.18
-191.67
-189.06
-174.18
-145.42
-108.83
-72.77
-44.52
-26.31
-16.75
-12.58
-11.06
-10.80
-11.51
-13.64
-16.40
-18.12
-16.62
-11.28
-3.42
4.13
8.96
10.14
8.42
6.54
7.91
15.72
30.86
51.29
71.75
85.21
85.25
68.60
37.32
-1.66
-39.31
-68.14
-84.88
-91.36
-92.58
-94.12
-99.62
-109.21
-120.20
-128.69
-131.44
-126.77
-115.15
-98.92
-81.76
-67.84
-60.36
-60.93
-69.20
-83.18
-99.82
-115.57
-126.82
-129.36
-120.15
-98.39
-66.10
-27.92
10.03
41.88
63.65
74.38
76.08
72.40
67.21
63.20
61.40
61.43
62.28
63.24
64.42
66.62
70.53
76.19
82.76
88.82
92.90
93.71
90.28
81.98
68.70
51.06
30.75
10.61
-5.84
-15.18
-14.84
-3.56
18.39
49.44
87.05
127.89
168.36
204.99
234.78
255.38
265.16
263.56
251.36
230.85
205.19
177.96
152.33
130.43
112.79
98.73
87.09
77.10
68.84
62.16
56.61
51.42
45.80
38.79
29.41
16.87
0.93
-17.97
-39.92
-65.15
-93.63
-124.57
-156.63
-188.15
-217.49
-243.21
-258.97
-259.05
-242.01
-212.52
-178.13
-144.99
-115.94
-91.44
-70.90
-53.42
-39.21
-28.91
-22.74
-20.05
-19.62
-20.11
-20.59
-21.07
-21.04
-20.78
-20.62
-20.54
-18.92
-15.33
-9.80
-2.96
4.31
11.36
17.47
22.37
26.36
29.92
33.43
36.76
39.06
39.29
36.86
31.68
24.37
16.02
7.19
-1.64
-10.75
-20.97
-33.13
-47.80
-65.27
-85.46
-105.85
-124.70
-138.34
-142.15
-132.68
-109.61
-76.62
-40.48
-8.49
14.41
26.96
31.70
32.58
32.71
33.07
32.98
31.41
28.25
24.53
21.55
20.32
20.69
21.60
21.68
20.02
16.79
13.07
10.45
10.30
13.15
18.50
25.02
31.01
35.05
36.54
35.83
34.05
32.54
32.42
34.12
37.23
40.75
43.61
45.09
45.13
44.40
43.81
44.33
46.67
51.25
58.10
66.69
75.48
81.81
82.41
74.51
57.19
32.19
3.58
-23.58
-45.00
-58.46
-63.91
-62.73
-56.47
-46.23
-32.69
-16.70
0.19
15.74
27.57
34.06
34.97
31.49
25.78
19.94
15.04
10.58
5.11
-3.41
-16.54
-34.48
-55.41
-75.65
-90.29
-94.18
-83.24
-55.69
-13.12
39.20
93.09
139.10
168.94
177.43
163.68
130.80
84.60
31.96
-20.43
-66.69
-102.10
-123.36
-129.17
-120.65
-101.39
-76.79
-52.71
-34.09
-23.82
-22.53
-28.97
-40.90
-55.98
-72.42
-89.23
-106.23
-123.63
-141.72
-160.62
-180.13
-199.59
-217.72
-232.53
-241.53
-242.13
-232.48
-212.14
-182.33
-145.64
-105.05
-62.78
-19.68
24.38
69.28
113.46
153.60
185.69
206.72
216.16
216.04
209.75
200.20
188.46
173.79
154.77
130.89
103.59
76.08
52.14
34.61
24.44
20.63
21.08
23.61
26.82
30.35
34.60
39.98
46.24
52.27
56.59
58.20
57.39
55.84
56.07
60.23
69.00
81.00
93.15
101.70
103.63
97.81
85.43
69.72
54.94
45.15
43.18
49.84
63.56
80.61
95.75
103.41
99.11
80.74
49.22
8.31
-36.51
-79.54
-116.06
-143.10
-159.51
-165.53
-162.45
-152.28
-137.65
-121.59
-107.13
-96.69
-91.55
-91.56
-95.27
-100.60
-105.59
-108.99
-110.51
-110.55
-109.76
-108.59
-107.16
-105.30
-102.73
-99.28
-94.97
-90.01
-84.68
-79.24
-73.77
-67.90
-60.83
-51.36
-38.23
-20.61
1.52
27.23
54.86
82.46
108.35
131.33
150.68
165.95
176.71
182.46
182.71
177.15
165.92
149.69
129.69
107.59
85.41
65.25
49.09
38.36
33.53
33.87
37.78
43.33
49.16
55.02
61.76
70.74
82.87
98.01
114.59
129.97
140.97
144.63
138.77
122.38
95.97
61.60
22.62
-17.07
-53.98
-86.06
-113.24
-137.19
-160.35
-184.61
-210.16
-235.04
-255.60
-267.72
-268.30
-256.15
-232.31
-199.66
-162.18
-124.24
-89.93
-62.59
-44.14
-34.38
-30.74
-28.78
-23.67
-12.09
6.25
28.41
49.36
64.10
69.53
65.46
54.09
38.69
22.25
6.52
-8.02
-21.74
-35.24
-48.99
-63.14
-77.39
-90.78
-101.40
-106.47
-102.89
-88.19
-61.70
-25.27
16.93
59.43
97.00
126.12
145.58
156.26
160.09
158.94
153.81
144.78
131.55
114.12
93.28
70.57
47.86
26.80
8.43
-6.84
-19.07
-28.49
-35.37
-39.98
-42.76
-44.35
-45.42
-46.49
-47.63
-48.35
-47.81
-45.23
-40.34
-33.84
-27.27
-22.68
-21.92
-25.94
-34.32
-45.37
-56.66
-65.79
-71.14
-72.25
-69.70
-64.71
-58.50
-51.97
-45.49
-39.00
-32.27
-25.11
-17.59
-10.01
-2.91
3.15
7.87
11.41
14.60
18.67
24.72
33.07
42.81
51.81
57.30
56.76
48.70
33.23
12.08
-11.52
-33.35
-48.73
-53.19
-43.33
-17.84
21.71
70.63
121.80
167.24
200.18
216.57
215.95
200.94
175.96
145.59
113.56
82.41
53.73
28.74
8.51
-6.16
-15.10
-19.04
-19.51
-18.36
-17.10
-16.58
-16.79
-17.22
-17.40
-17.25
-17.25
-18.15
-20.52
-24.34
-28.91
-33.12
-35.93
-36.84
-36.02
-34.14
-31.95
-29.96
-28.21
-26.39
-24.09
-21.08
-17.44
-13.56
-10.03
-7.36
-5.87
-5.49
-5.90
-6.53
-6.80
-6.31
-4.94
-2.87
-0.63
1.15
1.83
0.96
-1.52
-5.19
-9.18
-12.32
-13.44
-11.73
-7.09
-0.27
7.32
14.01
18.43
19.84
18.33
14.60
9.81
5.15
1.69
0.22
1.11
4.24
9.02
14.51
19.56
23.19
24.77
24.24
22.08
19.19
16.66
15.45
16.12
18.65
22.51
26.79
30.52
32.86
33.34
31.85
28.66
24.34
19.58
14.98
10.91
7.33
3.87
-0.03
-4.86
-10.79
-17.64
-24.89
-31.83
-37.76
-42.11
-44.64
-45.38
-44.69
-43.10
-41.10
-39.04
-37.00
-34.94
-32.75
-30.40
-28.00
-25.71
-23.67
-21.93
-20.42
-19.06
-17.79
-16.62
-15.64
-14.89
-14.36
-13.93
-13.44
-12.80
-12.03
-11.25
-10.61
-10.23
-10.17
-10.59
-11.69
-13.70
-16.59
-19.79
-22.04
-21.58
-16.67
-6.33
9.18
28.27
48.51
67.44
83.21
94.96
102.66
106.67
107.37
105.02
99.79
91.91
81.77
69.80
56.39
41.83
26.41
10.65
-4.61
-18.32
-29.46
-37.43
-42.19
-44.17
-44.08
-42.59
-40.20
-37.29
-34.15
-31.08
-28.31
-25.95
-23.99
-22.31
-20.82
-19.50
-18.53
-18.16
-18.58
-19.73
-21.23
-22.51
-22.96
-22.27
-20.59
-18.48
-16.66
-15.70
-15.75
-16.52
-17.41
-17.84
-17.49
-16.40
-14.90
-13.38
-12.09
-11.04
-10.05
-8.80
-7.11
-5.00
-2.74
-0.70
0.82
1.76
2.33
2.91
3.99
6.01
9.36
14.28
20.77
28.47
36.69
44.48
50.85
55.15
57.12
56.91
54.90
51.52
47.05
41.70
35.60
28.87
21.63
13.95
5.95
-2.15
-9.96
-16.99
-22.76
-26.88
-29.18
-29.70
-28.67
-26.46
-23.58
-20.56
-17.91
-15.92
-14.58
-13.67
-12.78
-11.55
-9.84
-7.74
-5.51
-3.42
-1.62
-0.13
1.13
2.22
3.13
3.80
4.13
4.07
3.66
3.10
2.63
2.49
2.80
3.46
4.25
4.84
4.98
4.57
3.71
2.63
1.57
0.65
-0.14
-0.90
-1.69
-2.55
-3.44
-4.33
-5.22
-6.10
-6.91
-7.55
-7.89
-7.95
-7.86
-7.85
-8.01
-8.23
-8.23
-7.64
-6.31
-4.34
-2.13
-0.16
1.16
1.60
1.21
0.29
-0.60
-0.75
0.51
3.52
8.08
13.33
17.94
20.50
19.96
15.98
9.02
0.22
-8.94
-17.04
-23.00
-26.24
-26.61
-24.34
-19.82
-13.60
-6.37
1.06
7.72
12.75
15.50
15.83
14.13
11.25
8.19
5.78
4.32
3.53
2.69
1.00
-2.02
-6.21
-10.82
-14.67
-16.56
-15.63
-11.60
-4.84
3.66
12.50
20.12
25.23
27.19
26.19
23.16
19.44
16.17
13.95
12.72
11.95
11.04
9.56
7.39
4.67
1.58
-1.66
-4.83
-7.72
-10.03
-11.49
-11.94
-11.42
-10.15
-8.48
-6.79
-5.41
-4.51
-4.14
-4.17
-4.42
-4.66
-4.74
-4.65
-4.54
-4.60
-4.94
-5.57
-6.39
-7.28
-8.16
-9.13
-10.28
-11.69
-13.30
-14.93
-16.37
-17.56
-18.54
-19.51
-20.65
-22.08
-23.73
-25.43
-26.83
-27.48
-26.84
-24.46
-20.08
-13.86
-6.34
1.69
9.47
16.48
22.59
27.88
32.47
36.27
38.96
40.16
39.62
37.39
33.88
29.66
25.25
20.95
16.81
12.76
8.74
4.84
1.31
-1.58
-3.60
-4.78
-5.33
-5.58
-5.84
-6.23
-6.64
-6.88
-6.66
-5.84
-4.36
-2.30
0.21
2.98
5.80
8.44
10.65
12.24
13.11
13.32
13.05
12.58
12.15
11.93
11.96
12.11
12.11
11.57
10.07
7.33
3.36
-1.50
-6.69
-11.62
-15.93
-19.63
-23.00
-26.36
-29.83
-33.21
-35.90
-37.10
-35.96
-31.88
-24.73
-14.98
-3.65
7.91
18.41
26.94
33.14
37.12
39.25
39.84
39.05
36.90
33.43
28.83
23.45
17.75
12.14
6.96
2.47
-1.15
-3.89
-5.95
-7.75
-9.87
-12.79
-16.61
-20.88
-24.73
-27.09
-27.16
-24.66
-19.95
-13.88
-7.58
-2.16
1.58
3.30
3.18
1.87
0.22
-1.04
-1.56
-1.49
-1.26
-1.43
-2.36
-4.06
-6.30
-8.58
-10.26
-10.60
-8.95
-4.94
1.23
8.74
16.30
22.57
26.57
28.01
27.25
25.03
22.21
19.43
17.16
15.65
15.08
15.42
16.45
17.61
18.15
17.36
14.83
10.70
5.62
0.50
-3.80
-6.83
-8.62
-9.61
-10.31
-11.12
-12.15
-13.27
-14.31
-15.13
-15.71
-16.08
-16.23
-16.03
-15.34
-14.14
-12.57
-11.01
-9.86
-9.43
-9.77
-10.73
-11.99
-13.31
-14.57
-15.82
-17.15
-18.52
-19.80
-20.79
-21.32
-21.39
-21.17
-20.93
-20.93
-21.34
-22.16
-23.27
-24.47
-25.58
-26.47
-27.13
-27.62
-28.17
-29.02
-30.38
-32.28
-34.59
-36.99
-39.22
-41.21
-43.10
-45.18
-47.61
-50.23
-52.50
-53.72
-53.48
-52.04
-50.29
-49.34
-49.87
-51.71
-53.76
-54.48
-52.26
-45.65
-33.27
-13.81
13.65
48.82
89.46
131.17
168.31
195.71
210.24
211.65
202.14
184.97
163.23
139.26
114.95
92.23
73.32
60.27
54.10
54.27
58.72
64.57
69.18
70.89
69.21
64.53
57.63
49.21
39.75
29.52
18.75
7.75
-3.08
-13.19
-22.11
-29.52
-35.39
-40.03
-43.91
-47.42
-50.75
-53.77
-56.27
-58.13
-59.44
-60.46
-61.45
-62.44
-63.18
-63.12
-61.72
-58.57
-53.68
-47.46
-40.67
-34.13
-28.53
-24.21
-21.08
-18.77
-16.74
-14.49
-11.71
-8.38
-4.66
-0.93
2.44
5.12
6.92
7.80
7.83
7.18
6.00
4.44
2.64
0.70
-1.30
-3.30
-5.28
-7.27
-9.26
-11.23
-13.05
-14.58
-15.65
-16.25
-16.51
-16.66
-16.87
-17.15
-17.26
-16.86
-15.69
-13.66
-10.87
-7.51
-3.67
0.64
5.40
10.46
15.41
19.76
23.07
25.12
25.98
25.84
24.93
23.43
21.44
19.00
16.19
13.03
9.52
5.70
1.68
-2.32
-6.01
-9.10
-11.43
-12.97
-13.83
-14.19
-14.23
-14.08
-13.82
-13.40
-12.72
-11.69
-10.29
-8.67
-7.05
-5.64
-4.56
-3.70
-2.85
-1.82
-0.52
0.89
2.11
2.91
3.19
3.11
2.96
3.06
3.57
4.38
5.22
5.70
5.55
4.71
3.44
2.18
1.41
1.44
2.30
3.62
4.80
5.15
4.16
1.68
-1.94
-6.01
-9.60
-11.82
-12.02
-9.93
-5.84
-0.53
4.84
9.06
11.21
10.97
8.70
5.23
1.45
-2.11
-5.41
-8.80
-12.69
-17.15
-21.80
-25.74
-27.93
-27.45
-23.79
-17.11
-8.21
1.59
10.70
17.69
21.64
22.40
20.52
17.07
13.18
9.74
7.20
5.55
4.51
3.61
2.35
0.26
-2.92
-7.21
-12.27
-17.40
-21.84
-24.91
-26.31
-26.15
-24.83
-22.75
-20.13
-16.93
-13.04
-8.52
-3.80
0.36
3.11
3.76
2.08
-1.64
-6.62
-11.71
-15.63
-17.15
-15.34
-9.85
-0.98
10.24
22.33
33.70
43.13
49.99
54.31
56.53
57.20
56.69
55.05
52.14
47.70
41.63
33.94
24.86
14.75
4.15
-6.25
-15.56
-22.85
-27.38
-28.79
-27.26
-23.37
-17.91
-11.69
-5.33
0.70
6.02
10.20
12.90
13.88
13.09
10.73
7.08
2.55
-2.44
-7.43
-12.01
-15.86
-18.95
-21.64
-24.60
-28.54
-33.85
-40.25
-46.73
-51.77
-53.80
-51.68
-45.13
-34.66
-21.42
-6.80
7.95
21.79
33.89
43.60
50.30
53.61
53.51
50.46
45.38
39.31
33.18
27.49
22.29
17.36
12.43
7.47
2.65
-1.72
-5.39
-8.26
-10.43
-12.12
-13.53
-14.80
-15.94
-16.83
-17.37
-17.47
-17.15
-16.54
-15.77
-14.88
-13.83
-12.51
-10.83
-8.84
-6.81
-5.10
-4.01
-3.50
-3.10
-2.08
0.28
4.30
9.69
15.66
21.21
25.47
28.03
28.89
28.33
26.64
23.93
20.15
15.30
9.55
3.34
-2.71
-8.04
-12.28
-15.32
-17.37
-18.76
-19.90
-21.02
-22.24
-23.39
-24.17
-24.22
-23.29
-21.41
-18.92
-16.45
-14.76
-14.51
-16.00
-18.96
-22.55
-25.43
-26.08
-23.34
-16.86
-7.32
3.65
14.01
21.94
26.41
27.29
25.19
20.96
15.31
8.62
1.08
-6.95
-14.70
-20.95
-24.24
-23.35
-17.77
-7.95
4.72
18.19
30.36
39.55
44.86
46.31
44.61
40.74
35.66
30.08
24.40
18.86
13.68
9.10
5.38
2.68
0.91
-0.27
-1.31
-2.66
-4.45
-6.50
-8.32
-9.38
-9.34
-8.15
-6.06
-3.45
-0.68
1.93
4.05
5.22
4.89
2.56
-1.93
-8.19
-15.26
-21.90
-26.79
-28.92
-27.69
-23.09
-15.72
-6.77
2.13
9.35
13.70
14.79
13.09
9.57
5.27
0.80
-3.69
-8.40
-13.51
-18.90
-24.01
-28.01
-29.98
-29.22
-25.52
-19.24
-11.35
-3.15
3.96
8.90
11.06
10.45
7.60
3.40
-1.13
-5.06
-7.85
-9.39
-10.04
-10.42
-11.05
-12.12
-13.44
-14.50
-14.83
-14.22
-12.79
-10.91
-9.00
-7.28
-5.71
-3.91
-1.31
2.75
8.71
16.62
25.88
35.24
42.99
47.35
47.06
41.85
32.69
21.62
11.19
3.65
0.19
0.46
2.81
4.91
4.69
1.02
-5.97
-15.14
-24.89
-33.70
-40.41
-44.27
-44.77
-41.59
-34.78
-24.91
-13.21
-1.39
8.75
15.84
19.29
19.39
17.12
13.81
10.78
9.06
9.25
11.47
15.31
19.90
24.04
26.53
26.59
24.24
20.28
16.05
12.77
10.98
10.29
9.69
8.09
4.93
0.37
-4.91
-10.01
-14.08
-16.36
-16.01
-12.31
-5.07
4.84
15.29
23.43
26.67
23.82
15.41
3.32
-10.29
-23.82
-36.41
-47.65
-56.92
-63.36
-66.34
-66.26
-64.76
-64.16
-66.23
-71.09
-76.94
-81.00
-80.97
-76.33
-68.69
-60.91
-55.72
-54.34
-55.89
-57.92
-57.64
-53.22
-44.73
-34.05
-23.97
-16.86
-13.68
-13.58
-14.50
-14.00
-10.00
-1.20
12.98
32.32
55.66
80.68
104.20
122.98
135.11
141.10
143.87
147.48
155.10
167.30
181.68
194.04
200.38
198.52
188.70
172.90
153.55
132.59
111.03
89.38
68.15
48.06
29.85
13.79
-0.59
-14.27
-28.20
-42.68
-57.09
-70.05
-79.97
-85.67
-86.78
-83.83
-77.93
-70.30
-61.82
-52.88
-43.59
-34.20
-25.37
-18.18
-13.78
-12.79
-14.93
-19.16
-24.16
-29.02
-33.57
-38.36
-44.06
-50.91
-58.38
-65.24
-69.84
-70.46
-65.63
-54.38
-36.52
-13.08
13.31
38.45
57.20
64.77
58.34
38.28
8.39
-25.07
-55.25
-76.72
-86.86
-86.21
-77.68
-65.29
-52.79
-42.79
-36.44
-33.60
-33.16
-33.47
-32.83
-30.00
-24.76
-18.29
-12.84
-10.93
-13.90
-20.85
-28.53
-32.50
-29.04
-16.92
2.03
23.68
43.21
56.64
61.74
58.12
47.13
31.70
16.01
4.73
1.40
6.83
18.24
30.18
37.06
35.96
28.33
19.21
14.68
18.68
31.22
48.62
65.51
77.40
82.29
80.91
75.60
68.95
62.78
57.72
53.54
49.53
44.94
39.28
32.61
25.73
20.10
17.35
18.50
23.09
28.97
32.75
31.14
22.29
6.75
-12.62
-31.70
-46.75
-55.70
-58.67
-57.44
-54.50
-52.24
-52.58
-56.99
-66.34
-80.24
-96.39
-110.25
-115.98
-108.40
-85.15
-48.01
-2.47
44.19
85.32
116.76
137.25
147.83
150.59
147.68
140.59
130.00
116.12
99.33
80.83
62.91
48.51
40.04
38.07
40.56
43.16
40.35
26.94
-0.53
-42.55
-96.14
-154.72
-209.12
-249.58
-268.40
-262.01
-231.69
-182.66
-122.27
-58.44
1.34
50.46
83.83
98.83
96.24
80.31
57.33
33.50
13.16
-1.57
-9.57
-9.37
1.21
23.94
58.20
99.64
140.65
172.61
188.94
187.27
169.91
142.53
111.62
82.08
55.96
32.64
10.12
-13.40
-38.51
-64.44
-89.77
-113.19
-134.04
-152.08
-167.01
-178.06
-183.86
-182.86
-174.06
-157.51
-134.74
-108.55
-82.34
-59.31
-41.69
-30.24
-24.19
-21.74
-20.86
-20.21
-19.74
-20.64
-24.91
-34.45
-50.07
-70.81
-93.80
-114.96
-130.21
-136.80
-134.25
-124.43
-110.69
-96.49
-84.06
-73.65
-63.72
-51.71
-34.97
-11.43
20.15
59.89
106.32
155.81
202.49
239.30
260.04
261.70
245.91
218.59
187.93
161.63
144.65
138.51
141.93
152.09
165.59
178.71
187.53
188.41
179.14
160.31
135.80
111.72
94.12
86.24
86.99
91.32
92.38
84.13
63.51
30.98
-10.08
-54.70
-97.58
-133.94
-160.07
-173.80
-174.93
-165.35
-148.69
-129.37
-111.49
-97.88
-89.78
-87.00
-88.29
-91.91
-95.99
-98.89
-99.38
-96.71
-90.68
-81.70
-71.00
-60.78
-54.04
-53.97
-63.03
-82.09
-110.02
-143.85
-179.42
-212.13
-237.52
-251.72
-251.98
-236.95
-207.02
-164.32
-112.61
-56.82
-2.53
44.94
81.32
104.25
113.71
111.90
102.51
89.66
76.98
67.28
62.82
65.57
77.18
98.41
128.16
162.96
197.21
224.44
239.02
237.83
221.07
192.14
156.49
119.98
87.27
61.07
42.10
29.82
23.19
20.96
21.53
22.51
20.61
12.38
-4.48
-29.65
-59.64
-88.40
-109.30
-117.70
-112.98
-98.99
-82.65
-71.38
-70.29
-80.59
-99.61
-122.24
-142.88
-157.05
-162.13
-157.46
-144.23
-125.36
-105.35
-89.37
-81.60
-83.21
-91.13
-98.52
-97.42
-82.31
-52.88
-14.67
22.97
50.35
60.96
53.18
30.23
-1.50
-34.54
-62.03
-78.80
-81.80
-70.07
-44.37
-6.69
40.34
93.46
148.49
200.15
242.58
270.79
282.49
279.33
266.54
250.88
237.91
229.87
225.46
221.13
213.31
199.99
181.07
157.65
130.90
101.66
70.61
39.10
9.36
-15.95
-34.79
-47.05
-54.88
-62.00
-71.85
-85.86
-102.52
-117.83
-127.18
-127.42
-118.42
-103.13
-86.59
-73.96
-68.98
-73.07
-85.37
-103.56
-124.73
-146.15
-165.43
-180.58
-189.81
-191.72
-185.82
-173.03
-156.05
-138.60
-123.84
-112.62
-103.16
-92.60
-79.67
-66.62
-58.69
-61.32
-76.18
-99.22
-121.64
-133.75
-129.17
-107.07
-71.45
-28.33
16.87
60.48
99.73
131.74
153.36
162.49
159.72
148.87
135.91
126.85
125.65
133.22
147.51
164.69
180.43
190.94
193.74
188.11
175.27
158.10
140.22
124.72
112.93
103.86
94.76
82.57
65.57
44.35
21.59
0.87
-14.82
-24.05
-27.08
-25.29
-20.65
-15.31
-11.36
-10.50
-13.51
-19.73
-27.21
-33.64
-37.68
-39.97
-43.03
-49.94
-62.56
-80.33
-100.32
-118.53
-131.79
-138.96
-140.98
-139.90
-137.51
-134.41
-129.91
-122.71
-111.79
-97.25
-80.46
-63.52
-48.33
-35.67
-24.78
-13.41
1.45
22.58
51.49
87.38
126.66
163.38
190.26
200.46
189.05
154.51
99.49
30.94
-40.70
-103.19
-145.07
-158.60
-142.29
-101.80
-48.49
4.11
44.80
68.10
75.19
72.11
66.12
62.37
62.15
63.35
62.42
56.60
45.35
30.45
15.03
2.07
-6.18
-8.37
-3.70
8.18
26.43
48.25
68.15
78.68
72.76
46.84
3.39
-48.89
-97.64
-131.27
-143.31
-134.48
-111.60
-84.06
-59.77
-42.33
-30.81
-21.42
-10.24
4.73
22.77
41.24
57.06
68.04
73.50
74.13
71.38
66.98
62.66
60.00
59.98
62.20
64.00
60.75
47.04
19.48
-20.79
-67.23
-109.37
-136.15
-139.53
-116.83
-71.06
-9.53
58.09
121.48
171.01
199.20
202.26
181.32
142.39
94.76
48.19
10.15
-15.84
-30.21
-36.07
-37.41
-37.75
-39.22
-42.00
-44.28
-42.74
-33.75
-15.19
11.90
42.48
68.48
81.10
73.70
44.13
-4.12
-62.70
-120.69
-167.66
-196.68
-205.93
-198.69
-181.58
-161.78
-144.34
-130.40
-117.45
-101.03
-77.49
-46.42
-11.40
21.25
45.24
57.17
58.26
53.70
50.00
51.77
59.30
68.58
73.09
66.89
47.37
16.62
-18.94
-50.17
-67.63
-64.39
-38.41
6.15
59.71
109.87
145.55
160.53
155.13
135.29
109.40
84.79
65.30
51.11
40.04
29.52
17.95
5.06
-8.48
-21.54
-32.69
-40.01
-41.27
-34.71
-20.36
-1.00
17.63
28.27
24.77
4.83
-28.63
-68.24
-104.78
-130.35
-140.71
-135.87
-119.12
-95.42
-69.92
-47.12
-30.36
-21.33
-19.62
-22.53
-25.90
-25.66
-19.64
-8.64
3.83
13.17
15.74
10.50
-0.46
-12.49
-20.21
-19.51
-9.38
7.40
24.84
35.60
33.70
16.98
-11.54
-44.15
-70.39
-80.25
-67.25
-30.68
23.77
85.34
141.06
179.30
193.05
181.68
150.71
109.71
69.17
37.65
19.95
16.79
25.56
41.54
59.31
73.83
81.21
79.63
69.91
55.34
40.60
29.90
24.86
23.15
18.88
4.98
-23.37
-65.88
-116.31
-164.20
-198.54
-211.63
-201.62
-172.72
-133.23
-92.49
-58.11
-34.24
-21.15
-16.04
-14.45
-11.92
-5.41
5.68
19.42
32.09
39.67
39.46
31.23
17.37
2.39
-8.50
-10.97
-3.08
13.51
33.37
48.25
49.63
32.11
-3.55
-49.64
-93.17
-120.38
-121.74
-95.63
-48.78
6.74
58.11
96.07
116.83
121.34
113.03
95.57
71.81
44.07
14.92
-12.28
-33.85
-47.00
-50.97
-47.56
-40.53
-34.17
-31.75
-34.45
-41.24
-49.49
-56.05
-58.76
-57.62
-55.28
-56.23
-64.87
-83.19
-109.37
-138.28
-163.68
-181.15
-189.91
-192.69
-193.85
-196.88
-202.80
-210.06
-215.70
-216.72
-210.95
-197.20
-175.13
-145.29
-109.31
-69.77
-29.74
8.12
42.50
73.56
102.85
132.80
166.31
205.96
252.84
305.18
357.62
402.25
431.14
439.58
428.00
401.60
367.85
333.36
301.93
274.35
249.68
226.86
205.81
187.61
174.11
167.34
168.81
178.83
195.72
215.59
233.00
242.65
241.16
227.97
205.02
175.29
141.48
105.51
68.70
32.56
-1.16
-30.91
-56.18
-78.11
-99.78
-125.74
-160.63
-207.01
-263.29
-322.84
-375.02
-408.42
-414.78
-391.81
-343.55
-278.19
-204.90
-131.25
-62.30
-1.26
49.64
88.90
116.34
133.79
144.93
154.14
164.71
177.75
192.15
205.76
216.37
222.66
224.24
221.17
213.43
200.74
182.72
159.23
130.81
98.93
65.81
33.79
4.59
-21.34
-45.03
-68.52
-94.09
-123.24
-155.89
-190.21
-222.87
-249.98
-268.18
-275.72
-272.90
-262.09
-246.88
-231.11
-217.77
-208.41
-203.05
-200.59
-199.53
-198.43
-196.39
-193.13
-188.96
-184.64
-181.05
-178.88
-178.22
-178.30
-177.55
-173.94
-165.68
-151.87
-132.95
-110.68
-87.64
-66.51
-49.31
-36.85
-28.66
-23.25
-18.68
-13.11
-5.38
4.76
16.65
28.74
38.86
44.52
43.46
34.38
17.63
-4.42
-27.70
-47.35
-59.12
-60.64
-52.11
-36.21
-17.33
-0.34
10.59
13.05
7.02
-5.04
-18.78
-28.98
-30.87
-21.27
0.79
34.02
75.30
120.32
164.16
202.01
229.83
245.00
246.92
237.21
219.23
197.23
175.19
155.83
140.14
127.52
116.34
104.72
91.25
75.47
57.94
39.91
22.91
8.17
-3.81
-13.47
-22.04
-31.18
-42.34
-56.06
-71.58
-86.78
-98.76
-104.84
-103.61
-95.47
-82.55
-67.83
-54.02
-42.51
-32.97
-23.68
-12.19
3.53
24.09
48.03
71.63
89.32
94.89
83.38
53.30
8.33
-42.92
-89.12
-120.16
-130.73
-121.99
-100.39
-74.29
-50.31
-31.13
-15.78
-1.70
13.00
28.28
42.62
54.36
62.80
68.35
71.79
73.33
72.19
67.07
56.84
41.40
22.04
1.14
-18.50
-34.13
-43.58
-45.36
-38.86
-24.38
-3.33
21.78
47.49
69.67
83.88
85.78
71.89
40.79
-5.60
-61.06
-115.78
-158.48
-179.59
-173.92
-141.86
-88.92
-24.03
42.42
100.42
141.93
162.21
160.81
141.69
112.02
79.86
51.67
30.56
16.28
6.58
-0.87
-7.21
-11.80
-12.59
-7.10
6.36
27.39
52.81
76.68
91.65
91.09
71.32
33.01
-18.93
-76.71
-131.79
-176.71
-206.32
-218.02
-211.75
-189.66
-155.77
-115.44
-74.52
-38.22
-10.08
8.68
19.05
23.55
25.19
26.47
28.83
32.55
37.06
41.39
44.63
46.56
48.24
52.34
62.65
82.83
114.32
154.50
196.46
230.58
247.57
241.58
212.09
163.93
105.54
46.52
-4.43
-41.33
-61.60
-66.30
-59.67
-47.91
-37.44
-32.84
-35.43
-43.36
-53.13
-61.49
-66.75
-68.71
-67.66
-63.43
-55.33
-43.00
-27.61
-12.21
-0.90
2.98
-1.21
-10.60
-19.62
-22.12
-14.20
3.72
26.45
45.74
53.35
44.37
19.56
-15.10
-51.12
-81.32
-102.61
-116.24
-125.56
-133.01
-138.11
-137.96
-129.50
-111.95
-87.74
-61.35
-36.88
-16.22
1.46
18.53
36.98
57.06
77.09
94.45
106.75
112.67
111.95
105.09
92.97
77.06
60.00
46.06
40.34
47.15
67.77
98.89
133.11
160.95
173.87
166.54
137.97
91.40
33.73
-25.38
-74.97
-105.14
-110.17
-90.81
-54.60
-13.31
21.27
41.48
45.65
37.12
21.61
4.55
-10.21
-20.24
-23.99
-20.75
-11.44
0.70
10.39
12.08
2.13
-19.10
-46.72
-72.66
-88.31
-87.65
-69.75
-39.62
-6.96
16.87
22.82
7.52
-25.35
-66.55
-105.05
-132.34
-145.22
-145.64
-138.23
-126.85
-112.85
-95.51
-74.30
-50.94
-29.50
-14.47
-7.97
-7.91
-8.54
-3.20
12.45
38.17
69.14
97.88
117.15
122.45
113.64
95.12
74.58
60.87
60.88
76.90
105.21
136.94
160.65
165.93
146.82
103.75
43.67
-21.63
-78.31
-114.04
-121.19
-99.15
-54.58
0.38
51.80
88.09
102.98
96.45
73.38
40.98
6.36
-24.93
-49.21
-64.63
-70.90
-69.27
-62.33
-53.27
-44.96
-38.75
-33.80
-27.52
-16.83
0.16
22.53
45.87
63.16
67.27
53.91
23.72
-17.66
-61.69
-99.91
-126.48
-139.20
-139.01
-128.54
-110.96
-89.35
-66.59
-45.01
-25.94
-9.25
6.43
22.77
40.40
58.20
73.76
84.77
90.34
91.23
88.92
84.36
77.27
66.49
51.07
31.47
10.17
-8.46
-19.37
-18.16
-2.79
25.17
60.30
94.10
117.08
121.15
101.90
60.24
2.63
-59.97
-114.67
-150.11
-159.75
-143.92
-109.44
-66.99
-27.12
3.21
22.02
31.21
34.20
33.70
30.90
26.04
19.36
11.54
3.34
-4.99
-13.85
-23.63
-34.10
-43.99
-51.41
-54.75
-53.41
-48.03
-40.03
-30.96
-21.89
-13.29
-5.18
2.44
9.10
13.60
14.17
9.05
-2.47
-19.08
-37.10
-51.10
-55.80
-48.16
-28.85
-2.12
25.84
49.27
64.65
71.23
70.18
63.23
51.86
37.16
20.50
3.85
-10.41
-20.27
-24.96
-25.19
-22.77
-19.67
-17.26
-15.89
-15.08
-13.89
-11.43
-7.20
-1.36
5.33
11.76
16.75
19.42
19.38
16.76
11.93
5.38
-2.27
-10.13
-16.86
-20.91
-21.05
-17.07
-10.19
-2.98
1.44
0.43
-7.19
-20.64
-37.23
-52.90
-63.23
-64.40
-54.22
-32.96
-3.58
28.62
57.37
77.13
84.76
80.34
66.81
48.67
30.41
15.27
4.89
-0.39
-0.93
2.52
8.90
16.74
24.12
29.17
30.55
27.96
22.19
14.71
7.09
0.48
-4.41
-7.30
-8.07
-6.57
-2.70
3.36
10.95
18.85
25.41
29.00
28.46
23.55
15.13
4.89
-5.09
-12.89
-17.23
-17.72
-14.95
-10.19
-5.20
-1.77
-1.32
-4.61
-11.52
-21.08
-31.70
-41.50
-48.81
-52.57
-52.65
-49.87
-45.79
-42.24
-40.69
-41.81
-45.28
-50.00
-54.63
-58.13
-60.12
-60.82
-60.87
-60.92
-61.37
-62.50
-64.48
-67.59
-72.16
-78.32
-85.87
-94.15
-102.21
-109.18
-114.64
-118.80
-122.39
-126.40
-131.70
-138.84
-148.05
-159.30
-172.29
-186.32
-200.06
-211.55
-218.51
-218.86
-211.20
-195.14
-171.27
-140.84
-105.45
-66.60
-25.34
17.46
60.73
102.91
141.98
175.95
203.70
225.56
243.14
258.57
273.13
286.51
297.12
303.42
305.15
303.69
301.39
300.17
300.63
301.49
300.04
293.48
280.76
262.51
240.58
217.47
195.47
177.21
164.36
156.85
153.17
152.15
152.82
154.46
156.37
156.85
155.18
149.93
138.67
119.38
93.20
62.66
30.11
-3.78
-41.34
-82.83
-126.96
-170.48
-207.39
-228.35
-226.04
-198.85
-151.97
-96.73
-41.45
8.88
52.58
74.34
65.15
27.36
-25.84
-66.37
-92.41
-106.08
-107.92
-101.93
-88.24
-64.41
-29.35
14.73
62.00
102.79
131.13
143.93
140.96
125.64
105.07
86.09
72.36
63.33
54.16
42.23
26.76
8.40
-10.78
-27.89
-41.19
-50.78
-58.11
-65.56
-72.98
-79.08
-82.65
-83.10
-80.55
-76.05
-71.25
-67.65
-66.39
-66.75
-67.30
-66.77
-64.57
-60.91
-56.74
-53.27
-51.46
-51.69
-53.29
-54.99
-55.59
-54.38
-51.47
-47.63
-43.93
-41.28
-40.08
-40.13
-40.86
-41.60
-41.88
-41.59
-40.83
-39.78
-38.54
-37.02
-34.89
-31.54
-26.29
-18.64
-8.80
1.87
10.77
14.62
10.49
-2.91
-24.48
-50.87
-77.47
-99.81
-114.86
-121.44
-119.96
-111.77
-98.46
-81.51
-62.25
-41.97
-21.93
-3.28
13.07
26.65
37.30
45.15
50.37
53.04
53.11
50.44
45.02
37.25
28.02
18.71
10.76
5.32
2.84
3.01
4.96
7.72
10.46
12.76
14.48
15.61
16.14
16.03
15.31
14.07
12.57
11.06
9.76
8.73
7.86
6.98
5.95
4.76
3.53
2.53
2.00
2.11
2.92
4.43
6.63
9.50
13.00
16.91
20.69
23.45
24.16
21.85
16.10
7.25
-3.63
-14.99
-25.30
-33.50
-39.26
-42.97
-45.38
-47.20
-48.75
-49.93
-50.38
-49.83
-48.37
-46.44
-44.56
-43.06
-41.82
-40.35
-38.08
-34.70
-30.33
-25.41
-20.47
-15.84
-11.58
-7.55
-3.57
0.51
4.72
9.03
13.37
17.59
21.51
24.89
27.53
29.29
30.09
29.94
28.90
27.11
24.80
22.28
19.86
17.72
15.89
14.25
12.65
11.01
9.38
7.88
6.58
5.43
4.31
3.09
1.77
0.49
-0.55
-1.20
-1.43
-1.36
-1.12
-0.85
-0.64
-0.62
-0.95
-1.84
-3.44
-5.66
-8.19
-10.54
-12.23
-13.00
-12.91
-12.26
-11.38
-10.54
-9.79
-9.02
-8.02
-6.64
-4.79
-2.55
-0.10
2.28
4.36
5.97
7.05
7.68
8.01
8.21
8.43
8.73
9.12
9.55
9.93
10.20
10.30
10.17
9.75
9.06
8.13
7.10
6.13
5.40
4.96
4.79
4.77
4.77
4.67
4.42
4.00
3.44
2.81
2.18
1.64
1.26
1.04
0.90
0.71
0.40
-0.05
-0.55
-1.00
-1.37
-1.71
-2.13
-2.66
-3.25
-3.73
-3.94
-3.79
-3.35
-2.74
-2.10
-1.50
-0.87
-0.13
0.76
1.67
2.39
2.66
2.37
1.60
0.63
-0.14
-0.41
-0.06
0.80
1.87
2.79
3.34
3.48
3.28
2.83
2.15
1.07
-0.59
-2.95
-5.99
-9.51
-13.29
-17.06
-20.61
-23.74
-26.19
-27.70
-28.06
-27.24
-25.44
-23.04
-20.53
-18.29
-16.51
-15.16
-14.06
-12.94
-11.67
-10.21
-8.69
-7.20
-5.79
-4.34
-2.68
-0.60
1.95
4.91
8.11
11.30
14.28
16.89
19.02
20.66
21.87
22.83
23.70
24.62
25.59
26.54
27.32
27.86
28.15
28.20
28.01
27.55
26.77
25.70
24.46
23.27
22.29
21.62
21.23
21.00
20.81
20.56
20.15
19.50
18.52
17.15
15.41
13.40
11.26
9.16
7.24
5.56
4.10
2.75
1.40
-0.10
-1.81
-3.64
-5.42
-6.96
-8.14
-8.96
-9.50
-9.89
-10.20
-10.45
-10.63
-10.72
-10.71
-10.57
-10.27
-9.78
-9.13
-8.41
-7.76
-7.28
-6.98
-6.77
-6.52
-6.13
-5.55
-4.85
-4.11
-3.48
-3.02
-2.78
-2.70
-2.69
-2.62
-2.40
-2.08
-1.79
-1.72
-1.99
-2.61
-3.43
-4.23
-4.84
-5.17
-5.26
-5.17
-5.03
-4.89
-4.76
-4.67
-4.66
-4.81
-5.24
-6.02
-7.08
-8.24
-9.21
-9.76
-9.80
-9.41
-8.79
-8.10
-7.45
-6.79
-6.07
-5.29
-4.50
-3.80
-3.16
-2.48
-1.60
-0.44
0.87
2.05
2.78
2.91
2.45
1.69
0.93
0.41
0.21
0.24
0.36
0.47
0.57
0.74
1.11
1.67
2.29
2.68
2.55
1.76
0.38
-1.25
-2.75
-3.82
-4.43
-4.71
-4.91
-5.24
-5.76
-6.41
-7.09
-7.78
-8.45
-9.10
-9.67
-10.00
-9.94
-9.40
-8.36
-6.93
-5.27
-3.51
-1.80
-0.23
1.16
2.33
3.27
3.98
4.43
4.62
4.51
4.06
3.33
2.47
1.70
1.30
1.44
2.08
3.00
3.86
4.33
4.28
3.76
2.94
2.03
1.16
0.30
-0.58
-1.55
-2.55
-3.44
-4.09
-4.39
-4.36
-4.08
-3.74
-3.48
-3.44
-3.70
-4.25
-5.02
-5.89
-6.70
-7.31
-7.57
-7.41
-6.80
-5.80
-4.54
-3.17
-1.83
-0.59
0.52
1.51
2.41
3.21
3.86
4.30
4.47
4.40
4.12
3.72
3.28
2.79
2.27
1.71
1.19
0.78
0.57
0.60
0.79
0.94
0.75
-0.10
-1.85
-4.53
-7.99
-11.80
-15.40
-18.23
-19.92
-20.40
-19.92
-18.91
-17.77
-16.64
-15.35
-13.42
-10.34
-5.74
0.34
7.46
14.88
21.81
27.62
32.00
34.92
36.53
37.01
36.48
35.03
32.73
29.70
26.14
22.34
18.60
15.22
12.46
10.47
9.24
8.59
8.15
7.53
6.47
4.94
3.16
1.47
0.12
-0.84
-1.59
-2.39
-3.41
-4.64
-5.94
-7.12
-8.17
-9.16
-10.29
-11.64
-13.15
-14.52
-15.39
-15.44
-14.54
-12.84
-10.64
-8.36
-6.32
-4.69
-3.43
-2.42
-1.48
-0.54
0.30
0.87
0.99
0.62
-0.04
-0.65
-0.86
-0.49
0.39
1.49
2.44
3.04
3.25
3.22
3.15
3.12
3.05
2.81
2.30
1.55
0.69
-0.13
-0.88
-1.67
-2.69
-4.07
-5.80
-7.67
-9.40
-10.71
-11.46
-11.66
-11.40
-10.78
-9.84
-8.58
-7.01
-5.31
-3.69
-2.42
-1.62
-1.18
-0.87
-0.33
0.66
2.16
3.96
5.76
7.21
8.12
8.48
8.45
8.31
8.29
8.47
8.78
9.02
8.98
8.55
7.76
6.80
5.87
5.14
4.72
4.58
4.65
4.77
4.79
4.54
3.88
2.76
1.21
-0.67
-2.72
-4.79
-6.76
-8.58
-10.22
-11.63
-12.79
-13.64
-14.20
-14.54
-14.73
-14.80
-14.66
-14.15
-13.14
-11.64
-9.83
-8.04
-6.54
-5.50
-4.92
-4.67
-4.63
-4.66
-4.64
-4.40
-3.72
-2.39
-0.25
2.70
6.29
10.26
14.29
18.13
21.62
24.69
27.34
29.64
31.61
33.16
34.11
34.20
33.21
31.06
27.92
24.11
20.11
16.29
12.88
9.89
7.18
4.55
1.88
-0.80
-3.32
-5.52
-7.24
-8.48
-9.29
-9.84
-10.31
-10.88
-11.66
-12.73
-14.07
-15.50
-16.76
-17.56
-17.65
-16.91
-15.41
-13.35
-11.03
-8.69
-6.51
-4.54
-2.78
-1.23
0.06
0.98
1.47
1.55
1.42
1.34
1.54
2.12
3.02
4.05
5.03
5.91
6.79
7.76
8.86
9.96
10.85
11.29
11.19
10.61
9.77
8.87
8.08
7.42
6.79
6.09
5.24
4.29
3.33
2.47
1.78
1.19
0.59
-0.15
-1.06
-2.05
-2.97
-3.70
-4.26
-4.81
-5.58
-6.70
-8.13
-9.72
-11.22
-12.44
-13.29
-13.75
-13.85
-13.54
-12.80
-11.57
-9.87
-7.78
-5.46
-3.12
-0.97
0.79
2.04
2.76
3.04
3.08
3.11
3.34
3.88
4.71
5.70
6.62
7.25
7.42
7.12
6.52
5.92
5.61
5.80
6.40
7.12
7.56
7.41
6.55
5.11
3.40
1.73
0.29
-0.83
-1.60
-2.06
-2.18
-1.96
-1.43
-0.61
0.44
1.67
2.99
4.23
5.13
5.37
4.71
3.05
0.56
-2.44
-5.52
-8.35
-10.67
-12.33
-13.22
-13.23
-12.33
-10.55
-8.04
-5.12
-2.15
0.53
2.67
4.18
5.11
5.64
5.95
6.20
6.44
6.62
6.66
6.51
6.20
5.85
5.61
5.55
5.67
5.90
6.18
6.49
6.84
7.27
7.76
8.20
8.43
8.29
7.72
6.81
5.71
4.65
3.73
2.98
2.32
1.66
0.98
0.30
-0.34
-0.92
-1.46
-2.00
-2.56
-3.12
-3.67
-4.28
-5.06
-6.18
-7.72
-9.58
-11.47
-12.98
-13.73
-13.56
-12.55
-11.00
-9.26
-7.58
-6.02
-4.49
-2.86
-1.13
0.59
2.11
3.25
4.00
4.47
4.88
5.40
6.07
6.82
7.46
7.84
7.92
7.76
7.54
7.43
7.50
7.68
7.80
7.67
7.20
6.48
5.72
5.11
4.74
4.57
4.46
4.28
3.97
3.52
2.94
2.24
1.39
0.38
-0.76
-2.00
-3.22
-4.34
-5.28
-6.02
-6.60
-7.12
-7.69
-8.33
-8.99
-9.50
-9.69
-9.45
-8.78
-7.81
-6.65
-5.44
-4.24
-3.07
-2.00
-1.05
-0.24
0.45
1.10
1.79
2.58
3.44
4.31
5.08
5.65
5.95
5.93
5.59
5.01
4.34
3.77
3.45
3.44
3.69
4.10
4.54
4.95
5.31
5.61
5.79
5.77
5.42
4.71
3.66
2.42
1.15
-0.00
-1.03
-1.98
-2.92
-3.92
-5.00
-6.12
-7.27
-8.37
-9.38
-10.23
-10.83
-11.08
-10.90
-10.22
-9.03
-7.40
-5.50
-3.58
-1.86
-0.51
0.43
1.08
1.61
2.23
3.09
4.20
5.47
6.71
7.70
8.24
8.23
7.72
6.85
5.86
4.98
4.37
4.10
4.11
4.25
4.34
4.23
3.83
3.23
2.61
2.25
2.38
3.05
4.12
5.27
6.17
6.71
7.00
7.36
8.16
9.55
11.46
13.55
15.39
16.66
17.28
17.46
17.71
18.90
22.17
28.73
39.46
54.45
72.85
92.93
112.63
130.04
143.95
153.87
159.81
161.76
159.47
152.53
140.83
124.87
105.85
85.35
64.93
45.54
27.04
8.25
-12.60
-37.18
-66.53
-101.03
-140.33
-183.24
-227.62
-270.76
-309.26
-339.36
-357.11
-359.01
-342.99
-309.14
-259.82
-199.44
-134.34
-71.80
-18.81
19.44
40.46
44.39
33.68
12.32
-11.71
-29.70
-34.96
-26.53
-8.83
12.16
32.03
48.72
61.89
71.94
78.78
82.23
82.31
79.82
76.29
73.23
71.46
70.89
70.87
70.06
67.70
63.66
58.56
53.44
49.04
45.25
41.34
36.43
29.11
19.56
8.65
-2.48
-12.67
-21.29
-28.35
-34.23
-39.58
-46.03
-54.86
-67.23
-83.23
-100.67
-114.91
-120.05
-111.31
-84.25
-45.14
-3.96
29.41
49.00
54.49
50.27
42.56
36.48
34.44
36.02
40.69
48.59
59.66
72.91
85.27
91.85
87.80
70.76
42.71
10.69
-16.46
-32.21
-35.32
-30.11
-23.78
-22.19
-26.71
-34.11
-38.55
-35.62
-24.83
-9.54
5.41
16.40
22.24
23.80
23.23
22.63
22.79
23.07
22.36
19.96
16.12
11.73
7.78
4.83
2.84
1.35
-0.11
-1.66
-2.92
-3.22
-2.01
0.82
4.72
8.53
10.99
11.36
9.96
8.15
7.83
10.69
17.46
27.62
39.47
50.69
59.13
63.49
63.65
60.78
56.91
54.34
54.72
58.35
63.91
68.80
70.18
65.94
55.51
39.98
21.51
2.72
-14.13
-27.47
-36.63
-41.58
-42.76
-41.05
-37.81
-35.01
-34.94
-39.58
-49.75
-64.58
-81.67
-98.01
-111.28
-120.70
-127.13
-132.24
-137.34
-142.56
-146.99
-149.53
-150.05
-149.85
-151.23
-156.40
-166.25
-179.88
-194.90
-208.16
-216.52
-217.34
-208.48
-188.19
-155.78
-113.01
-65.40
-22.10
6.53
13.13
-2.69
-33.08
-64.67
-84.36
-85.06
-68.20
-41.79
-15.17
6.17
22.83
39.93
63.22
95.36
134.59
175.95
213.66
243.17
261.93
269.32
266.20
254.71
238.38
222.27
212.39
214.57
232.72
267.50
315.59
370.07
422.02
462.66
485.51
487.61
469.79
435.79
390.89
340.47
289.05
239.63
193.63
151.29
111.99
74.93
39.36
4.79
-29.20
-62.96
-96.51
-129.23
-159.65
-185.88
-206.60
-221.98
-233.89
-245.04
-257.42
-270.90
-283.16
-290.93
-291.98
-286.20
-275.21
-260.69
-242.93
-220.84
-193.39
-161.31
-127.68
-96.60
-70.94
-51.07
-35.23
-21.42
-9.43
-1.30
-0.15
-8.03
-24.01
-43.67
-60.08
-66.15
-57.21
-33.02
1.46
37.17
63.56
71.86
57.58
21.20
-32.77
-97.43
-164.93
-227.20
-276.38
-305.79
-311.59
-294.38
-259.21
-213.66
-164.87
-117.02
-70.90
-25.51
19.38
61.45
96.14
118.57
125.98
119.22
102.52
82.04
64.04
53.49
53.59
65.84
90.20
124.76
165.46
206.07
239.12
257.61
256.76
235.01
193.97
137.75
72.15
4.37
-57.45
-105.38
-133.63
-140.44
-129.12
-107.22
-84.27
-68.49
-64.14
-70.48
-82.13
-91.17
-89.91
-73.66
-42.70
-2.61
37.64
69.37
88.06
95.34
97.66
102.21
112.40
125.60
134.36
130.32
108.21
67.58
12.21
-51.89
-118.40
-181.26
-234.59
-272.87
-292.06
-291.06
-272.37
-241.42
-204.48
-166.56
-130.28
-96.17
-63.33
-30.24
4.53
41.61
80.11
117.52
150.38
176.09
194.61
209.01
223.87
242.52
264.43
284.93
297.41
296.69
281.49
254.24
218.97
178.59
133.53
82.70
26.22
-32.03
-84.19
-120.84
-135.27
-126.12
-98.04
-60.14
-23.01
3.95
15.29
10.26
-7.87
-34.08
-61.56
-82.36
-89.17
-77.35
-47.30
-3.41
47.27
96.78
136.47
160.51
167.57
160.14
142.63
118.13
89.09
56.89
21.47
-20.70
-72.81
-134.49
-200.90
-263.88
-316.07
-351.16
-365.76
-348.24
-297.90
-228.47
-159.51
-106.05
-62.48
-22.00
19.04
59.55
95.93
122.65
137.34
143.25
147.55
157.49
174.61
195.39
212.67
218.55
205.71
171.54
119.34
56.62
-7.41
-65.12
-109.31
-133.61
-133.87
-111.13
-71.21
-23.07
23.39
59.83
80.44
83.71
72.00
50.14
23.60
-1.55
-19.05
-23.70
-13.13
10.60
41.70
72.59
96.02
106.99
103.75
87.24
59.31
21.10
-27.49
-86.14
-152.01
-218.60
-276.57
-316.54
-332.66
-324.80
-298.33
-261.60
-222.32
-184.82
-149.05
-111.86
-69.78
-21.71
29.83
79.25
119.84
146.33
156.80
153.59
142.69
131.87
127.69
133.52
148.40
167.60
184.57
192.98
188.43
168.87
134.15
85.77
27.45
-34.10
-89.37
-127.77
-141.45
-127.90
-91.12
-40.32
13.29
60.21
94.99
116.20
125.02
122.74
111.55
94.78
76.25
59.11
45.38
36.22
32.40
34.74
41.77
51.42
60.98
67.00
65.56
53.81
31.02
-1.89
-43.57
-95.16
-156.18
-222.23
-284.76
-333.99
-362.14
-366.05
-348.41
-303.64
-237.88
-166.62
-105.13
-58.93
-25.28
0.64
22.92
42.59
60.44
77.01
96.31
122.33
158.64
203.93
250.92
288.74
306.85
299.16
264.69
209.60
145.23
84.51
37.95
12.37
11.25
34.63
78.68
134.05
188.15
228.29
245.43
236.30
204.14
157.02
104.40
53.99
9.37
-29.14
-62.94
-93.73
-123.51
-154.51
-189.13
-229.09
-274.23
-321.65
-365.53
-398.51
-414.10
-409.35
-386.14
-350.28
-309.07
-268.39
-231.06
-197.03
-165.21
-135.37
-108.87
-87.70
-72.61
-61.78
-51.06
-35.65
-12.13
20.28
59.63
101.89
142.01
174.73
195.62
202.23
195.01
177.53
155.20
133.16
114.10
97.69
81.76
64.83
48.01
35.24
31.59
40.66
62.72
94.62
131.31
167.89
201.00
229.24
252.54
271.14
284.86
292.87
294.12
287.94
274.62
255.44
232.34
207.14
180.72
152.44
120.58
83.48
41.16
-3.37
-44.16
-73.89
-86.74
-80.96
-60.20
-32.59
-7.96
5.44
3.18
-14.66
-44.31
-79.67
-113.95
-141.18
-157.61
-162.92
-160.88
-158.58
-164.33
-184.49
-220.72
-268.83
-319.82
-362.94
-389.18
-393.96
-377.85
-345.49
-303.54
-258.36
-214.55
-174.45
-138.28
-104.78
-71.66
-36.05
4.61
51.21
101.71
150.72
190.63
213.99
216.16
197.11
161.47
116.69
70.56
28.94
-5.30
-32.09
-53.05
-70.03
-84.02
-94.53
-99.85
-97.73
-86.32
-64.85
-33.81
5.47
51.10
100.72
151.10
198.01
236.54
262.13
272.18
266.93
249.23
222.92
191.29
156.14
118.06
77.76
37.40
1.50
-23.85
-32.89
-22.98
3.66
39.85
75.27
99.41
104.41
87.52
51.47
3.38
-47.99
-94.24
-128.84
-148.04
-150.84
-139.31
-116.63
-85.92
-49.42
-9.91
29.64
65.88
94.92
112.60
113.94
96.93
64.28
24.21
-14.18
-42.60
-56.15
-54.79
-42.94
-29.22
-19.65
-15.16
-11.76
-8.11
-6.22
-11.52
-30.67
-68.72
-128.87
-206.38
-288.72
-358.33
-403.64
-420.13
-410.57
-382.63
-327.83
-250.10
-164.07
-96.97
-46.05
-3.00
40.09
85.35
132.78
181.00
224.36
257.09
274.63
275.95
259.30
226.36
183.76
142.17
112.49
100.08
105.96
127.08
158.14
188.86
208.48
208.97
187.21
145.07
87.27
22.00
-40.54
-89.72
-119.36
-127.43
-115.52
-87.69
-49.60
-7.87
31.98
66.38
93.93
113.29
123.07
121.49
106.71
77.78
36.03
-13.14
-60.35
-94.41
-106.90
-95.39
-64.92
-26.30
7.87
27.53
27.52
7.43
-30.32
-82.20
-143.75
-208.72
-268.34
-312.54
-332.92
-326.18
-295.80
-250.84
-202.36
-159.06
-124.60
-97.32
-72.24
-43.80
-8.31
34.82
82.82
130.31
170.53
197.13
205.94
196.39
171.86
139.03
106.33
81.86
71.56
77.79
98.89
129.50
161.78
187.30
198.96
192.34
166.28
122.59
65.57
1.59
-61.34
-114.56
-150.23
-163.34
-153.14
-123.53
-81.89
-36.74
4.64
37.75
61.02
74.73
79.44
75.02
60.82
37.02
6.16
-26.23
-52.65
-65.90
-61.93
-41.49
-9.98
24.41
53.24
69.83
70.20
52.96
18.91
-29.16
-86.34
-145.67
-198.99
-238.47
-258.61
-257.64
-237.90
-204.79
-165.06
-124.53
-86.50
-51.12
-15.94
22.38
65.86
113.60
161.36
202.46
229.89
238.69
227.67
199.85
161.62
120.97
85.66
61.91
53.59
61.84
84.91
117.95
153.60
183.18
198.66
194.68
169.81
126.90
72.30
14.36
-38.55
-79.64
-104.97
-113.95
-108.93
-94.13
-74.19
-52.82
-32.31
-13.74
2.41
15.63
25.01
29.45
28.05
20.49
7.30
-10.03
-29.07
-46.49
-58.61
-62.13
-55.14
-38.09
-14.19
10.86
30.10
36.90
26.38
-3.63
-52.02
-114.39
-183.36
-249.55
-303.19
-336.45
-345.52
-331.65
-300.59
-260.13
-216.98
-174.51
-132.48
-88.82
-42.30
5.46
50.03
86.17
110.34
122.55
126.12
126.00
126.28
128.58
131.95
134.03
132.19
124.30
108.85
85.24
54.74
21.69
-6.19
-19.43
-10.43
22.65
74.05
131.72
181.52
212.19
218.28
200.15
161.68
107.81
43.69
-24.66
-89.53
-141.98
-174.22
-182.34
-167.97
-137.64
-99.96
-62.29
-28.71
-0.03
24.67
46.29
64.59
78.44
86.84
89.67
88.03
83.78
78.90
74.86
72.22
70.71
69.55
67.96
65.67
63.20
61.65
61.99
64.16
66.41
65.08
55.33
32.55
-5.57
-57.21
-115.65
-170.29
-209.59
-224.86
-213.22
-178.51
-129.50
-76.53
-28.24
10.07
36.32
50.44
53.33
46.62
33.14
16.92
2.49
-6.69
-9.67
-8.25
-5.93
-6.04
-9.91
-16.13
-21.07
-20.50
-11.15
7.91
35.00
66.36
97.32
123.51
141.78
150.54
149.64
140.20
124.36
104.94
84.93
66.79
51.77
39.77
29.73
20.38
10.83
0.83
-9.59
-20.64
-33.01
-47.42
-63.81
-80.70
-95.33
-104.64
-106.70
-101.69
-91.87
-80.47
-70.14
-61.87
-54.99
-48.06
-40.06
-31.17
-22.72
-16.18
-12.17
-9.80
-6.98
-1.41
8.30
21.84
36.97
50.00
56.39
51.51
31.62
-4.96
-56.55
-117.36
-178.17
-228.41
-259.27
-266.49
-251.30
-219.21
-177.15
-130.78
-83.20
-35.72
10.56
53.55
90.35
118.58
137.65
149.02
154.96
156.89
154.23
144.83
126.55
99.12
65.25
30.06
-0.66
-22.56
-34.02
-36.47
-33.32
-28.58
-25.58
-26.13
-30.48
-37.55
-45.39
-51.60
-53.70
-49.50
-37.44
-16.88
11.71
46.70
85.58
125.06
161.50
191.28
211.30
219.60
215.70
200.72
177.08
147.89
116.32
85.13
56.42
31.67
11.86
-2.49
-11.19
-14.42
-12.59
-6.30
3.67
16.31
30.20
43.51
54.07
59.71
58.69
49.94
33.37
9.91
-18.52
-49.16
-78.71
-103.98
-122.50
-133.10
-136.17
-133.48
-127.63
-121.27
-116.56
-114.65
-115.53
-118.30
-121.77
-125.07
-128.12
-131.40
-135.22
-138.85
-139.90
-134.77
-119.72
-92.50
-53.62
-6.53
43.16
89.31
127.03
153.78
169.52
175.97
175.31
169.03
157.47
140.26
117.21
89.20
58.40
27.64
-0.68
-25.33
-46.35
-64.44
-80.11
-93.34
-103.64
-110.34
-112.83
-110.42
-102.19
-87.19
-65.21
-37.61
-7.92
18.85
37.73
45.75
43.19
33.33
20.95
10.07
2.45
-2.58
-6.89
-11.81
-16.98
-20.34
-19.45
-12.93
-1.32
13.28
28.63
43.74
59.57
78.52
103.07
134.15
170.17
206.99
238.76
259.52
264.75
252.55
224.16
183.60
136.74
89.92
48.79
17.30
-2.65
-11.32
-10.95
-5.35
0.69
2.54
-3.15
-17.38
-38.59
-63.18
-86.85
-105.99
-118.56
-124.23
-123.85
-118.83
-110.54
-100.35
-89.69
-80.16
-73.18
-69.46
-68.58
-69.22
-69.71
-68.98
-67.05
-64.90
-63.59
-63.46
-63.74
-63.08
-60.54
-56.46
-52.50
-50.92
-53.55
-61.28
-74.15
-91.85
-113.96
-139.35
-165.49
-188.11
-202.02
-202.80
-188.53
-160.37
-121.69
-76.35
-27.58
22.01
69.65
111.55
143.34
161.59
165.63
158.34
145.41
133.16
126.35
126.88
133.85
144.57
155.69
164.03
166.91
162.39
149.52
128.94
103.09
76.00
52.34
36.33
30.57
35.29
48.25
65.10
80.31
88.45
85.69
70.86
45.82
14.92
-16.35
-43.00
-61.75
-71.59
-73.45
-69.48
-62.12
-53.54
-45.25
-38.22
-32.98
-29.88
-29.17
-30.97
-35.09
-40.89
-47.46
-54.11
-60.99
-69.42
-81.48
-98.87
-121.75
-148.15
-174.61
-197.56
-214.77
-225.85
-231.55
-232.45
-227.94
-216.12
-194.69
-162.46
-120.53
-72.59
-24.16
18.91
52.05
73.06
82.33
82.36
76.82
69.52
63.69
61.62
64.59
72.88
85.79
101.59
117.68
131.19
139.82
142.67
140.47
135.13
128.60
121.91
114.64
105.24
91.93
73.78
51.42
27.22
4.93
-11.04
-16.65
-9.14
11.89
43.74
80.64
114.75
138.23
145.70
135.90
111.93
79.80
46.08
15.82
-8.41
-26.14
-37.87
-44.13
-45.25
-41.73
-34.76
-26.27
-18.43
-12.81
-9.94
-9.41
-10.45
-12.64
-16.19
-21.75
-30.02
-41.31
-55.34
-71.41
-88.49
-105.60
-121.95
-137.25
-151.55
-164.77
-176.15
-183.71
-184.36
-174.60
-152.01
-116.49
-71.05
-21.36
25.67
63.85
89.35
101.52
102.50
96.05
86.08
75.56
65.99
57.75
50.77
45.18
41.48
40.23
41.52
44.66
48.37
51.42
53.27
54.37
55.87
58.75
62.98
67.06
68.46
64.58
53.91
36.95
16.33
-3.70
-18.31
-23.23
-15.86
4.04
34.12
69.66
104.49
132.33
148.38
150.44
139.32
118.21
91.37
62.72
34.87
9.07
-14.24
-34.69
-51.62
-64.24
-72.27
-76.39
-78.17
-79.48
-81.53
-84.23
-86.17
-85.21
-79.54
-68.55
-53.39
-36.83
-22.60
-14.35
-14.67
-24.46
-42.92
-68.12
-97.57
-128.74
-158.88
-184.85
-203.03
-209.83
-202.76
-181.24
-146.92
-102.99
-53.19
-1.13
49.72
95.72
132.90
157.70
168.32
165.72
153.60
137.00
120.28
105.72
93.33
81.96
70.86
60.47
52.05
46.64
44.04
42.82
41.08
37.66
32.79
27.89
24.67
24.02
25.40
27.05
26.89
23.63
17.42
9.85
3.09
-1.09
-2.17
-1.13
-0.07
-1.48
-7.39
-18.71
-34.64
-52.43
-67.55
-74.48
-68.24
-46.28
-10.12
34.41
78.50
113.08
131.90
133.35
120.45
98.97
74.78
51.84
31.57
13.63
-2.65
-17.16
-28.95
-36.94
-40.87
-41.76
-41.57
-42.27
-44.81
-48.78
-52.67
-54.89
-54.68
-52.78
-51.19
-52.39
-58.19
-68.84
-82.87
-97.60
-110.11
-118.23
-120.84
-117.78
-109.32
-96.04
-79.08
-60.59
-43.79
-32.07
-27.40
-28.89
-32.62
-33.14
-26.01
-10.07
11.81
34.13
51.12
59.13
57.59
48.44
34.77
19.52
4.91
-7.40
-16.04
-19.87
-18.32
-11.75
-1.56
10.16
21.15
29.62
34.53
35.67
33.51
28.92
22.98
16.81
11.57
8.32
7.99
11.19
17.84
27.02
36.99
45.59
50.91
51.93
48.89
43.08
36.23
29.83
24.80
21.52
20.33
21.73
26.21
33.60
42.53
50.39
54.06
51.12
40.91
24.86
6.00
-12.18
-26.91
-36.79
-41.88
-43.30
-42.74
-42.04
-42.89
-46.35
-52.45
-59.93
-66.51
-69.70
-67.83
-60.84
-50.34
-38.91
-29.02
-22.05
-17.95
-15.51
-13.07
-9.15
-2.63
7.33
21.37
39.66
61.53
85.11
107.50
125.51
136.65
139.99
136.28
127.45
115.58
102.01
87.03
70.14
50.84
29.31
6.71
-15.14
-34.36
-49.65
-60.58
-67.40
-70.66
-70.77
-67.83
-61.77
-52.59
-40.55
-26.20
-10.37
5.92
21.46
34.85
44.64
49.70
49.64
45.07
37.46
28.62
20.09
12.73
6.67
1.57
-3.02
-7.44
-11.94
-16.70
-21.92
-27.65
-33.66
-39.38
-43.97
-46.72
-47.30
-45.85
-43.00
-39.51
-36.04
-32.89
-30.08
-27.40
-24.68
-21.92
-19.35
-17.33
-16.17
-15.94
-16.39
-16.98
-17.08
-16.22
-14.32
-11.70
-9.03
-6.96
-5.92
-5.83
-6.15
-6.03
-4.63
-1.41
3.61
9.85
16.27
21.68
25.08
25.99
24.58
21.60
18.09
15.05
13.01
11.90
11.10
9.76
7.20
3.20
-1.84
-7.05
-11.38
-13.93
-14.31
-12.71
-9.79
-6.49
-3.72
-2.14
-2.02
-3.28
-5.44
-7.88
-9.85
-10.80
-10.42
-8.81
-6.40
-3.78
-1.48
0.22
1.30
2.00
2.66
3.61
5.06
7.09
9.56
12.15
14.47
16.14
16.93
16.80
15.88
14.36
12.46
10.42
8.53
7.16
6.57
6.83
7.69
8.57
8.83
8.07
6.28
3.92
1.63
-0.07
-1.13
-1.93
-3.13
-5.34
-8.83
-13.41
-18.56
-23.64
-28.11
-31.55
-33.61
-34.00
-32.51
-29.12
-24.24
-18.67
-13.42
-9.39
-7.01
-6.18
-6.37
-6.91
-7.31
-7.37
-7.13
-6.76
-6.41
-6.15
-6.01
-6.02
-6.22
-6.63
-7.18
-7.73
-8.04
-7.87
-7.08
-5.66
-3.75
-1.51
1.08
4.29
8.63
14.57
22.29
31.41
41.03
49.93
56.93
61.16
62.17
59.81
54.14
45.36
33.92
20.67
6.88
-5.96
-16.41
-23.44
-26.55
-25.75
-21.45
-14.30
-5.10
5.20
15.45
24.40
30.88
34.09
33.70
29.88
23.16
14.21
3.63
-8.07
-20.39
-32.66
-44.05
-53.54
-60.20
-63.35
-62.80
-58.82
-52.10
-43.63
-34.51
-25.86
-18.62
-13.39
-10.33
-9.07
-8.83
-8.55
-7.13
-3.70
2.22
10.64
21.04
32.49
43.70
53.28
59.97
62.99
62.15
57.94
51.32
43.39
35.17
27.40
20.47
14.53
9.58
5.49
2.08
-0.86
-3.58
-6.25
-8.86
-11.17
-12.66
-12.71
-10.73
-6.50
-0.33
6.88
13.92
19.64
23.32
24.83
24.65
23.53
22.17
21.00
20.05
18.96
17.12
13.84
8.63
1.41
-7.31
-16.53
-24.98
-31.49
-35.27
-36.09
-34.18
-30.12
-24.63
-18.40
-12.05
-6.10
-1.05
2.66
4.67
4.78
3.08
-0.08
-4.08
-8.22
-11.94
-14.99
-17.32
-19.06
-20.33
-21.14
-21.47
-21.32
-20.79
-20.09
-19.42
-18.87
-18.38
-17.73
-16.70
-15.15
-13.06
-10.53
-7.75
-4.90
-2.19
0.12
1.75
2.47
2.21
1.11
-0.45
-2.01
-3.24
-4.11
-4.87
-5.95
-7.73
-10.46
-14.13
-18.48
-22.90
-26.48
-28.04
-26.43
-20.92
-11.69
0.06
12.40
23.28
31.17
35.54
36.74
35.63
33.10
29.68
25.51
20.45
14.36
7.31
-0.22
-7.34
-12.91
-15.80
-15.36
-11.70
-5.71
1.06
7.01
10.93
12.34
11.46
9.00
5.89
3.13
1.72
2.55
6.25
12.85
21.52
30.64
38.08
41.90
40.92
35.12
25.62
14.23
2.95
-6.69
-13.91
-18.83
-22.32
-25.72
-30.35
-37.01
-45.51
-54.50
-61.76
-64.90
-62.27
-53.67
-40.66
-26.15
-13.56
-5.76
-4.11
-7.93
-14.60
-20.21
-20.77
-13.57
1.83
23.17
46.21
66.07
78.85
82.94
79.25
70.63
60.57
51.93
46.07
42.83
40.98
39.04
35.94
31.42
25.96
20.51
15.97
12.90
11.34
10.89
10.91
10.70
9.65
7.20
3.00
-3.01
-10.43
-18.30
-25.33
-30.29
-32.40
-31.75
-29.24
-26.34
-24.57
-24.99
-27.89
-32.66
-38.03
-42.49
-44.82
-44.47
-41.77
-37.72
-33.53
-30.12
-27.81
-26.32
-25.10
-23.69
-21.90
-19.78
-17.44
-14.82
-11.70
-7.80
-3.06
2.28
7.71
12.66
16.76
19.88
22.19
23.93
25.27
26.26
26.77
26.62
25.71
24.04
21.78
19.20
16.56
14.05
11.90
10.51
10.44
12.29
16.40
22.45
29.38
35.69
39.88
41.03
39.00
34.36
27.96
20.53
12.46
4.01
-4.50
-12.44
-19.05
-23.74
-26.41
-27.59
-28.03
-28.33
-28.50
-28.06
-26.39
-23.36
-19.55
-16.12
-14.22
-14.39
-16.27
-18.78
-20.75
-21.42
-20.67
-18.88
-16.60
-14.25
-12.08
-10.30
-9.15
-8.87
-9.58
-11.17
-13.28
-15.38
-17.00
-17.84
-17.82
-17.01
-15.50
-13.42
-10.83
-7.76
-4.14
0.23
5.53
11.81
18.74
25.69
31.93
36.92
40.57
43.05
44.57
45.05
44.14
41.45
36.92
30.96
24.32
17.73
11.61
6.00
0.79
-4.07
-8.47
-12.33
-15.74
-19.05
-22.69
-26.91
-31.63
-36.46
-40.82
-44.08
-45.55
-44.43
-39.97
-31.75
-20.08
-6.10
8.41
21.63
32.33
40.12
45.24
48.11
48.86
47.27
43.15
36.84
29.34
22.06
16.28
12.57
10.65
9.60
8.42
6.40
3.38
-0.42
-4.64
-8.98
-13.41
-18.03
-22.88
-27.86
-32.65
-36.88
-40.24
-42.82
-45.10
-47.95
-52.32
-58.85
-67.54
-77.65
-87.78
-96.28
-101.61
-102.83
-99.73
-92.74
-82.72
-70.60
-57.13
-42.82
-27.90
-12.58
2.82
17.67
31.04
41.96
49.77
54.50
56.89
58.20
59.77
62.54
66.88
72.69
79.63
87.27
94.92
101.39
104.99
103.86
96.82
84.07
67.35
49.35
32.75
19.29
9.42
2.40
-3.06
-8.25
-14.02
-20.75
-28.44
-36.85
-45.69
-54.76
-64.02
-73.43
-82.92
-92.14
-100.49
-107.32
-112.26
-115.55
-117.97
-120.13
-121.80
-121.36
-116.00
-102.67
-79.20
-45.02
-1.12
50.47
107.21
166.02
222.90
272.75
310.08
330.58
332.88
319.25
294.72
264.87
233.53
201.70
168.26
131.87
92.76
53.32
17.35
-11.73
-32.14
-44.27
-49.90
-51.16
-49.67
-46.33
-41.78
-36.98
-33.39
-32.65
-35.83
-42.87
-52.37
-62.10
-69.80
-73.99
-74.38
-71.71
-67.30
-62.45
-57.98
-54.10
-50.52
-46.69
-42.18
-36.90
-31.17
-25.59
-20.75
-16.98
-14.30
-12.53
-11.53
-11.30
-12.03
-13.77
-16.39
-19.50
-22.61
-25.35
-27.61
-29.46
-31.08
-32.55
-33.87
-35.03
-36.05
-36.93
-37.60
-37.84
-37.40
-36.17
-34.31
-32.35
-30.99
-30.80
-31.98
-34.16
-36.52
-38.14
-38.41
-37.31
-35.55
-34.17
-34.06
-35.44
-37.54
-38.93
-38.15
-34.49
-28.53
-22.03
-17.33
-16.47
-20.25
-27.87
-37.18
-45.57
-50.95
-52.53
-51.25
-49.31
-49.40
-53.86
-63.99
-79.36
-97.72
-115.14
-126.71
-127.97
-116.42
-93.10
-62.80
-32.50
-8.49
6.73
15.99
26.64
47.26
83.64
135.74
197.39
258.60
309.29
342.59
356.12
351.30
331.55
300.69
262.17
219.29
175.68
135.19
101.19
75.72
58.77
48.36
41.61
36.05
30.41
24.64
19.19
14.18
9.00
2.40
-6.82
-19.20
-34.33
-51.08
-68.04
-84.01
-98.00
-109.27
-117.20
-121.44
-122.23
-120.64
-118.42
-117.57
-119.59
-124.87
-132.61
-141.32
-149.48
-156.25
-161.30
-164.26
-163.92
-157.75
-142.37
-114.56
-72.65
-17.45
47.75
117.84
186.95
249.40
300.54
337.57
360.17
370.49
372.30
369.29
363.56
355.03
342.35
324.74
303.32
281.21
262.25
248.98
241.56
237.86
234.79
229.55
220.23
205.13
182.02
148.36
103.11
49.30
-4.84
-47.51
-67.85
-61.19
-32.06
6.89
40.09
55.37
48.53
23.63
-10.44
-45.01
-75.05
-99.88
-121.36
-141.45
-161.04
-180.56
-201.27
-225.74
-256.46
-293.63
-333.14
-366.64
-383.92
-377.24
-345.05
-293.38
-233.92
-179.80
-140.81
-120.48
-116.08
-121.12
-128.80
-134.58
-136.96
-136.70
-135.18
-133.20
-130.58
-126.62
-120.78
-113.40
-105.56
-98.55
-93.23
-89.65
-87.11
-84.75
-82.02
-78.95
-76.09
-74.04
-73.05
-72.84
-72.70
-71.79
-69.45
-65.31
-59.29
-51.56
-42.46
-32.51
-22.39
-12.81
-4.31
2.87
8.82
13.89
18.44
22.68
26.70
30.43
33.79
36.58
38.46
38.95
37.66
34.66
30.76
27.35
25.97
27.61
32.31
39.15
46.61
53.25
57.96
60.22
59.85
56.83
51.23
43.13
32.76
20.44
6.67
-7.84
-22.11
-34.87
-44.79
-50.73
-52.17
-49.36
-43.20
-34.96
-25.94
-17.33
-10.15
-5.39
-3.90
-6.25
-12.65
-22.70
-35.53
-49.86
-64.16
-76.81
-86.25
-91.26
-91.18
-86.15
-77.13
-65.72
-53.87
-43.34
-35.41
-30.61
-28.72
-28.90
-30.00
-30.94
-31.03
-30.20
-28.87
-27.67
-27.07
-27.04
-26.92
-25.57
-21.69
-14.36
-3.51
9.81
23.56
35.21
42.58
44.41
40.56
31.82
19.39
4.62
-11.15
-26.54
-40.06
-50.45
-57.01
-59.98
-60.51
-60.16
-60.25
-61.20
-62.46
-62.77
-60.81
-55.73
-47.52
-36.96
-25.43
-14.50
-5.39
1.52
7.23
14.14
25.73
45.62
76.22
117.37
165.71
215.15
258.38
289.00
303.35
301.32
285.93
261.88
234.08
206.37
181.12
159.23
140.53
124.13
108.66
92.70
75.06
55.32
33.92
12.13
-8.43
-26.21
-40.18
-50.05
-56.22
-59.68
-61.72
-63.62
-66.30
-70.00
-74.18
-77.72
-79.32
-78.06
-73.81
-67.25
-59.61
-52.21
-46.02
-41.41
-38.26
-36.16
-34.68
-33.55
-32.60
-31.74
-30.91
-29.97
-28.86
-27.57
-26.19
-24.77
-23.32
-21.72
-19.78
-17.40
-14.57
-11.50
-8.55
-6.05
-4.19
-2.92
-1.98
-1.04
0.15
1.66
3.31
4.75
5.51
5.16
3.43
0.43
-3.36
-7.11
-9.85
-10.80
-9.64
-6.60
-2.35
2.19
6.14
8.93
10.29
10.30
9.21
7.38
5.21
3.01
1.06
-0.49
-1.53
-2.06
-2.10
-1.68
-0.87
0.26
1.62
3.11
4.62
6.04
7.23
7.99
8.22
7.89
7.17
6.36
5.78
5.64
5.82
5.89
5.28
3.54
0.59
-3.16
-6.94
-9.97
-11.74
-12.21
-11.73
-10.89
-10.27
-10.25
-10.92
-12.10
-13.36
-14.11
-13.78
-11.95
-8.63
-4.32
0.11
3.68
5.71
6.10
5.32
4.23
3.67
4.15
5.68
7.88
10.18
12.07
13.33
14.05
14.48
14.92
15.51
16.18
16.78
17.18
17.47
17.84
18.46
19.20
19.61
19.02
16.92
13.26
8.53
3.70
-0.23
-2.52
-2.95
-1.81
0.33
2.80
5.04
6.62
7.38
7.31
6.63
5.73
5.06
5.03
5.85
7.48
9.68
12.07
14.29
16.01
17.02
17.16
16.31
14.38
11.40
7.61
3.45
-0.43
-3.34
-4.68
-4.09
-1.58
2.53
7.61
12.82
17.22
19.96
20.54
18.88
15.48
11.19
6.97
3.58
1.38
0.36
0.26
0.81
1.75
2.85
3.84
4.36
4.09
2.94
1.15
-0.77
-2.21
-2.76
-2.40
-1.50
-0.62
-0.29
-0.78
-2.04
-3.77
-5.64
-7.37
-8.81
-9.92
-10.63
-10.87
-10.58
-9.75
-8.46
-6.88
-5.17
-3.50
-1.98
-0.72
0.17
0.65
0.80
0.83
1.02
1.62
2.69
4.06
5.41
6.41
6.95
7.10
7.11
7.21
7.49
7.87
8.17
8.23
8.01
7.61
7.17
6.76
6.38
5.87
5.06
3.79
2.04
-0.02
-2.06
-3.66
-4.48
-4.37
-3.47
-2.18
-0.94
-0.09
0.28
0.33
0.33
0.51
0.95
1.59
2.39
3.38
4.70
6.50
8.75
11.18
13.31
14.64
14.82
13.79
11.72
8.94
5.85
2.94
0.76
-0.17
0.46
2.59
5.74
9.13
12.04
14.02
15.00
15.17
14.76
13.90
12.58
10.77
8.62
6.43
4.54
3.20
2.45
2.25
2.49
3.15
4.28
5.86
7.78
9.76
11.49
12.70
13.33
13.46
13.24
12.78
12.13
11.32
10.39
9.47
8.64
7.90
7.15
6.26
5.15
3.87
2.63
1.63
0.98
0.61
0.34
-0.05
-0.64
-1.40
-2.15
-2.73
-3.04
-3.08
-3.00
-3.02
-3.36
-4.15
-5.37
-6.83
-8.24
-9.35
-9.94
-9.96
-9.44
-8.40
-6.91
-5.04
-2.89
-0.68
1.32
2.89
3.93
4.48
4.71
4.79
4.80
4.75
4.64
4.52
4.53
4.75
5.17
5.61
5.85
5.73
5.32
4.84
4.58
4.71
5.17
5.73
6.10
6.06
5.60
4.86
4.06
3.40
2.96
2.73
2.60
2.45
2.18
1.70
0.97
-0.09
-1.52
-3.27
-5.16
-6.88
-8.09
-8.56
-8.26
-7.35
-6.10
-4.73
-3.34
-1.92
-0.44
1.06
2.42
3.45
3.97
3.91
3.35
2.48
1.53
0.77
0.42
0.54
1.13
2.03
3.06
4.02
4.78
5.23
5.25
4.71
3.53
1.79
-0.19
-1.88
-2.67
-2.05
0.22
4.13
9.35
15.37
21.37
26.34
29.14
28.84
25.06
18.26
9.68
0.85
-6.85
-12.81
-17.22
-20.83
-24.53
-28.98
-34.45
-40.87
-47.83
-54.55
-59.91
-62.67
-61.85
-57.01
-48.39
-36.65
-22.50
-6.43
11.05
29.06
46.12
60.28
69.85
74.16
73.92
70.91
67.12
63.73
60.68
56.75
50.29
40.03
25.82
8.95
-8.08
-22.24
-30.86
-32.62
-27.96
-18.95
-8.49
0.69
6.89
9.69
9.66
7.71
4.47
0.06
-5.74
-13.04
-21.34
-29.34
-35.17
-37.00
-33.86
-26.18
-15.79
-5.26
3.15
8.36
10.76
11.77
12.76
14.18
15.29
14.66
11.18
4.97
-2.38
-8.47
-11.21
-9.84
-5.33
0.17
4.45
6.23
5.63
3.80
2.13
1.38
1.40
1.34
0.26
-2.22
-5.80
-9.59
-12.66
-14.37
-14.67
-13.94
-12.83
-11.92
-11.55
-11.67
-11.99
-12.06
-11.48
-10.00
-7.62
-4.49
-0.95
2.51
5.28
6.66
6.12
3.45
-0.86
-5.68
-9.40
-10.45
-7.87
-1.72
6.85
15.93
23.45
27.80
28.27
25.13
19.42
12.49
5.59
-0.32
-4.70
-7.26
-8.03
-7.30
-5.73
-4.28
-3.99
-5.55
-9.00
-13.61
-18.11
-21.17
-21.87
-20.02
-16.11
-11.13
-6.10
-1.83
1.25
3.10
3.96
4.17
4.13
4.20
4.63
5.53
6.85
8.36
9.72
10.58
10.61
9.61
7.54
4.60
1.16
-2.23
-5.00
-6.69
-7.06
-6.10
-4.02
-1.17
1.98
4.93
7.19
8.44
8.58
7.82
6.55
5.14
3.80
2.50
1.05
-0.68
-2.68
-4.77
-6.59
-7.90
-8.55
-8.62
-8.34
-7.98
-7.73
-7.62
-7.54
-7.30
-6.77
-5.94
-4.88
-3.74
-2.64
-1.65
-0.83
-0.22
0.09
0.05
-0.34
-1.00
-1.77
-2.47
-2.94
-3.10
-2.95
-2.57
-2.17
-1.99
-2.21
-2.87
-3.75
-4.46
-4.53
-3.69
-1.95
0.30
2.51
4.16
4.94
4.91
4.35
3.65
3.06
2.68
2.43
2.19
1.86
1.42
0.87
0.15
-0.81
-2.07
-3.53
-4.94
-5.95
-6.21
-5.62
-4.35
-2.78
-1.39
-0.51
-0.22
-0.34
-0.56
-0.60
-0.37
0.07
0.50
0.74
0.70
0.48
0.25
0.23
0.54
1.12
1.80
2.35
2.56
2.30
1.61
0.64
-0.35
-1.03
-1.15
-0.62
0.46
1.71
2.59
2.49
0.89
-2.41
-7.19
-12.80
-18.28
-22.65
-25.20
-25.64
-24.19
-21.48
-18.33
-15.56
-13.80
-13.38
-14.26
-16.05
-18.11
-19.66
-20.07
-19.00
-16.53
-13.07
-9.19
-5.46
-2.26
0.23
1.98
3.04
3.58
3.81
4.04
4.65
5.99
8.25
11.32
14.84
18.15
20.53
21.30
19.96
16.33
10.65
3.69
-3.21
-8.45
-10.51
-8.59
-2.96
4.92
12.99
19.31
22.93
24.08
23.85
23.32
22.72
21.13
16.89
8.50
-4.36
-20.39
-37.01
-51.29
-61.26
-66.61
-68.88
-70.86
-75.74
-86.22
-103.49
-126.39
-151.10
-171.49
-180.20
-170.93
-141.04
-93.47
-36.77
17.64
59.80
85.30
97.13
104.10
116.95
143.87
187.61
244.98
308.54
369.14
418.23
449.42
459.21
447.11
415.58
369.47
315.11
258.98
206.43
160.91
123.48
92.42
63.29
30.16
-12.27
-65.86
-127.08
-187.14
-234.67
-259.49
-256.14
-225.17
-172.40
-106.83
-38.41
23.49
71.09
99.03
105.24
91.41
62.51
24.93
-16.04
-58.05
-101.58
-147.83
-195.87
-241.11
-275.87
-292.07
-284.41
-252.35
-199.94
-134.15
-62.70
7.45
70.47
121.47
156.54
173.36
172.09
155.94
130.49
102.27
76.99
58.30
47.59
44.35
46.91
52.96
60.02
65.68
68.05
66.04
59.48
49.00
35.61
20.32
3.88
-13.23
-30.68
-48.16
-65.46
-82.53
-99.61
-117.07
-135.05
-153.11
-170.03
-184.09
-193.55
-197.21
-194.78
-186.85
-174.68
-159.70
-143.37
-127.01
-111.92
-99.30
-89.95
-83.95
-80.45
-78.02
-75.28
-71.70
-67.85
-65.16
-64.99
-67.75
-72.45
-77.13
-79.67
-78.75
-74.30
-67.41
-59.96
-54.16
-52.09
-55.22
-63.68
-75.63
-87.29
-93.77
-90.82
-76.69
-53.21
-25.43
0.16
18.07
25.67
23.83
15.99
6.43
-1.35
-5.72
-6.91
-6.54
-6.87
-10.12
-18.02
-31.30
-49.42
-70.46
-91.48
-109.25
-121.25
-126.36
-125.02
-118.91
-110.19
-100.71
-91.43
-81.98
-70.61
-54.71
-31.85
-1.29
34.87
71.53
102.05
120.90
126.09
120.13
108.82
98.48
93.24
93.69
97.52
101.47
103.25
102.36
99.56
95.80
91.29
85.50
77.77
68.12
57.57
47.82
40.54
36.71
36.49
39.25
43.96
49.44
54.87
60.01
65.15
70.79
77.30
84.62
92.32
99.93
107.21
114.72
123.72
135.43
150.28
167.80
187.29
208.80
233.46
262.13
294.36
327.15
354.79
370.33
368.36
347.43
310.69
264.49
214.77
166.20
121.59
81.92
46.70
14.53
-16.45
-48.33
-83.29
-124.58
-172.94
-225.01
-273.88
-311.27
-330.63
-329.72
-312.31
-287.66
-269.57
-268.48
-286.48
-316.62
-346.60
-364.44
-363.14
-342.70
-295.61
-225.31
-144.23
-66.82
-1.34
51.30
92.76
123.65
143.69
154.03
156.54
156.39
161.56
178.21
208.07
247.20
287.40
318.62
332.61
324.31
295.31
253.16
207.48
165.22
127.54
93.16
58.80
22.07
-17.60
-57.32
-92.41
-119.51
-138.68
-153.54
-169.35
-191.92
-224.70
-267.69
-315.92
-360.09
-388.58
-390.45
-358.93
-294.04
-204.92
-106.75
-16.24
53.69
96.97
114.22
110.84
94.06
70.65
44.02
15.89
-12.39
-38.99
-62.25
-82.07
-99.71
-117.31
-126.38
-119.37
-93.59
-53.63
-7.64
37.80
78.88
114.45
143.83
166.77
181.83
187.29
182.92
171.81
160.04
153.69
157.09
170.14
188.79
205.90
213.82
207.84
189.70
166.17
144.26
129.94
123.15
120.73
118.68
112.45
97.09
69.77
33.81
-8.42
-53.13
-100.02
-149.14
-186.00
-198.37
-183.94
-147.98
-99.58
-62.14
-37.26
-25.14
-26.37
-41.25
-63.53
-94.07
-133.19
-179.90
-232.76
-287.95
-344.45
-401.19
-456.01
-485.32
-476.99
-432.45
-366.24
-296.64
-234.70
-185.93
-150.87
-127.00
-110.82
-101.58
-95.63
-86.81
-68.97
-38.20
2.39
45.34
83.16
111.47
127.37
132.47
131.17
127.39
124.25
122.26
121.24
121.80
125.41
131.52
138.96
145.95
150.60
152.01
149.99
145.54
141.20
140.37
145.30
157.56
178.53
205.80
239.17
278.44
322.05
365.79
402.69
424.17
423.15
396.68
346.87
280.24
204.29
125.30
47.76
-24.77
-88.56
-139.56
-174.72
-193.67
-199.10
-196.32
-190.79
-185.87
-181.90
-177.38
-170.82
-162.48
-154.50
-149.35
-148.51
-151.11
-154.36
-154.89
-150.79
-142.56
-132.92
-125.34
-122.33
-124.50
-129.87
-133.96
-130.15
-111.41
-72.64
-13.28
60.83
137.48
200.82
236.76
238.30
208.84
160.84
110.97
73.66
56.21
57.40
68.46
78.44
78.37
66.36
47.64
30.00
19.19
17.35
23.61
35.54
50.20
63.64
70.69
66.00
46.45
13.13
-28.46
-69.85
-100.52
-109.94
-91.90
-46.89
17.41
88.31
151.74
196.29
216.26
209.23
181.07
143.91
110.36
87.32
75.06
69.84
67.37
64.52
58.65
47.21
26.83
-4.13
-45.65
-94.16
-142.42
-181.01
-201.78
-201.03
-180.97
-149.60
-117.81
-95.19
-86.24
-89.45
-99.29
-109.62
-116.35
-118.00
-115.17
-109.04
-100.43
-89.36
-75.66
-59.88
-43.52
-28.75
-17.33
-10.09
-6.71
-6.05
-6.59
-6.96
-6.44
-5.12
-3.63
-2.64
-2.50
-3.14
-4.12
-4.94
-5.22
-4.97
-4.58
-4.65
-5.73
-8.00
-11.28
-15.06
-18.74
-21.84
-24.12
-25.63
-26.51
-26.80
-26.40
-25.07
-22.64
-19.24
-15.26
-11.33
-7.97
-5.49
-3.93
-3.07
-2.53
-1.84
-0.47
2.14
6.41
12.43
19.75
27.42
34.30
39.37
42.21
43.01
42.40
41.08
39.58
38.23
37.42
37.75
39.99
44.75
51.88
60.15
67.30
70.72
68.31
59.33
44.67
26.47
7.36
-10.35
-25.18
-36.50
-44.24
-48.50
-49.42
-47.24
-42.47
-36.01
-29.02
-22.65
-17.66
-14.18
-11.75
-9.52
-6.59
-2.44
3.02
9.29
15.53
20.79
24.33
25.74
25.04
22.59
18.97
14.88
11.02
8.04
6.39
6.23
7.29
8.96
10.43
10.89
9.87
7.32
3.64
-0.46
-4.17
-6.84
-8.19
-8.34
-7.84
-7.45
-7.88
-9.54
-12.35
-15.81
-19.07
-21.28
-21.77
-20.27
-16.99
-12.57
-7.89
-3.87
-1.15
0.12
0.27
-0.03
-0.07
0.54
1.74
3.08
3.98
4.01
3.10
1.52
-0.23
-1.66
-2.34
-1.94
-0.18
3.04
7.58
12.91
18.14
22.17
24.09
23.38
20.14
15.02
8.94
2.84
-2.48
-6.55
-9.15
-10.31
-10.24
-9.36
-8.22
-7.54
-8.01
-10.15
-14.11
-19.48
-25.27
-30.21
-33.04
-33.02
-30.20
-25.32
-19.59
-14.11
-9.53
-5.89
-2.70
0.64
4.52
8.79
12.80
15.63
16.43
14.75
10.83
5.60
0.54
-2.64
-2.51
1.61
9.24
18.62
27.05
31.53
29.80
21.13
6.87
-9.96
-25.51
-36.49
-41.06
-39.29
-32.82
-24.05
-15.30
-8.20
-3.60
-1.65
-2.01
-3.92
-6.13
-7.07
-5.11
0.89
11.08
24.19
37.75
48.67
54.10
52.34
43.33
28.59
10.75
-7.18
-22.53
-33.44
-39.06
-39.61
-36.17
-30.31
-23.65
-17.33
-11.63
-5.94
0.98
10.39
22.86
38.01
54.34
69.61
81.34
87.34
86.19
77.48
61.94
41.24
17.77
-5.83
-27.08
-44.09
-55.77
-61.82
-62.68
-59.15
-52.14
-42.48
-30.86
-17.99
-4.72
7.89
18.65
26.51
30.79
31.36
28.63
23.43
16.76
9.74
3.42
-1.31
-3.79
-3.72
-1.30
2.76
7.47
11.74
14.74
16.02
15.61
13.93
11.61
9.36
7.85
7.60
8.85
11.43
14.74
17.73
19.20
18.06
13.80
6.65
-2.42
-11.90
-20.29
-26.54
-30.35
-32.16
-32.83
-33.24
-33.92
-34.91
-35.91
-36.54
-36.46
-35.43
-33.17
-29.26
-23.27
-14.94
-4.52
7.15
18.78
28.98
36.59
40.99
42.09
40.27
36.16
30.57
24.34
18.34
13.28
9.66
7.67
7.18
7.92
9.52
11.67
14.03
16.29
18.08
19.09
19.15
18.31
16.82
14.91
12.63
9.78
5.90
0.46
-6.80
-15.73
-25.67
-35.61
-44.44
-51.10
-54.79
-55.05
-51.81
-45.43
-36.69
-26.73
-16.77
-7.83
-0.53
5.01
9.12
12.25
14.84
17.08
18.95
20.39
21.36
21.93
22.36
22.94
23.96
25.56
27.69
30.10
32.41
34.21
35.20
35.17
34.03
31.72
28.27
23.78
18.57
13.11
7.91
3.40
-0.24
-3.04
-5.19
-6.89
-8.34
-9.71
-11.19
-13.01
-15.40
-18.51
-22.33
-26.64
-31.07
-35.19
-38.54
-40.75
-41.57
-40.90
-38.79
-35.45
-31.23
-26.41
-21.29
-16.04
-10.83
-5.80
-1.10
3.16
6.95
10.32
13.38
16.22
18.79
20.87
